0.26248,1.6867,-3.5304,8.1003,-0.023824,0.011912,0.021075
0.26404,1.6867,-3.5696,8.316,-0.027489,0.012217,0.022297
0.27274,1.7064,-3.6873,8.0807,-0.026878,0.0085521,0.0045815
0.26974,1.7456,-3.55,8.1199,-0.024129,0.0076358,0.0058032
0.25946,1.9221,-3.6873,8.218,-0.022907,0.0082467,0.0082467
0.25659,1.7456,-3.6873,8.1591,-0.017715,0.0048869,0.012828
0.23904,1.9221,-3.8442,8.1199,-0.016493,0.00061087,0.014661
0.23419,1.7456,-3.6873,8.1003,-0.019548,-0.0018326,0.018021
0.23209,1.6867,-3.7658,8.1787,-0.023518,-0.0015272,-0.0073304
0.22919,1.6867,-3.7069,8.2572,-0.030238,0.00030543,-0.0058032
0.21619,1.7064,-3.5304,8.0807,-0.029932,-0.0036652,0.021991
0.21078,1.6867,-3.6285,8.0611,-0.024435,0.00061087,0.016493
0.20767,1.824,-3.6873,8.1003,-0.0054978,0.018326,0.0064141
0.19312,1.9025,-3.6285,8.1787,-0.007025,0.011912,0.0039706
0.18515,1.824,-3.6285,8.1787,0.00030543,0.020464,0.0094684
0.17581,1.824,-3.6873,8.218,-0.0012217,0.0079412,-0.0024435
0.16644,1.8437,-3.6873,8.218,-0.0097738,0.017715,-0.013744
0.15695,1.9809,-3.5696,7.9042,0.0018326,0.013439,-0.017715
0.14783,1.4906,-3.6088,8.218,0.002138,0.024129,-0.014355
0.13702,1.824,-3.6285,8.2768,-0.002138,0.035125,-0.0064141
0.13501,1.7456,-3.6873,8.316,-0.023824,0.032987,-0.0048869
0.12488,1.8044,-3.7658,8.0807,-0.04948,0.029932,-0.0067195
0.12125,1.9221,-3.4519,8.1591,-0.068417,0.025656,-0.0094684
0.11575,1.824,-3.5304,8.1787,-0.069333,0.027794,-0.013744
0.11118,2.1575,-3.9423,8.0807,-0.050396,0.034514,-0.0082467
0.10052,1.9613,-3.8638,8.1787,-0.023824,0.039095,-0.0051924
0.093414,1.8437,-3.6873,8.1199,0.0018326,0.046426,-0.018937
0.074646,1.5495,-3.4519,8.1787,0.023824,0.048869,-0.018021
0.078064,1.6475,-3.6873,8.0807,0.03207,0.044899,-0.019853
0.064575,1.6475,-3.6873,8.0807,0.024129,0.036346,-0.019853
0.061188,1.8044,-3.8246,8.1003,0.0018326,0.022602,-0.017104
0.057709,1.9221,-3.7658,8.0807,-0.026878,0.0085521,-0.012217
0.062988,1.7456,-3.6873,8.0807,-0.039706,-0.012828,0.0036652
0.083527,1.824,-3.8638,8.316,-0.061392,-0.025351,-0.0030543
0.11182,1.9809,-3.5304,8.1787,-0.079107,-0.033903,0.007025
0.13998,1.7456,-3.55,8.2376,-0.084299,-0.037874,0.0067195
0.13858,1.824,-3.7265,8.2768,-0.074526,-0.032376,0.0061087
0.13895,2.0006,-3.6873,8.2572,-0.054367,-0.020159,0.0058032
0.13699,1.9221,-3.6285,8.2768,-0.03146,-0.0082467,0.0051924
0.1347,1.8633,-3.6677,8.2376,-0.015577,0.002138,0.0064141
0.13531,1.9221,-3.8246,8.1199,-0.0064141,0.010385,-0.027184
0.12012,1.9613,-3.5696,8.0807,-0.01069,0.017104,-0.027184
0.12561,1.6671,-3.6873,8.1199,-0.015882,0.018326,-0.0088575
0.11185,1.6867,-3.7069,8.0807,-0.020769,0.018021,-0.016188
0.12073,1.6671,-3.6873,8.0807,-0.021075,0.019242,-0.019853
0.10486,1.824,-3.6285,8.1787,-0.022297,0.019548,-0.023213
0.10962,1.7652,-3.6873,8.1003,-0.022907,0.018937,-0.025656
0.11163,1.8437,-3.6873,8.1003,-0.023824,0.018937,-0.025351
0.093536,1.9809,-3.8834,8.0807,-0.025045,0.018631,-0.0085521
0.099457,1.9025,-3.7854,7.9434,-0.02474,0.019853,-0.0051924
0.097656,2.0594,-3.6873,8.218,-0.021075,0.017715,-0.025045
0.10263,1.9221,-3.6285,8.218,-0.020464,0.017715,-0.023213
0.081055,2.0006,-3.7069,8.218,-0.025045,0.016493,-0.020464
0.074829,1.824,-3.6285,8.218,-0.026878,0.016188,-0.018631
0.065521,1.7652,-3.6873,8.1787,-0.025962,0.013744,-0.015577
0.048584,1.6671,-3.7658,8.2376,-0.021075,0.012217,-0.011606
0.038879,1.8437,-3.6677,8.0807,-0.019853,0.010385,-0.0054978
0.02066,1.9613,-3.6677,8.0611,-0.022602,0.0054978,-0.0024435
0.0007019,1.8633,-3.6873,8.0807,-0.028711,0.0058032,-0.0027489
-0.011475,2.0006,-3.8638,8.1003,-0.035125,0.0027489,-0.0012217
-0.025879,1.6867,-3.5696,8.2376,-0.039401,0.00061087,-0.0018326
-0.037445,1.824,-3.6873,7.963,-0.036346,0.00061087,-0.0042761
-0.042267,1.9221,-3.9227,8.0807,-0.026878,0.0079412,-0.0051924
-0.051758,1.824,-3.6873,8.1003,-0.018937,0.01741,-0.0058032
-0.065338,1.9221,-3.6285,8.0807,-1.1005,-0.11362,0.017104
-0.081726,1.8044,-3.6873,8.0807,-1.0602,-0.19884,0.010385
-0.11551,1.7456,-3.8442,8.0807,-0.88087,-0.2642,0.10904
-0.22794,1.5495,-3.6677,8.4141,-0.62125,-0.27153,0.094073
-0.34634,1.7064,-3.6873,8.1787,-0.35766,-0.2248,0.05681
-0.47736,1.9221,-4.2365,7.8061,-0.14508,-0.14172,0.030543
-0.62305,2.0006,-4.5503,7.3746,-0.70616,-0.053451,0.024129
-0.79263,2.0006,-4.158,7.7669,-0.96914,0.015577,0.022907
-0.96085,1.6867,-3.0401,8.7083,0.064141,0.055894,-0.027184
-0.99997,1.3337,-2.4124,8.9437,0.042455,0.065973,-0.021075
-0.99997,1.5887,-2.589,8.6299,0.013744,0.058643,-0.00030543
-0.99997,1.824,-3.3931,8.218,-0.011912,0.044899,-0.01069
-0.99997,1.7652,-4.3934,7.8649,-0.023213,0.03146,-0.022907
-0.99997,1.9613,-4.2561,8.2572,-0.02138,0.022297,-0.032987
-0.99997,1.8633,-3.2362,8.4926,-0.0058032,0.017715,-0.036041
-0.99997,1.8633,-2.2751,8.3945,0.058032,0.012217,-0.034514
-0.99997,1.6867,-1.7848,8.4141,-0.0061087,0.0076358,-0.020159
-0.99997,1.6083,-2.0594,8.7475,0.00061087,0.0082467,-0.020464
-0.99997,1.5102,-3.2362,8.5514,0.012828,0.0058032,-0.017104
-0.99997,1.8437,-4.5503,8.0218,0.024129,0.0054978,-0.014661
-0.99997,2.1575,-5.1387,7.4727,0.029016,0.010996,-0.015577
-0.89621,1.9613,-4.6484,7.6884,0.027489,0.018631,-0.018021
-0.75677,1.9417,-4.0992,7.963,-0.018021,0.027184,-0.019853
-0.62729,1.7456,-3.6677,8.218,-0.014355,0.032376,-0.020159
-0.5224,1.8044,-3.6088,8.1199,0.18906,0.01741,0.078191
-0.43958,1.8437,-3.55,8.0807,0.30452,0.06689,0.099266
-0.36166,1.6671,-3.7658,8.0022,0.35247,0.089797,-0.020769
-0.28909,1.8633,-3.8246,8.0611,0.3317,0.093462,-0.0036652
-0.23895,1.6867,-3.8638,8.0218,0.24954,0.084605,-0.0033598
-0.17535,1.824,-3.8246,8.0807,0.10721,0.063835,0.007025
-0.13123,2.0594,-3.8246,8.0807,-0.10476,0.030238,0.026267
-0.093872,1.9221,-3.7265,8.0611,-0.39034,-0.031765,0.050091
-0.061829,1.824,-3.8638,8.0611,-0.42822,0.041844,-0.52687
-0.01004,1.8633,-4.158,8.218,-0.55558,0.0027489,-0.57513
0.041351,1.9809,-3.8638,8.0611,-0.58368,0.018937,-0.3146
0.063263,1.9221,-3.9815,8.0807,-0.55711,0.04948,-0.34606
0.087799,1.8437,-3.6285,8.1787,-0.50763,0.08094,-0.36255
0.088745,1.6867,-3.6285,8.1199,-0.43188,0.10782,-0.4102
0.096558,1.7456,-3.6873,8.1199,-0.33811,0.13775,-0.44654
0.098572,1.824,-3.7265,7.9238,-0.26237,0.18631,-0.4777
0.088104,1.824,-3.6873,8.0611,-0.23274,0.24374,-1.0721
0.069092,1.824,-3.9227,8.0022,-0.26634,0.29596,-1.157
0.060516,1.824,-4.0207,8.1787,-0.38179,0.32345,-0.61361
0.041168,1.6475,-3.8638,8.218,-0.55925,0.32834,-0.66157
0.007782,1.8437,-3.6873,8.4141,-0.74739,0.32132,-0.72876
-0.015381,1.7456,-3.5304,8.316,-0.89797,0.31215,-0.80787
-0.058685,1.6083,-3.7658,8.4337,-0.97433,0.31673,-0.89767
-0.11832,1.8633,-4.2953,8.1199,-0.96761,0.3375,-0.98869
-0.18414,1.9613,-4.2365,8.1003,0.13531,0.055283,-0.043371
-0.2489,1.5495,-3.7265,8.316,0.1292,0.040012,-0.045815
-0.29065,1.6475,-3.3931,8.2572,0.10171,0.019853,0.01405
-0.31464,1.824,-3.4127,8.218,0.073915,0.0061087,0.014661
-0.31418,2.2359,-4.0796,7.7669,0.065973,-0.0079412,0.0036652
-0.28708,2.6086,-4.2953,7.8649,0.083383,-0.014355,0.0088575
-0.23486,2.8635,-4.5111,7.7669,0.12798,-0.0058032,0.0076358
-0.15054,3.1185,-4.8837,7.6884,0.18845,0.022907,-0.020769
-0.038452,3.1185,-5.021,7.5903,0.31185,0.064752,-0.1573
0.074799,3.2754,-4.7072,7.4531,0.34575,0.10324,-0.22663
0.18982,3.2754,-4.4522,7.5315,0.32681,0.11454,-0.057116
0.29544,3.1185,-4.3934,7.61,0.27978,0.09499,-0.077885
0.41077,3.3343,-4.8837,7.4531,0.2306,0.07422,-0.095906
0.52243,3.5696,-5.5113,7.1196,0.16646,0.067195,-0.11118
0.62515,3.4127,-5.7467,6.8058,0.050091,0.068417,-0.11973
0.716,3.3931,-5.5898,7.2177,-0.16921,0.061392,-0.12981
0.80667,3.3146,-5.0995,7.3942,-0.43616,0.13897,-0.55711
0.87866,3.2558,-4.8837,7.4727,-0.55772,0.11332,-0.47617
0.98895,3.3146,-4.7268,7.3158,-0.65515,0.074526,-0.98044
1,3.2754,-4.5699,7.1196,-0.69914,0.052534,-0.94806
1,3.0989,-4.6091,7.0019,-0.68386,0.060781,-0.8995
1,3.3146,-4.7856,7.1589,-0.65851,0.10049,-0.83108
1,3.4912,-4.8641,7.2373,-0.17868,0.15302,-0.75075
1,3.1774,-4.6287,7.5903,-0.29841,0.20159,-0.65485
1,3.0793,-4.3345,7.5511,-0.49083,1.0021,-0.98991
1,3.2558,-4.0207,7.4727,-0.47953,0.95845,-0.98869
1,2.9224,-3.4519,7.4923,-0.53329,0.87537,-1.1405
1,2.6282,-3.2166,7.9238,-0.62919,0.77336,-1.0876
1,2.1378,-3.6088,8.3357,-0.72724,0.65943,-1.0534
1,2.5497,-4.3934,8.218,-0.80787,0.55131,-1.0266
1,2.6086,-4.9818,7.8649,-0.85704,0.46609,-1.0049
1,2.589,-5.4525,7.4923,-0.86682,0.40256,-0.99388
1,2.4517,-5.5113,7.3354,-0.84727,0.3543,-1.0812
1,2.3928,-5.8055,7.0019,-0.81459,0.3094,-1.0904
1,2.2359,-5.8252,6.8647,-0.78282,0.25198,-0.98899
1,2.1378,-5.884,6.5312,-0.75075,0.1912,-0.9896
1,2.1575,-6.4528,5.8055,-0.71288,0.14539,-1.0018
1,2.2751,-6.2174,5.4917,-0.66645,0.11484,-1.0351
1,1.8633,-5.7467,5.6094,-0.63377,0.093768,-1.0644
1,1.824,-5.1975,5.9232,-0.62766,0.078496,-1.0757
1,1.9025,-4.9426,6.1782,-0.53848,0.04948,-1.0559
1,2.1182,-4.7856,6.2174,-0.41203,0.018326,-1.0165
1,2.4517,-4.7268,5.9232,-0.27703,0.015272,-1.1121
1,2.3732,-4.7072,5.6486,-0.16371,0.044288,-1.1432
1,2.2751,-4.7856,5.9036,-0.10934,0.089492,-1.1631
1,2.6086,-5.021,6.5116,-0.11576,0.13317,-1.157
1,2.4713,-4.9818,7.2177,-0.63652,0.15455,-1.1338
1,2.7851,-4.9818,7.5511,-0.61942,0.14875,-1.0968
1,3.2558,-4.7856,8.1003,1.3668,0.20953,0.074831
1,3.8638,-4.5111,7.9434,1.1469,0.12706,0.0058032
1,3.8442,-4.1776,7.1589,0.94134,0.059865,0.43035
1,4.3149,-4.9426,6.5508,0.77763,-0.00030543,0.36316
1,4.8053,-5.3544,5.5113,0.68875,-0.054672,0.31001
1,4.6484,-5.5898,4.6287,0.65332,-0.082467,0.25045
0.96817,4.7856,-6.237,3.7658,0.63316,-0.086132,0.19181
0.79956,4.5895,-8.2376,2.7655,0.61514,-0.073304,0.13592
0.58926,4.6484,-10.003,2.589,0.82161,0.11057,0.42608
0.37112,4.06,-9.8066,2.9028,0.57299,0.053145,0.48625
0.16266,3.7069,-7.8453,3.6873,0.46884,0.027794,0.24893
-0.040283,3.2558,-6.1978,3.8834,0.49633,0.026573,0.22633
-0.24435,2.7066,-5.3348,4.413,0.64752,0.040623,0.25534
-0.4433,2.2948,-5.7467,4.4914,0.88148,0.079412,0.29749
-0.65109,2.0006,-6.8647,3.9227,1.135,0.13439,0.33811
-0.84332,2.2359,-7.61,3.5304,1.3735,0.19945,0.38026
-0.99228,2.2359,-7.6296,3.3146,1.5809,0.26359,0.56658
-0.99997,2.432,-7.0019,3.2362,1.5867,0.29138,0.54703
-0.99997,2.1771,-6.2763,4.158,1.5556,0.27917,0.55833
-0.99997,1.9025,-6.1978,4.9622,1.5217,0.2303,0.58368
-0.99997,1.824,-6.139,5.3544,1.4899,0.18967,0.55925
-0.99997,2.2948,-6.3743,5.5506,1.4508,0.18051,0.53726
-0.99997,2.3732,-6.3743,5.5702,1.3986,0.19487,0.54672
-0.99997,2.0006,-6.4528,5.2368,1.3729,0.21808,0.56749
-0.99997,2.0006,-6.3939,5.3937,1.4019,0.2138,0.53145
-0.99997,2.3732,-5.8644,6.1193,1.5113,0.22388,0.50335
-0.99997,2.1575,-5.2956,7.1196,1.6945,0.25565,0.50793
-0.99997,2.0594,-5.5898,7.5511,1.883,0.28466,0.47464
-0.99997,2.1575,-5.9624,7.6492,1.9752,0.33292,0.4722
-0.99997,2.3732,-6.3351,7.3746,1.9322,0.36713,0.4725
-0.99997,2.6086,-6.3547,7.0608,1.7856,0.36011,0.47922
-0.99997,2.3732,-6.4528,6.9627,1.5876,0.29963,0.51099
-0.99997,2.9224,-5.6486,6.2959,0.14813,-0.083383,-0.0073304
-0.99997,3.0008,-4.3345,6.4332,0.19273,-0.043677,-0.04215
-0.99997,2.2163,-4.1972,7.5903,0.16524,-0.029627,0.10018
-0.99997,1.824,-3.9423,8.316,0.088575,-0.034819,0.10568
-0.99997,1.2945,-3.2558,8.8064,-0.0085521,-0.052534,0.10201
-0.99997,1.4318,-3.0793,8.7083,-0.084605,-0.073609,0.094379
-0.99997,1.6671,-3.5304,8.316,-0.1011,-0.081551,0.071166
-0.99997,1.9809,-3.8638,8.1787,-0.079718,-0.068722,0.036041
-0.99997,1.8633,-3.7658,8.4729,-0.018937,-0.036041,0.023518
-0.99997,1.9809,-3.6285,8.3945,0.080634,0.017715,0.034208
-0.99997,2.334,-3.8442,7.8649,0.17318,0.080329,-0.050396
-0.99997,2.1182,-4.3149,7.61,0.22144,0.12492,-0.05284
-0.99997,2.2359,-4.1776,7.61,0.23121,0.12798,-0.058643
-0.99997,2.1771,-3.7658,7.6884,0.22785,0.10996,-0.053145
-0.99997,2.1182,-3.6285,7.8649,0.22602,0.094073,-0.040928
-0.99997,1.7652,-4.0207,7.8061,0.20556,0.074831,-0.007025
-0.99997,2.0594,-4.5699,7.4334,0.072693,0.055894,-0.059254
-0.99997,2.1575,-4.7856,7.1589,0.031154,0.038179,-0.094379
-0.99997,2.2948,-4.158,7.3354,-0.041233,0.034819,0.057421
-0.99997,2.2359,-3.6873,7.7669,-0.11087,0.041539,0.082467
-0.99997,2.0006,-3.6873,8.0022,-0.12737,0.03879,0.10415
-0.99997,1.9221,-3.5304,8.2572,-0.067195,0.021075,0.10415
-0.99997,1.9613,-3.3146,8.1591,0.16402,0.019242,0.066584
-0.99997,2.0006,-3.3735,8.0022,0.11332,0.054978,0.0024435
-0.99997,1.6867,-4.0207,7.8061,0.29841,0.12217,-0.27061
-0.99997,2.2359,-5.0014,7.4531,0.35277,0.19884,-0.28283
-0.99997,2.334,-4.9818,7.5315,0.34453,0.26786,-0.12675
-0.99997,2.1182,-4.4914,7.9434,0.27733,0.31429,-0.16127
-0.99997,2.1771,-3.8638,8.0218,0.16463,0.33964,-0.17593
-0.99997,2.0594,-3.2362,8.2376,0.016188,0.3543,-0.1854
-0.99997,2.079,-3.0793,8.2572,0.054367,0.35827,-0.21716
-0.99997,2.2359,-3.4127,7.9434,0.19273,0.33872,-0.25076
-0.99997,2.0594,-3.7069,8.0022,0.30024,0.075442,-0.04612
-0.99997,1.6867,-3.9423,8.4926,0.31154,0.083689,-0.05284
-0.99997,1.0395,-3.0597,8.8652,0.27122,0.07025,0.030543
-0.99997,1.1964,-2.4124,9.5125,0.19334,0.05284,0.030238
-0.99997,1.0199,-2.2751,9.7478,0.083383,0.038179,0.011912
-0.99997,1.6083,-3.4519,8.6299,-0.021686,0.021686,-0.0030543
-0.99997,2.0594,-4.0207,8.0807,-0.080023,0.017104,-0.016493
-0.99997,2.0006,-4.4522,7.2961,-0.09163,0.032376,-0.033598
-0.99997,1.9613,-4.0403,7.6884,-0.058032,0.062614,-0.10079
-0.99997,2.2359,-4.0796,7.8649,-0.039706,0.096822,-0.097128
-0.99997,2.0594,-4.1384,8.0807,-0.03879,0.12614,-0.055589
-0.99997,2.1575,-3.9423,7.9434,-0.066279,0.14416,-0.05681
-0.99997,2.2359,-3.8442,7.9042,-0.098655,0.14416,-0.052534
-0.99997,2.0594,-3.7658,7.61,-0.12584,0.14203,-0.047953
-0.99997,2.0006,-4.0796,7.6884,-0.13378,0.15119,-0.057727
-0.97787,2.2948,-4.1776,7.9434,-0.090103,0.16402,-0.083078
-0.87988,2.1575,-4.2561,8.218,-0.01069,0.18326,-0.021686
-0.78961,2.1575,-3.9423,8.2768,0.066584,0.19792,-0.0073304
-0.70035,2.2359,-3.6285,8.0022,0.10873,0.20067,-0.076664
-0.61392,1.824,-3.6285,7.6884,0.11668,0.18723,-0.057116
-0.52301,2.0006,-3.7069,7.6492,0.098655,0.16341,-0.0562
-0.44843,1.7456,-3.5696,7.8649,0.07422,0.13622,-0.059865
-0.36191,1.5298,-3.5108,7.9042,0.081245,0.10385,-0.051924
-0.30399,1.6867,-3.7658,7.5903,0.10996,0.077274,-0.036957
-0.24258,1.8633,-3.8638,7.7865,0.087354,0.020159,0.047647
-0.18341,1.4514,-3.7658,8.1787,0.072082,0.031154,0.030543
-0.13058,1.6867,-3.7658,8.6887,0.043066,0.030849,0.042455
-0.089294,1.4514,-3.6285,8.8064,0.011301,0.025962,0.041539
-0.06488,1.5887,-3.6873,8.6887,0.00061087,0.022602,0.021991
-0.05838,1.6867,-3.3931,8.4926,0.0562,0.029322,0.020769
-0.071564,1.824,-3.1577,8.8456,0.15302,0.040928,0.046731
-0.094727,1.7456,-3.4519,8.7083,0.24282,0.054062,0.061392
-0.11853,1.8633,-3.7069,8.5318,-0.05681,-0.2361,0.015577
-0.14319,1.9221,-3.6285,8.218,-0.085521,-0.18754,0.01069
-0.18106,2.0006,-3.3735,8.2768,-0.17501,-0.13806,0.14783
-0.25586,2.0006,-3.5108,8.1787,-0.24954,-0.11362,0.14019
-0.33301,2.1575,-3.8834,7.7865,-0.26634,-0.12004,0.13714
-0.40225,1.8633,-3.6873,7.5903,-0.23518,-0.13592,0.1127
-0.47437,1.9613,-3.4127,8.0218,-0.19273,-0.1295,0.065363
-0.54037,1.6867,-3.6285,8.2572,-0.10446,-0.10385,0.032376
-0.58987,2.1575,-3.7265,8.2768,-0.012523,-0.072082,-0.032987
-0.61682,1.7064,-3.6285,8.3945,0.0048869,-0.039401,-0.041539
-0.63535,1.7652,-3.7658,7.963,-0.012828,-0.0094684,0.015272
-0.64212,1.8437,-4.1384,7.6884,-0.031154,0.0097738,0.017104
-0.65161,2.0006,-3.9815,7.9434,-0.036957,0.0079412,0.014661
-0.64966,1.824,-3.7069,8.316,-0.035736,-0.0048869,0.0009163
-0.64969,1.7064,-3.1381,8.7083,-0.16432,-0.007025,-0.019242
-0.66092,1.6083,-3.0793,8.8064,-0.080329,-0.0009163,-0.032376
-0.64319,1.7456,-3.3146,8.4729,0.020769,-0.0030543,-0.14019
-0.63989,1.9613,-3.9423,8.0022,-0.057116,-0.009163,-0.15638
-0.62097,2.0006,-4.158,7.61,-0.082161,-0.0024435,-0.073609
-0.59201,2.0202,-4.3934,7.5511,-0.083689,0.016799,-0.091935
-0.55795,1.7456,-4.0403,7.9434,-0.069028,0.037568,-0.089186
-0.51132,1.6867,-4.158,8.1787,-0.053145,0.046426,-0.10446
-0.48639,1.9809,-4.3345,7.5903,-0.03146,0.048258,-0.12584
-0.44666,2.2948,-4.3345,7.3746,-0.002138,0.048258,-0.13225
-0.41818,2.3732,-4.0992,7.61,0.048258,-0.14294,0.17929
-0.41443,2.2751,-4.0796,7.9434,-0.027489,-0.19059,0.15944
-0.40247,2.1575,-4.0796,7.8649,-0.10415,-0.23976,0.19456
-0.39185,2.2359,-4.0011,7.7865,-0.16952,-0.27764,0.197
-0.40643,2.1575,-4.0796,7.6492,-0.21502,-0.30177,0.1912
-0.41089,2.2751,-4.1776,7.7865,-0.23946,-0.30177,0.18998
-0.40851,2.1182,-4.0796,7.8061,-0.26145,-0.28955,0.18601
-0.41272,2.3732,-4.0796,7.8649,-0.25992,-0.27275,0.18662
-0.40555,2.3732,-3.9227,7.7865,-0.0094684,0.009163,-0.026573
-0.39844,2.0594,-4.0207,7.9434,-0.0036652,0.023824,-0.022602
-0.37766,2.0202,-3.4519,7.7473,-0.012828,0.025962,0.0009163
-0.3634,2.0986,-3.6677,7.6492,-0.029932,0.021075,-0.00030543
-0.35922,2.2948,-3.9227,7.6884,-0.041844,0.017715,-0.0024435
-0.37231,2.1378,-3.8638,7.8649,-0.039401,0.014661,-0.0036652
-0.38223,2.0202,-3.7265,8.1787,-0.026267,0.017104,-0.011301
-0.40997,1.824,-3.6873,8.4141,-0.0067195,0.025962,-0.021075
-0.44183,1.5887,-3.55,8.4337,0.015577,0.032681,-0.010079
-0.45844,1.824,-3.7658,8.2572,0.018021,0.032987,-0.007025
-0.48404,1.824,-4.0011,8.218,0.0009163,0.033598,-0.017104
-0.50293,2.0006,-3.7658,8.1787,-0.023213,0.029932,-0.015577
-0.50812,2.0006,-3.6873,8.1787,-0.041539,0.021075,-0.014355
-0.53091,1.9613,-3.7069,8.0022,-0.043066,0.011912,-0.01069
-0.52057,2.0006,-3.7658,7.9434,-0.024129,0.0085521,-0.010385
-0.52075,2.1182,-3.6873,8.0807,0.0088575,0.014661,-0.011606
-0.51959,1.9613,-3.6285,8.1003,-0.0042761,0.040012,0.0058032
-0.51181,2.0594,-3.7069,8.1199,0.0048869,0.043982,0.011301
-0.50711,1.9221,-3.7658,8.0611,0.021991,0.0562,-0.010079
-0.5,2.1575,-3.7069,8.1199,0.039401,0.067501,-0.013134
-0.49106,2.0202,-3.7069,8.1199,0.051618,0.076664,-0.013134
-0.48273,2.1182,-3.8442,8.0807,0.048869,0.078191,-0.0073304
-0.46127,2.0594,-3.8638,7.9434,0.029932,0.07086,-0.00061087
-0.44839,2.1575,-3.6285,8.1787,0.0067195,0.058643,0.0015272
-0.44714,2.1378,-3.6873,8.0807,-0.034208,0.048564,-0.0018326
-0.43961,2.1182,-3.8638,8.0022,-0.04948,0.038179,-0.0027489
-0.43579,2.0006,-3.8638,8.0611,-0.05284,0.024435,0.011606
-0.42468,2.0202,-3.6873,8.0807,-0.053451,0.014661,0.0085521
-0.40869,2.0594,-3.6285,8.218,-0.0562,0.012828,0.0051924
-0.3959,2.0594,-3.7265,8.0807,-0.058032,0.0082467,0.0058032
-0.3804,2.1378,-3.8246,8.0022,-0.04948,0.00030543,0.0082467
-0.38535,2.0594,-3.6873,8.0611,-0.029627,-0.00061087,0.0061087
-0.37167,1.824,-3.6285,8.316,2.0064,0.91691,-0.29108
-0.35126,1.7064,-3.5696,8.3357,2.2391,1.0263,-0.42699
-0.32867,1.7064,-3.6285,8.6887,2.8482,0.97647,0.44196
-0.31299,1.8044,-3.55,8.7279,3.5253,0.9166,0.2813
-0.28534,1.7064,-3.5304,8.7083,4.0842,1.0046,0.025656
-0.2598,1.7064,-3.1381,9.0417,4.5934,1.2761,-0.14416
-0.22711,1.6671,-3.1381,9.2771,2.2394,1.587,-0.23549
-0.19836,1.6867,-3.197,9.179,2.1661,1.8072,-0.27703
-0.13904,1.7456,-3.6873,8.8652,-1.835,-0.84116,0.062919
-0.07373,2.1575,-4.4522,8.4729,-1.8268,-0.83719,0.069028
0.0020752,2.5497,-4.7072,8.0807,-1.8543,-0.83414,0.10171
0.078735,2.4517,-5.021,7.7865,-1.9227,-0.84819,0.10934
0.15744,2.5497,-5.021,7.3746,-2.0226,-0.87232,0.11851
0.22672,2.6478,-4.6287,6.9235,-2.146,-0.89186,0.10507
0.27103,2.4517,-4.6287,6.2959,-2.2953,-0.89767,0.079718
0.289,2.7851,-4.9426,5.7271,-2.4694,-0.89339,0.064446
0.29678,2.7851,-5.4329,5.1387,-2.6371,-0.88789,0.027184
0.28937,3.1185,-6.2174,4.2561,-2.4957,-0.86682,0.097433
0.26941,3.1774,-6.6685,3.4716,-2.2868,-0.82406,0.059254
0.24225,3.0597,-6.8647,3.0793,-2.0168,-0.75472,0.026573
0.20322,3.2362,-6.5116,2.9224,-1.6677,-0.67348,0.00030543
0.16263,2.8635,-6.1978,2.7459,-1.3439,-0.59712,-0.0036652
0.10147,2.687,-6.6685,1.8044,-2.6179,-0.51435,0.0042761
0.046204,2.7851,-8.2768,0.25497,-2.6811,-0.39706,0.0097738
-0.012146,3.2558,-7.963,0.70608,-1.0272,-0.30268,0.41417
-0.045715,2.7851,-6.9627,2.432,-0.70372,-0.24893,0.46823
-0.048096,1.3533,-7.2765,4.3149,-0.090408,-0.20678,0.17593
-0.053009,2.3732,-9.2183,3.6088,0.73273,-0.18204,0.21686
-0.038208,3.55,-8.6887,4.2365,1.4603,-0.12034,0.22785
-0.017548,2.334,-7.61,4.1972,1.9667,0.090103,0.21289
0.013611,1.9809,-6.139,4.413,-1.1762,0.40164,0.20495
0.043976,1.824,-3.3931,7.1589,-1.1249,0.68875,0.29077
0.045258,1.5887,0.098066,10.591,0.54795,-0.40623,-0.37965
-0.0072632,1.824,2.1771,11.376,0.43127,-0.28955,-0.32498
-0.065125,2.7655,1.8829,10.827,-0.10385,-0.31582,-0.11576
-0.095581,2.9224,0.45111,11.944,-0.71196,-0.43219,-0.15547
-0.08963,2.1771,-0.94144,12.337,-1.0803,-0.4945,-0.20586
-0.0979,3.0008,-0.70608,7.61,-1.0953,-0.4441,-0.23457
-0.19864,2.2359,0.76492,8.5514,-0.75136,-0.29138,-0.30116
-0.40286,-6.9823,1.9613,15.455,-0.13622,-0.01405,-0.36805
-0.62161,-6.7666,-5.2368,9.7478,0.61117,0.35155,0.17959
-0.72958,2.6478,-6.9627,8.4926,1.3063,0.70708,0.14936
-0.69788,0.74531,-5.9624,7.5511,1.7886,0.97738,-0.2193
-0.59949,0.23536,-1.471,7.5903,2.003,1.1228,-0.072693
-0.48892,1.5298,1.0787,7.4923,2.0009,1.1527,0.087659
-0.38519,2.2163,-0.90221,6.1978,1.8689,1.1371,0.19151
-0.27063,3.1185,-3.2166,5.3544,1.6503,1.1304,0.2193
-0.1055,3.4127,-3.5304,6.1978,1.3964,1.1313,0.20586
0.090576,2.0594,-2.1967,8.1591,0.94776,1.113,0.16249
0.24026,1.1376,-1.0003,9.0417,0.75075,1.0663,0.16493
0.30673,1.216,-0.56879,8.8652,0.64324,0.99296,0.12675
0.30389,0.80415,-0.72569,8.6495,0.61422,0.92821,0.10751
0.21323,0.11768,-1.216,9.1986,0.60262,0.87476,0.081856
0.093872,-0.05884,-1.6867,9.787,0.5226,0.81612,0.081856
-0.042572,-0.50995,-1.8829,10.611,0.31704,0.73762,0.11332
-0.1637,-0.27459,-1.7456,11.101,-0.018937,0.62766,0.14447
-0.26065,0.039227,-0.8826,10.101,-0.41264,0.52748,-0.12004
-0.30881,-0.70608,0,9.2575,-0.75595,0.43921,-0.0064141
-0.31607,-1.5887,-1.2553,8.8652,-1.0626,0.35186,0.16127
-0.30112,0.098066,-4.0207,9.8066,-1.3005,0.26359,0.18173
-0.23404,0.5884,-3.2362,9.9439,-1.2785,0.08827,0.24648
-0.17661,-0.05884,-1.9613,10.199,-1.1139,-0.13164,0.28711
-0.155,-0.21575,-1.4318,9.5713,-0.88178,-0.1967,0.25351
-0.16074,0.41188,-1.9417,8.9633,-0.63897,-0.15027,0.044593
-0.19235,0.19613,-2.6086,8.4141,0.20647,-0.46853,0.022297
-0.1951,0.49033,-3.4519,7.7865,0.37813,-0.36835,0.036346
-0.18829,0.60801,-3.3931,7.6884,0.51313,-0.22419,-0.041233
-0.17249,0.60801,-3.0008,7.61,0.53359,-0.099266,-0.033292
-0.1691,0.56879,-2.7655,7.3158,0.43158,-0.027794,-0.015577
-0.18805,0.66685,-2.7459,7.2373,0.23335,-0.009163,-0.015882
-0.21371,0.2942,-2.2751,8.4141,-0.0097738,-0.017104,-0.013439
-0.23584,-0.13729,-2.0986,9.8263,-0.22235,-0.04948,-0.0015272
-0.2634,-0.23536,-1.9809,10.297,-0.33048,-0.076664,0.14722
-0.27872,-0.21575,-1.216,10.14,-0.1857,-0.076053,0.10904
-0.29227,-0.50995,-0.84337,10.827,-0.037263,-0.043982,0.045815
-0.29886,-0.86299,-1.6475,10.513,0.055283,0.0281,0.057421
-0.3208,0.098066,-2.8243,9.6497,0.058338,0.11301,0.072998
-0.35852,0.33343,-3.2362,8.8652,-0.03543,0.16768,0.10537
-0.40732,0.82376,-3.3146,7.8649,-0.35949,0.17868,0.14386
-0.43665,1.0395,-2.2751,7.8453,-0.39859,0.15394,0.16188
-0.48059,0.66685,-1.0199,8.0807,-0.45357,0.10018,-0.027794
-0.50818,0.56879,-0.43149,8.1787,-0.44135,0.026267,-0.0085521
-0.52231,0.74531,-1.118,8.1003,-0.31337,-0.055283,0.06689
-0.50647,0.74531,-2.2751,8.0022,-0.15821,-0.1127,0.036346
-0.45386,0.66685,-2.9028,8.4926,-0.037263,-0.1295,0.010385
-0.39728,0.35304,-3.0008,9.179,0.057727,-0.1179,-0.0036652
-0.33459,-0.17652,-2.6086,9.5713,-0.19426,-0.099571,0.00030543
-0.29657,0.078453,-2.432,9.3752,-0.35491,-0.071166,-0.014355
-0.26559,0.25497,-2.8243,8.9633,-0.0030543,-0.045509,-0.07422
-0.23764,0.39227,-3.1381,8.9633,-0.10018,-0.034819,-0.067501
-0.19656,0.49033,-2.8243,9.3359,-0.18112,-0.039706,0.011606
-0.14822,0.66685,-2.0594,8.9437,-0.22327,-0.043371,0.0082467
-0.097809,0.66685,-1.6671,8.7475,-0.22724,-0.035736,-0.0076358
-0.050934,0.56879,-1.8044,8.5318,-0.1857,-0.021686,-0.03543
-0.0010681,0.66685,-2.2555,8.4926,0.098655,0.0012217,-0.065363
0.031372,0.23536,-2.4124,8.8064,0.072082,0.02138,-0.076358
0.074707,0.35304,-2.0006,9.0221,0.47037,0.072082,-0.092852
0.13138,0.039227,-1.9417,9.1202,0.51007,0.096822,-0.084299
0.15863,0.17652,-1.8437,8.9044,0.53145,0.10232,-0.063225
0.18433,-0.078453,-2.2163,8.9437,0.52931,0.099571,-0.078191
0.20551,0.39227,-2.7655,8.8064,0.50427,0.097128,-0.097738
0.21637,0.49033,-2.7262,8.6887,0.45754,0.094684,-0.11942
0.21555,0.35304,-2.5693,8.7475,0.38851,0.082772,-0.12431
0.20157,0.41188,-2.2751,8.7279,0.28711,0.060781,-0.10599
0.16718,0.54917,-2.2948,8.8652,0.17807,0.038485,-0.0015272
0.14362,0.50995,-2.6086,8.9437,0.077274,0.012828,0.0039706
0.11707,0.43149,-2.7655,8.8848,0.011606,-0.019548,-0.072388
0.083862,0.41188,-2.687,8.8652,0.0012217,-0.043677,-0.056505
0.053406,0.54917,-2.4713,8.8064,0.030543,-0.036346,-0.041233
-0.00064087,0.56879,-2.432,8.8064,0.062003,-0.0097738,-0.038485
-0.052155,0.54917,-2.3536,8.8652,0.082161,0.015882,-0.0281
-0.11612,0.56879,-2.687,8.7279,0.085521,0.031154,-0.0088575
-0.17825,0.74531,-2.9812,8.7083,0.069028,0.03879,0.029932
-0.23315,0.60801,-2.8243,8.7083,0.028711,0.039401,0.036957
-0.29593,0.33343,-2.432,8.8848,-0.016799,0.030543,0.017104
-0.33313,0.49033,-2.1575,8.9437,-0.030238,0.017715,0.032376
-0.36682,0.35304,-1.726,9.179,-0.010996,0.010385,0.033292
-0.36142,0.33343,-1.4906,9.1202,0.029322,0.0076358,0.030238
-0.3909,0.098066,-1.3533,9.179,0.059559,0.0082467,0.033903
-0.39694,0.25497,-1.824,8.7083,0.063835,0.009163,0.031154
-0.39154,0.49033,-1.7848,8.8652,0.064446,-0.0064141,-0.038179
-0.40134,0.17652,-1.7456,8.9437,0.054672,-0.013134,-0.049175
-0.39066,0.43149,-1.6867,9.0221,0.052534,-0.013439,0.014661
-0.38153,0.27459,-1.6867,9.1986,0.062919,-0.0067195,0.00030543
-0.35428,0.41188,-1.9809,9.0417,0.10049,-0.011301,-0.0076358
-0.34103,0.27459,-2.0006,9.1202,0.16952,-0.01069,0.0027489
-0.3215,0.35304,-2.0006,8.9437,0.25473,0.015577,0.00061087
-0.30289,0.35304,-1.8829,9.1202,0.34392,0.043371,-0.023213
-0.29803,0.5884,-1.8044,9.0417,0.029627,0.018326,0.010996
-0.26199,0.41188,-1.8829,9.0221,-0.025351,0.012523,0.031154
-0.22067,0.56879,-1.8829,9.0417,-0.0562,0.0051924,-0.043677
-0.18854,0.5884,-2.0006,9.0025,-0.04215,-0.018021,-0.028711
-0.1665,0.56879,-2.0398,8.9044,0.0058032,-0.038485,-0.018326
-0.14481,0.72569,-2.0594,8.8064,0.040623,-0.039706,-0.021991
-0.12659,0.49033,-2.4124,8.6299,0.10018,-0.022297,-0.025351
-0.11063,0.45111,-2.3144,8.7083,0.07422,0.002138,-0.012523
-0.09967,0.49033,-1.9417,9.179,-0.057421,0.018021,0.043677
-0.10147,0.64724,-2.1967,9.0417,-0.083383,0.016493,0.040012
-0.097656,0.60801,-2.0006,8.8848,-0.093157,0.0012217,0.039706
-0.11533,0.41188,-2.0594,8.8652,-0.10232,-0.007025,0.036957
-0.12399,0.56879,-2.1967,8.9633,-0.09163,-0.0015272,0.03207
-0.14105,0.33343,-1.9809,9.0417,-0.071471,0.0064141,0.031154
-0.1622,0.41188,-1.824,8.9437,0.027794,0.024435,0.03543
-0.17786,0.27459,-1.824,9.0417,-0.012217,0.034819,0.038179
-0.20834,0.45111,-1.824,9.0221,-0.037263,-0.0073304,-0.054672
-0.22049,0.43149,-1.9613,9.0613,0.0067195,0.0012217,-0.050091
-0.22003,0.33343,-2.1378,9.2575,0.046731,0.01069,-0.01069
-0.2356,0.41188,-1.9025,9.2575,0.063225,0.018631,-0.025351
-0.23856,0.45111,-2.0006,9.1594,0.062614,0.033292,-0.040317
-0.24054,0.27459,-1.6279,9.0417,0.043982,0.047037,-0.054978
-0.25436,0.41188,-1.6475,9.1594,0.020159,0.052534,-0.052534
-0.26236,0.49033,-1.6867,9.0025,-0.00030543,0.05284,-0.049175
-0.27872,0.25497,-1.4906,9.0417,0.016493,0.049175,-0.033598
-0.29459,0.27459,-1.5102,8.9437,0.039095,0.049786,-0.043677
-0.28708,0.35304,-1.7456,9.1202,0.07422,0.045204,-0.039095
-0.29294,0.45111,-1.8437,8.9437,0.10415,0.041539,-0.039095
-0.28082,0.45111,-1.8044,8.8064,0.12309,0.041844,-0.055283
-0.28113,0.27459,-1.9809,8.8456,0.11912,0.043066,-0.063835
-0.26968,0.56879,-2.1378,8.7868,-0.0064141,0.040012,-0.054367
-0.2623,0.43149,-1.9809,8.6887,0.0051924,0.028711,-0.039706
-0.24716,0.56879,-1.9025,8.9437,-0.04215,-0.010079,-0.096211
-0.23096,0.49033,-2.2751,9.179,0.01069,-0.014966,-0.090713
-0.22516,0.66685,-2.1575,9.0613,0.06689,-0.0042761,-0.13256
-0.23657,0.56879,-1.9613,9.1202,0.088575,0.018326,-0.12859
-0.24103,0.41188,-1.7456,9.5125,0.0562,0.043677,-0.12798
-0.24765,0.17652,-1.7456,9.5321,-0.0012217,0.049786,-0.11942
-0.23517,0.13729,-1.9809,9.1594,-0.049786,0.036346,-0.10263
-0.20712,0.39227,-2.1967,8.9437,-0.079107,0.019548,-0.099571
-0.16351,0.43149,-2.1182,9.1202,-0.10873,0.010385,-0.023824
-0.10516,0.27459,-2.4713,8.8064,-0.084605,0.010079,-0.031765
-0.05127,0.11768,-2.1182,8.8848,-0.085521,0.01069,-0.082161
0.010376,-0.039227,-1.1768,9.3359,-0.094073,0.013134,-0.07758
0.065552,0.25497,-0.80415,9.787,-0.11026,0.0079412,-0.071471
0.092285,0.35304,-1.3141,9.434,-0.12065,-0.0018326,-0.048564
0.11414,0.66685,-1.7456,9.0417,-0.11759,-0.0015272,-0.035125
0.12271,0.56879,-1.8829,8.8456,-0.11545,-0.0039706,-0.029016
0.10303,0.80415,-1.8437,8.7279,-0.21289,-0.13347,0.0281
0.076141,0.74531,-1.7848,8.7083,-0.16768,-0.10599,0.0018326
0.035034,0.50995,-2.0006,8.4337,-0.12675,-0.078496,0.01405
-0.017914,0.66685,-2.2555,8.4337,-0.094073,-0.044593,0.026267
-0.058319,0.35304,-2.1378,9.0221,-0.075747,-0.0061087,0.028711
-0.10001,0.54917,-2.1967,9.0417,-0.065668,0.025351,0.023518
-0.14297,0.54917,-1.9809,9.0613,-0.039401,0.043677,0.025351
-0.16144,0.56879,-2.2751,9.1202,-0.0033598,0.057116,0.032376
-0.16794,0.76492,-2.3732,8.9044,0.053451,0.072082,-0.077885
-0.17722,0.70608,-1.9809,9.0221,0.091019,0.092241,-0.10873
-0.17404,0.45111,-1.5102,9.0221,0.11851,0.1011,-0.011912
-0.17065,0.098066,-1.4318,9.0417,0.1405,0.1011,-0.0039706
-0.1553,0.2942,-1.5298,9.0417,0.14386,0.099876,-0.022602
-0.12781,0.27459,-1.6475,8.7475,0.079107,0.099571,-0.051313
-0.091675,0.039227,-1.5691,9.0221,-0.011606,0.075136,-0.062308
-0.046021,0.098066,-1.7456,9.0221,-0.053756,0.023518,-0.064446
-0.010376,0.27459,-1.824,8.8456,-0.15088,-0.055894,0.026267
0.050446,0.41188,-1.824,9.0613,-0.26267,-0.079718,0.062003
0.12234,0.27459,-1.9809,9.1202,-0.29658,-0.12523,-0.12889
0.15973,0.43149,-1.9613,9.1202,-0.26237,-0.15516,-0.099571
0.19571,0.56879,-1.7848,8.9437,-0.21044,-0.14325,-0.082161
0.20712,0.45111,-1.824,8.6299,-0.1741,-0.089492,-0.062614
0.21509,0.72569,-1.824,8.7279,0.11148,-0.01069,-0.038485
0.21158,0.66685,-1.824,9.1006,-0.0009163,0.057421,-0.010385
0.20462,0.56879,-1.9613,9.0221,-0.12798,0.020464,0.0058032
0.17871,0.80415,-1.824,8.6887,-0.21319,-0.025045,-0.0094684
0.16919,0.56879,-1.8829,8.6299,-0.20464,-0.043982,0.023213
0.14896,0.41188,-2.3144,9.0417,-0.065363,-0.0085521,0.0064141
0.13574,0.27459,-2.1967,9.9047,0.15485,0.032681,0.0009163
0.12424,-0.13729,-1.824,9.6497,0.3656,0.045509,-0.021686
0.098358,0.17652,-1.6475,8.2572,0.43921,-0.010385,-0.058032
0.083252,0.35304,-2.2751,8.1787,0.30665,-0.14844,-0.034208
0.073578,-0.13729,-2.4124,10.63,-0.32406,-0.32987,-0.16921
0.072998,-0.52956,-2.0006,12.631,-0.49175,-0.5116,-0.16005
0.065704,-0.23536,-2.2948,11.572,-0.67073,-0.624,-0.037263
0.046478,1.1964,-2.0986,9.4732,-0.75503,-0.62492,-0.087354
-0.010681,1.8044,-2.4124,7.1589,-0.60812,-0.56322,-0.15211
-0.117,0.41188,-2.3732,6.5312,-0.23488,-0.46365,-0.19273
-0.25308,-0.23536,-2.1575,7.3746,0.085521,-0.32834,-0.23488
-0.37466,0.49033,-2.0986,8.4141,-0.12859,-0.24465,-0.23946
-0.46591,1.118,-2.7459,8.5514,0.56536,-0.15821,-0.219
-0.51227,0.82376,-2.432,8.6887,0.44013,-0.087965,-0.17593
-0.53458,0.60801,-1.2553,8.7475,0.2642,-0.084299,-0.19028
-0.53442,0.74531,-0.68647,9.0417,0.14111,-0.096822,-0.1799
-0.51889,1.118,-1.0591,8.6299,0.11118,-0.096822,-0.1912
-0.50052,1.0395,-1.3337,8.4337,0.13347,-0.078802,-0.22724
-0.45096,1.0591,-1.0395,8.0807,0.21014,-0.061087,-0.23885
-0.41043,1.0199,-1.118,8.5318,0.51007,-0.055894,-0.23854
-0.36334,1.118,-2.0986,8.5514,0.12431,-0.041844,-0.17104
-0.29858,0.72569,-2.687,9.0417,0.075442,-0.068111,-0.1408
-0.23724,0.56879,-1.8044,9.3359,0.017715,-0.10018,-0.018326
-0.18198,0.23536,-1.6475,9.6497,-0.10996,-0.13806,-0.047037
-0.13458,0.82376,-2.432,9.434,-0.23824,-0.17532,-0.11332
-0.094635,0.98067,-2.7459,9.1986,-0.23671,-0.16402,-0.14997
-0.060577,1.118,-2.4517,9.0417,-0.14813,-0.076664,-0.16218
-0.040619,0.76492,-1.9613,9.0417,-0.093462,0.012217,-0.17349
-0.016998,0.80415,-1.7848,9.8851,-0.085521,0.067195,0.08094
0.0039673,0.64724,-2.2163,10.925,-0.091019,0.097128,0.043982
0.020294,1.6867,-1.9809,9.7478,-0.065668,0.13653,-0.11698
0.02594,1.5298,-1.3337,9.2575,-0.033903,0.14203,-0.070555
0.031281,1.118,-1.2749,8.8652,-0.0042761,0.11606,0.036652
-0.0089722,0.80415,-1.824,9.434,0.22846,0.16677,0.15088
-0.069824,1.0395,-1.5691,9.1594,0.41539,0.22907,0.24954
-0.12897,1.0395,-1.824,8.0807,0.34728,0.17135,0.22571
-0.18359,1.2356,-1.9025,7.9042,-0.36682,-0.054672,-0.26481
-0.23392,1.4906,-2.1575,8.6299,-0.87568,-0.3769,-0.25626
-0.26401,0.74531,-1.9809,9.3359,-1.1945,-0.60781,0.0018326
-0.28992,0.078453,-2.9028,6.1978,-1.3628,-0.70127,-0.062003
-0.29694,-1.471,-2.3732,11.67,-1.3488,-0.73884,-0.068722
-0.28375,-1.2749,-1.0983,13.278,-1.0864,-0.73273,-0.097433
-0.26422,0.27459,-0.37265,8.5514,-0.61361,-0.62553,-0.16066
-0.23904,-0.43149,-1.5691,6.4528,-0.040623,-0.43433,-0.23152
-0.2103,0.8826,-3.2362,5.6682,0.41233,-0.20403,0.032376
-0.15363,1.4318,-3.3146,7.3746,0.58338,-0.025962,0.085521
-0.079468,1.1964,-2.4713,10.258,0.44196,0.04612,-0.18723
0.017273,1.1964,-1.7456,10.748,0.14752,0.0067195,-0.080634
0.10519,1.6671,-1.1768,9.179,-0.15058,-0.08491,-0.0042761
0.18237,1.7652,-0.90221,7.7669,-0.34208,-0.16799,0.007025
0.22141,1.2945,-1.216,7.5511,-0.36591,-0.19884,-0.0045815
0.24445,1.0787,-1.6867,7.9434,-0.25015,-0.15669,0
0.25064,1.5102,-1.9025,7.8649,-0.036346,0.064446,-0.025656
0.27188,1.1964,-2.7851,8.3357,0.060781,0.13714,-0.024129
0.29416,1.3533,-3.8442,9.3163,0.37843,0.18357,0.06353
0.30511,1.216,-3.5304,9.8066,0.77397,0.19792,-0.10996
0.31418,1.2945,-2.7262,9.6497,0.96089,0.1857,-0.13073
0.31082,1.2749,-1.9809,9.0221,0.80604,0.11881,-0.09499
0.30338,1.1964,-1.9613,8.6887,0.36255,-0.030849,-0.084605
0.28476,1.2749,-1.9613,9.0613,-0.17685,-0.22022,-0.054367
0.29071,1.4906,-2.3732,9.0613,-0.93371,-0.34147,0.12614
0.28784,1.3533,-2.432,9.2575,-0.79015,-0.34819,0.18998
0.2908,0.8826,-2.2555,9.2771,-0.42852,-0.28863,-0.049786
0.29941,0.2942,-2.2555,9.1202,0.024435,-0.1744,-0.046731
0.30801,0.13729,-1.8044,9.6497,0.34025,-0.010079,-0.029932
0.30252,0.098066,-1.8829,10.297,0.47983,0.16005,-0.0048869
0.29163,1.2945,-1.0199,8.4926,-0.60598,0.34331,0.029627
0.25543,1.3533,-1.3337,6.8254,-0.85765,0.43463,0.056505
0.20383,0.35304,-2.9028,8.2768,1.2291,0.44074,0.045509
0.15308,0.49033,-2.589,11.14,1.0012,0.56108,0.076053
0.1123,1.216,-0.5884,12.003,0.40164,0.63713,0.23091
0.032745,1.216,0.2942,10.905,-0.17562,0.43555,0.24404
-0.0383,1.6867,-0.86299,7.7865,-0.42944,-0.011301,0.18051
-0.09903,1.8044,-2.3536,6.0801,-0.55528,-0.43463,0.12004
-0.13528,1.5495,-3.3146,6.6881,0.64171,-0.60018,0.031765
-0.13092,1.6083,-2.9224,7.8649,1.0101,-0.59743,0.017715
-0.15384,0.54917,-3.5696,6.3743,0.17318,0.064446,0.04612
-0.16705,-1.4514,-1.824,10.768,0.14294,0.014661,0.11759
-0.18295,-1.9613,-0.27459,15.71,0.15638,-0.013439,0.020769
-0.1597,0.74531,-0.23536,10.591,0.17379,-0.056505,0.034514
-0.11304,0.90221,0.94144,7.6884,0.15852,-0.12126,0.050396
-0.060425,0.74531,0.31381,4.9426,0.14386,-0.15485,0.03543
-0.00082397,0.54917,-2.0398,6.1193,0.094684,-0.1179,0.0048869
0.0784,1.2356,-3.3931,9.0417,-0.015882,-0.015272,-0.00061087
0.1781,1.1964,-2.687,9.8066,0.034514,0.085216,0.0027489
0.29987,0.49033,-1.1964,9.179,-0.078496,0.059254,0.047342
0.39792,0.49033,-1.471,8.1787,-0.17776,0.040317,0.0024435
0.4769,0.27459,-2.687,8.5514,-0.18692,0.014355,0.022297
0.53687,0.11768,-2.7459,9.179,-0.092852,0.019242,0.013744
0.57373,0.39227,-2.5105,10.748,0.047342,0.065668,0.00061087
0.59177,0.56879,-2.589,10.434,0.1909,0.087354,-0.0061087
0.60123,0.72569,-2.1378,10.199,0.29627,0.071471,-0.010996
0.60455,0.80415,-1.3533,9.6694,0.32987,0.039401,0.14478
0.58505,0.74531,-1.3533,9.0417,0.27489,-0.01069,0.098044
0.57623,1.0787,-2.2948,8.316,0.13286,-0.08094,0.12034
0.57178,0.90221,-2.3536,8.6887,-0.063835,-0.16677,0.18876
0.55197,0.74531,-2.3732,9.179,-0.26695,-0.25229,0.22633
0.56226,1.0591,-2.4124,9.179,-0.41111,-0.31429,0.22938
0.57797,1.5298,-2.1967,8.2572,-0.45265,-0.32895,0.21044
0.58374,1.6475,-2.3144,7.8649,-0.41203,-0.28008,0.18021
0.59824,1.118,-1.8829,8.7475,-0.28069,-0.18143,-0.014966
0.59818,0.72569,-1.7456,9.6301,-0.046426,-0.053756,-0.087965
0.58664,0.86299,-1.471,9.3752,0.20708,0.097433,0.03879
0.59241,0.70608,-1.4906,8.7083,0.36713,0.23182,0.0076358
0.58609,0.80415,-1.9809,8.4926,0.40775,0.30268,0.012217
0.58014,0.74531,-2.432,8.7083,0.39004,0.3036,0.017715
0.58929,1.118,-2.0986,9.5125,0.36224,0.26206,0.043066
0.61456,0.76492,-1.0983,10.415,0.41905,0.17807,0.058948
0.64346,0.49033,-0.68647,10.297,0.11423,0.054367,-0.028711
0.67023,0.50995,-1.2553,9.5125,0.054672,0.10782,-0.021991
0.703,0.49033,-2.1378,8.5514,0.044288,0.14264,-0.12431
0.7262,0.80415,-3.0008,7.3158,0.13836,0.17929,-0.13806
0.74677,1.0199,-3.0793,7.4531,0.28161,0.21869,-0.13806
0.77042,0.66685,-2.5105,9.434,0.36224,0.22724,-0.11545
0.77484,0.078453,-1.5691,8.7279,0.33628,0.19395,-0.073609
0.76349,0.098066,-2.0594,8.9437,0.23121,0.13653,-0.041844
0.7388,-0.27459,-1.8829,11.062,0.010385,0.018021,-0.055894
0.69821,0.56879,-0.86299,10.827,-0.0058032,0.029322,-0.068722
0.62915,1.1964,-1.0199,8.7279,-0.027184,0.032376,-0.009163
0.52213,1.2945,-1.6475,7.1785,-0.041233,0.018937,-0.0045815
0.39899,1.1964,-1.824,7.4334,-0.041539,0.0076358,-0.010079
0.297,1.118,-1.5298,8.3749,-0.02138,0.01069,-0.020159
0.2149,1.1964,-1.7848,9.1594,-0.051007,0.025656,-0.028711
0.1759,0.98067,-2.2751,9.3163,-0.0073304,0.048258,-0.042761
0.14685,0.98067,-2.2555,9.434,0.11209,0.085216,-0.12828
0.16782,0.90221,-1.5102,9.2575,0.14416,0.12614,-0.15211
0.1969,0.56879,-1.471,9.2575,0.1686,0.15669,-0.079412
0.20374,0.72569,-1.6475,9.0025,0.14264,0.17104,-0.082467
0.22501,0.5884,-2.3144,9.0417,0.088881,0.18204,-0.08491
0.28549,0.72569,-2.4713,9.2575,0.050396,0.1689,-0.07422
0.34671,0.86299,-1.9809,9.1594,0.016799,0.12981,-0.056505
0.38647,0.74531,-1.5102,9.3359,0.066279,0.099876,-0.084299
0.39716,0.66685,-1.471,9.3752,-0.044288,-0.0009163,-0.02138
0.41977,0.90221,-1.8829,9.3359,0.052229,0.032681,-0.022907
0.43668,0.98067,-2.1378,9.0221,0.10201,0.051924,-0.069639
0.45444,0.90221,-1.9025,9.0417,0.10996,0.054978,-0.062308
0.45172,0.82376,-1.7456,9.0221,0.086743,0.040928,-0.048564
0.43472,0.92183,-1.5691,8.5514,0.040623,0.013134,-0.025962
0.40741,0.98067,-1.5691,8.9437,-0.027794,-0.021075,-0.019548
0.36374,0.90221,-1.6475,9.1006,-0.099571,-0.061087,-0.021991
0.31354,0.96105,-1.9025,9.0417,-0.088881,-0.088575,-0.032376
0.26611,1.6867,-2.0594,8.8652,-0.01741,-0.092852,-0.018937
0.21729,1.4906,-2.1182,8.6299,0.034208,-0.076664,-0.027794
0.17517,1.3729,-1.9809,8.8064,0.032987,-0.050396,-0.031154
0.14038,1.3337,-1.6867,9.1986,-0.020159,-0.025045,-0.026267
0.11029,1.2749,-1.8829,9.5125,-0.063225,-0.0048869,-0.022602
0.077484,1.3533,-2.2555,9.3752,-0.14478,0.0067195,-0.021686
0.057831,1.5298,-2.5105,9.1594,-0.14111,0.012523,-0.030238
0.045715,1.5298,-2.0594,8.9437,-0.49388,-0.15149,0.064141
0.046387,0.66685,-2.2555,9.3359,-0.14233,-0.040928,-0.018937
0.047943,0.60801,-2.1182,9.0025,0.40439,0.15852,-0.07422
0.046631,1.0787,-1.8044,8.0807,0.90072,0.36011,-0.20342
0.038086,0.039227,-1.5102,8.6299,1.0925,0.52229,-0.27428
0.042145,-1.4318,-2.4713,9.4928,0.94348,0.50824,-0.2529
0.085571,-1.6475,-1.7848,9.9636,0.6579,0.32681,-0.15852
0.13046,-1.6475,-0.41188,9.9636,0.33109,0.083383,-0.022297
0.16748,-0.50995,-0.27459,9.179,0.06353,0.081856,-0.24801
0.1907,0.60801,-1.3337,8.0807,0.17807,0.16646,-0.25412
0.20563,1.118,-2.2948,7.1589,0.15791,0.19028,0.029627
0.22241,1.216,-2.3732,7.7669,0.059254,0.17593,0.00061087
0.20859,1.9221,-2.0398,9.434,-0.038485,0.17043,-0.057421
0.18112,2.9616,-2.687,9.8851,-0.085521,0.19609,-0.13531
0.14407,3.4912,-3.3735,9.434,-0.057727,0.23488,-0.18784
0.10117,3.7265,-3.6677,8.7083,0.06017,0.29169,-0.22144
0.062592,2.6478,-2.9224,9.179,0.26817,0.34025,0.077885
0.012054,1.7652,-2.0594,9.7478,0.49969,0.36774,0.17226
-0.049316,1.118,-1.8829,9.0221,0.63347,0.37202,-0.2361
-0.1246,0.41188,-1.9417,7.1785,0.60934,0.34667,-0.20067
-0.24777,-0.80415,-1.3533,6.0409,0.48411,0.29963,-0.1573
-0.37997,-3.0989,-1.0003,9.0417,0.3824,0.28466,-0.12156
-0.48141,-3.0989,-1.5691,13.2,0.36224,0.35613,-0.095295
-0.55344,-0.23536,-0.94144,9.9636,0.41722,0.47037,-0.030849
-0.6196,0.078453,0.66685,7.1196,0.63469,0.55986,0.0097738
-0.65393,0.039227,-1.118,5.1191,0.7364,0.63683,-0.007025
-0.65012,0.56879,-2.7459,7.2177,0.59284,0.5565,0.20036
-0.61737,0.60801,-1.5102,12.572,0.30696,0.29016,0.1631
-0.5723,-0.078453,-0.8826,13.867,-0.022602,-0.0042761,0.081551
-0.52173,0.11768,-1.1768,12.611,-0.24496,-0.19151,0.043677
-0.47278,0.72569,-0.86299,11.199,-0.43341,-0.21044,-0.011606
-0.43692,0.76492,-0.39227,9.8066,-0.55803,-0.17715,-0.020159
-0.43732,0.8826,-0.94144,7.8061,0.011606,0.086743,-0.030849
-0.43362,1.3925,-1.1964,7.6296,0.07422,0.091019,-0.0012217
-0.4194,1.5298,-2.2751,7.6884,0.097433,0.083994,0.00030543
-0.40952,1.9221,-2.2948,7.1785,0.06353,0.05284,0.0045815
-0.36893,1.5102,-1.3337,7.5903,-0.0042761,-0.0036652,0.00061087
-0.32437,1.3533,-1.6279,8.4141,-0.065057,-0.043982,-0.0061087
-0.2684,1.6083,-2.4517,8.7279,-0.077274,-0.05681,-0.03146
-0.21506,1.6867,-2.2751,9.0613,-0.04215,-0.043677,-0.044899
-0.16296,1.4318,-1.3533,9.3555,0.24129,0.11301,0.015882
-0.12515,0.98067,-1.3533,9.2771,0.41875,0.15913,0.024435
-0.092072,1.1964,-1.8829,9.0221,0.43891,0.14142,-0.0051924
-0.069275,0.90221,-1.5102,9.1986,0.33078,0.085216,0.020159
-0.036255,0.098066,-1.7456,9.3359,0.15699,0.010996,0.037263
-0.0010071,0.41188,-3.2362,8.7279,-0.027489,-0.050702,0.054062
0.017029,1.118,-3.5304,8.7083,-0.18173,-0.065668,0.045509
0.045746,0.74531,-2.5693,9.3359,-0.25259,-0.05284,0.024129
0.069092,0.70608,-1.5691,9.689,0.009163,-0.030238,0.035736
0.091278,0.70608,-1.3533,9.3555,0.093768,0.0061087,0.025962
0.086029,0.8826,-1.824,8.4141,0.13592,0.040928,0.026573
0.082642,0.74531,-2.3536,8.2376,0.13134,0.071777,0.0088575
0.089478,0.98067,-2.432,8.7083,0.080023,0.0956,-0.0015272
0.096222,0.82376,-2.1967,9.0417,-0.012828,0.10446,0.0061087
0.10159,0.96105,-1.824,9.0417,-0.21197,0.097738,0.024435
0.093811,0.92183,-1.6475,9.0221,-0.10446,0.079412,0.035125
0.093292,0.92183,-1.8829,8.7868,-0.14905,0.044899,-0.0042761
0.085876,1.0395,-2.0006,8.8652,-0.073915,0.014355,-0.0076358
0.079376,1.118,-2.0594,9.0221,0.009163,0.013439,0.0030543
0.068573,0.8826,-2.0006,8.9633,0.054672,0.032987,-0.0079412
0.050812,0.90221,-1.9809,8.8652,0.052229,0.05681,0.0009163
0.040985,0.82376,-1.6867,9.5713,0.040928,0.075442,0.011912
0.018768,0.76492,-2.1378,9.6694,-0.11209,0.087659,0.011301
0.017029,1.0199,-2.2751,9.3163,-0.16768,0.087965,0.0042761
0.01178,0.82376,-1.9417,9.1202,0.20892,0.096517,0.014355
0.022858,0.11768,-2.0594,9.2183,0.14294,0.075136,0.029322
0.037506,0.33343,-2.2948,8.8064,0.030238,0.029016,-0.022297
0.077026,0.039227,-1.8829,9.0025,-0.056505,-0.0051924,-0.013134
0.10803,0.27459,-1.4318,9.179,-0.083383,-0.010079,-0.0097738
0.15176,0.72569,-1.3729,9.0613,-0.062308,-0.0030543,0.0030543
0.17932,1.0199,-1.824,8.6495,-0.0030543,0.018937,0.019853
0.1799,0.90221,-2.432,8.2768,0.063225,0.057116,0.016188
0.15897,1.0787,-2.4124,8.4141,0.15027,0.090103,-0.093157
0.11218,1.0395,-2.432,8.7083,0.15119,0.10721,-0.12981
0.068359,1.118,-2.2555,8.4729,0.039401,0.11179,0.040928
0.019318,0.86299,-2.2751,8.4729,-0.10446,0.092241,0.053451
-0.014465,0.8826,-2.6086,9.1202,-0.14661,0.072388,0.06017
-0.044647,0.92183,-2.3144,9.5321,-0.012828,0.015577,0.063835
-0.051971,0.96105,-1.9613,9.434,0.26603,-0.037874,0.086743
-0.080994,0.90221,-1.8044,8.8652,0.48778,-0.088575,0.020159
-0.10312,0.90221,-1.824,8.5514,0.55161,-0.13622,-0.053145
-0.11398,0.92183,-1.824,8.9044,0.44166,-0.17379,-0.08491
-0.12476,0.66685,-1.824,9.7478,0.21747,-0.22999,-0.11515
-0.12918,0.76492,-1.824,10.062,-0.044288,-0.30482,-0.083689
-0.1507,0.86299,-1.6475,8.9437,-0.29291,-0.36408,-0.069639
-0.17935,-0.33343,-2.589,9.434,-0.45693,-0.39828,-0.063835
-0.21851,0.11768,-2.687,10.689,-0.48319,-0.41936,-0.050396
-0.24387,0.56879,-1.7456,10.219,-0.35247,-0.42913,-0.040623
-0.28058,0.70608,-0.94144,8.9633,-0.14508,-0.37874,-0.025351
-0.32455,0.92183,-0.8826,8.1591,0.048564,-0.26634,-0.03879
-0.33362,0.80415,-2.0006,7.9434,0.15149,-0.12828,-0.093768
-0.32669,1.8437,-2.7655,7.7865,0.13561,-0.014355,-0.063835
-0.28702,1.6083,-2.2751,8.0807,0.033292,0.049786,-0.0027489
-0.22403,1.4318,-1.5691,8.4141,-0.10782,0.059254,0.025045
-0.15634,1.4514,-1.6475,8.5318,-0.2251,0.042761,0.013439
-0.087402,1.3925,-2.1378,8.4926,-0.27306,0.02138,-0.0039706
-0.0242,1.4318,-2.2948,8.7475,0.23702,-0.19487,-0.21228
0.065247,1.1768,-2.2751,8.9044,0.22297,-0.15699,-0.21991
0.12723,1.3533,-1.8829,8.9437,0.16463,-0.12492,-0.038179
0.17392,1.0591,-1.7848,9.1202,0.082161,-0.10049,-0.047342
0.19437,1.2945,-1.8829,9.179,-0.007025,-0.088881,-0.078191
0.18137,1.2749,-2.1967,9.2575,-0.032987,-0.067806,-0.12767
0.15225,1.118,-2.0594,9.2771,0.027489,-0.023213,-0.16738
0.11517,1.2945,-1.9809,9.2575,0.15424,0.036957,-0.19273
0.075439,1.4318,-2.2163,9.179,0.54306,0.10232,-0.12645
0.028046,1.3337,-2.2948,9.2575,0.51007,0.17868,-0.094379
-0.0011292,0.76492,-2.7851,9.2575,0.39065,0.2303,-0.2138
-0.030762,0.80415,-2.3732,9.3752,0.26909,0.23457,-0.18876
-0.062622,0.54917,-1.5298,9.6497,0.18784,0.20556,-0.16341
-0.096252,0.49033,-1.4318,9.3359,0.1405,0.17929,-0.1628
-0.13101,0.80415,-1.824,9.0221,0.31185,0.16524,-0.16677
-0.17862,0.56879,-2.5105,8.6299,0.4609,0.16432,-0.15272
-0.23456,0.98067,-2.3732,8.6299,0.12126,0.1686,0.048869
-0.29953,0.8826,-1.5298,8.7083,0.10965,0.1799,0.069639
-0.37103,1.216,-1.216,8.2376,0.083078,0.19823,-0.064446
-0.41718,1.6671,-1.6279,7.9238,0.04215,0.21472,-0.034819
-0.44394,1.5298,-2.432,8.3749,0.024129,0.23335,-0.0042761
-0.45691,1.7456,-2.7655,8.7083,0.041844,0.25168,0.014966
-0.4617,1.4318,-1.824,9.0417,0.12156,0.25809,0.018631
-0.4628,1.5298,-0.86299,9.1202,0.12004,0.24832,0.025351
-0.45847,1.5495,-0.72569,8.8456,0.36255,-0.10537,-0.045204
-0.48175,1.5298,-0.74531,8.7868,0.24954,-0.18601,-0.043371
-0.4884,1.5102,-0.74531,9.0025,0.11332,-0.2532,0.052534
-0.49374,1.3925,-0.94144,9.0417,0,-0.30055,0.036652
-0.5072,1.216,-1.1768,8.8848,-0.051313,-0.32865,0.017715
-0.49405,1.0395,-1.0199,9.3752,-0.025351,-0.33689,0.0051924
-0.46634,0.96105,-1.3141,9.9636,0.072388,-0.30818,-0.014966
-0.43524,1.1964,-1.8829,10.101,0.1799,-0.24893,-0.037263
-0.39191,1.5495,-1.824,9.6497,-0.039706,0.027794,-0.076969
-0.32114,1.5102,-1.471,9.1594,-0.093462,0.013134,-0.060476
-0.26202,1.118,-1.3533,8.9437,-0.13775,-0.00030543,-0.04948
-0.21326,1.216,-1.3533,9.0613,-0.16218,-0.015272,-0.060476
-0.17929,1.0395,-1.5102,9.1006,-0.18784,-0.03543,-0.067195
-0.14258,1.0787,-1.4122,9.3555,-0.2303,-0.049786,-0.062614
-0.12497,1.118,-1.216,9.3555,-0.28955,-0.053451,-0.072388
-0.11469,1.2356,-1.0003,9.2771,-0.34422,-0.058338,-0.083689
-0.085968,1.118,-1.0199,8.9044,-0.35277,-0.062308,-0.056505
-0.065857,1.0395,-1.5102,9.0025,-0.30788,-0.069028,-0.024435
-0.049194,0.92183,-1.8829,9.434,-0.22235,-0.083994,-0.043066
-0.02597,0.72569,-1.6475,9.0613,-0.10018,-0.082161,-0.047342
-0.012939,0.74531,-1.8437,9.3359,0.032681,-0.055283,-0.073915
-0.0090332,0.98067,-1.5691,9.3752,0.11942,-0.0085521,-0.088575
-0.0038757,1.118,-0.50995,9.0417,0.11484,0.046426,-0.092241
-0.017853,0.49033,-0.27459,9.0025,-0.009163,0.089492,-0.082772
-0.03656,1.118,-1.0395,8.8064,0.036652,0.089186,-0.0024435
-0.047424,1.2945,-1.6867,8.8064,0.051924,0.079412,-0.0048869
-0.057953,1.3925,-1.9417,9.2575,0.030849,0.049786,0.064446
-0.052917,1.3533,-1.8829,9.5125,0.047342,0.029016,0.045204
-0.024933,1.3729,-1.6475,9.6301,0.10263,0.037874,-0.039706
-0.00067139,1.4318,-1.4122,9.6694,0.099571,0.074526,-0.10018
0.0036011,1.6671,-1.2749,9.5125,0.0082467,0.10996,-0.098655
0.02243,1.8437,-1.2553,9.2575,-0.16952,0.068111,-0.054062
0.017365,1.6083,-1.3533,9.0417,-0.36316,-0.020464,0.0039706
0.023438,1.3533,-1.9809,9.179,-0.45082,-0.080023,-0.028405
0.037872,1.5298,-2.4124,9.0613,-0.41356,-0.091019,-0.034208
0.044739,1.5102,-2.0594,9.1594,-0.25565,-0.066279,-0.03879
0.048004,1.0591,-0.86299,9.3359,-0.082772,-0.013744,-0.032681
0.069366,0.41188,-0.64724,9.3752,0.015577,0.040012,-0.015272
0.090912,0.098066,-1.824,8.5318,0.029932,0.048869,-0.0085521
0.12192,0.41188,-2.432,8.4141,0.017715,0.037874,0.0073304
0.16321,0.098066,-1.8829,9.1594,0.024129,0.042761,-0.058032
0.21832,0.27459,-1.5102,9.2771,0.013439,0.047953,-0.053756
0.26599,0.49033,-1.5102,8.7083,0.017104,0.043677,-0.0036652
0.29071,0.86299,-1.9809,8.2768,0.011606,0.042761,-0.020769
0.30078,1.0199,-1.9613,8.316,-0.022907,0.057421,-0.036041
0.29199,0.98067,-1.8829,8.5318,-0.054062,0.075136,-0.040012
0.28732,1.118,-2.2555,8.5514,0.054367,0.077274,-0.041844
0.27582,1.118,-2.5105,8.8064,0.04612,0.072998,-0.053756
0.2695,1.216,-2.589,9.1594,-0.028711,0.073304,-0.03146
0.25793,1.0199,-2.4517,9.3752,0.0082467,0.07025,-0.036041
0.24753,1.3533,-2.1575,9.2183,0.043677,0.064752,-0.051618
0.23474,1.3729,-1.9025,9.179,0.067195,0.06689,-0.045509
0.21454,1.1768,-2.0006,9.2771,0.064752,0.072998,-0.047647
0.22137,1.3925,-2.2751,9.3163,0.021075,0.08491,-0.050091
0.2243,1.5298,-1.8829,9.3555,-0.06353,0.1014,-0.043982
0.23346,1.1964,-1.6475,9.3163,-0.054367,0.10934,-0.035125
0.23599,1.0787,-1.5102,9.1202,-0.011606,-0.062919,0.049175
0.228,0.98067,-1.6867,8.8652,0.015272,-0.054978,0.058643
0.21552,1.1768,-1.8044,8.7475,-0.01069,-0.072388,0.01069
0.21014,1.0591,-1.9613,8.6887,-0.077885,-0.10232,0.033292
0.20865,1.4906,-2.2555,8.7279,-0.14844,-0.12401,0.041539
0.21075,1.3533,-2.3536,8.7083,-0.19181,-0.13989,0.043371
0.22147,1.3337,-2.2948,8.8064,-0.19364,-0.14722,0.043677
0.22342,1.1964,-2.2948,8.7475,-0.15669,-0.12981,0.04612
0.23291,1.1964,-2.432,8.7475,-0.042761,-0.10049,0.023518
0.21848,1.5298,-2.2751,8.4337,-0.024435,-0.078191,0.0076358
0.21442,1.8044,-2.0006,8.5906,-0.0015272,-0.061697,0.069028
0.1944,1.7456,-1.9613,8.6495,0.014966,-0.036041,0.063835
0.18417,1.6475,-2.2163,8.7868,0.025656,-0.0039706,0.048564
0.17325,1.5298,-2.3144,9.0417,0.041539,0.018631,0.047342
0.17029,1.2749,-2.2751,9.0417,-0.10599,0.028711,0.053145
0.17163,1.2945,-2.1182,9.0221,-0.067806,0.036041,0.044593
0.17014,1.3729,-2.1575,8.4337,0.056505,0.062003,-0.014966
0.19171,0.80415,-2.1967,8.6299,0.0009163,0.0085521,-0.030238
0.21335,0.35304,-1.118,9.9636,-0.013744,-0.043371,-0.08491
0.25006,0.17652,-1.1768,11.062,0.024435,-0.054367,-0.082161
0.27319,0.11768,-1.7456,10.199,0.091019,-0.041233,-0.091935
0.30246,0.70608,-2.1575,9.3359,0.14936,-0.027184,-0.087354
0.33911,1.2356,-1.824,8.9437,0.17501,-0.019548,-0.054367
0.35107,1.3729,-1.5298,8.5514,0.17013,-0.030543,-0.018326
0.34958,1.8044,-1.6279,8.1787,-0.082467,0.010996,-0.021075
0.3121,1.4318,-1.6279,7.9434,-0.07758,-0.010385,-0.018631
0.27621,1.0591,-1.824,8.5514,-0.066584,-0.0085521,-0.010079
0.26266,1.1964,-1.9613,9.179,-0.0956,0.013134,-0.0045815
0.24557,1.0591,-2.2163,9.434,-0.14813,0.019242,0.0045815
0.26184,1.118,-2.3732,9.3359,-0.14844,0.0042761,0.0042761
0.28067,1.1964,-2.0986,9.1986,-0.074526,-0.0042761,-0.00061087
0.29361,1.4906,-2.2751,8.6299,0.029322,0,-0.010079
0.30948,1.1964,-2.1967,8.8456,0.11484,0.00030543,-0.058643
0.32483,1.2945,-1.824,9.434,0.062614,-0.015577,-0.06017
0.32382,1.4906,-1.6475,9.5125,-0.040012,-0.04215,-0.0073304
0.32407,1.6083,-1.5691,8.8652,-0.13225,-0.060476,-0.0036652
0.31339,1.5102,-1.7456,8.6299,-0.18204,-0.059254,-0.014355
0.31543,1.6867,-2.0006,8.7279,-0.18509,-0.03879,-0.029627
0.30835,1.5298,-2.4124,9.0221,-0.1573,-0.018021,-0.043066
0.30884,1.6083,-2.3144,9.0221,-0.11393,0,-0.0562
0.29065,1.5495,-1.9613,8.7868,-0.056505,0.014661,-0.09896
0.25372,1.118,-1.6475,9.3359,0.0048869,0.034208,-0.097738
0.21741,1.0199,-1.6475,9.8066,0.062308,0.065057,-0.064446
0.17459,0.5884,-2.2751,9.4928,0.1127,0.098655,-0.064752
0.13373,0.86299,-2.1575,8.7083,0.16096,0.12828,-0.068417
0.095734,0.90221,-1.4906,9.0417,0.17562,0.14355,-0.076969
0.066956,1.2945,-1.118,9.8066,0.15882,0.1295,-0.079107
0.020172,1.6867,-1.4318,9.6694,0.11973,0.099876,-0.083994
-0.011414,2.1378,-1.5887,9.1006,0.11973,0.30482,0.094073
-0.023895,2.2359,-2.4517,8.0807,0.25443,0.29658,0.034208
-0.033813,2.079,-2.4517,7.9238,0.18662,0.18784,0.26114
-0.046844,2.1771,-1.5298,8.6299,-0.04612,-0.016188,0.26023
-0.037262,1.5298,-1.118,9.0417,-0.37446,-0.21502,0.25229
-0.045288,1.5102,-1.3533,8.8456,-0.63897,-0.28955,0.20159
-0.047791,1.1964,-1.6279,8.7083,-0.84696,-0.24343,0.14264
-0.040283,0.66685,-1.3533,8.4926,-1.0351,-0.17379,0.11698
-0.06311,0.098066,-0.8826,8.7083,-0.80512,-0.13225,0.18357
-0.091919,-0.39227,-0.94144,8.8064,-0.4218,-0.055589,0.11576
-0.12039,0.23536,-1.3533,8.8652,0.014355,0.084299,-0.029016
-0.17175,-0.05884,-1.9809,7.5903,0.36011,0.18418,-0.051618
-0.22806,-1.0199,-2.1575,10.16,0.4948,0.24282,-0.033903
-0.26434,-1.216,-2.2948,12.474,0.36346,0.26481,-0.017715
-0.27121,0.039227,-1.8829,9.9636,-1.1506,0.19059,0.00061087
-0.25894,0.66685,-0.64724,6.9627,-1.0751,0.059254,0.098044
-0.25778,0.66685,-0.86299,6.1782,-0.63163,-0.099266,0.089186
-0.20917,0.90221,-2.0398,6.9235,-0.87415,-0.2251,0.10415
-0.15665,0.45111,-2.8243,8.8848,-0.95784,-0.26725,0.0281
-0.011017,0.41188,-2.3536,12.023,-0.79443,-0.26206,0.0042761
0.19461,0.49033,-1.9613,12.337,-0.50121,-0.22785,-0.0045815
0.40207,1.9613,-0.90221,10.454,-0.25045,-0.15669,-0.0051924
0.58875,2.5497,-0.84337,8.3357,0.040623,-0.010079,0.027184
0.69168,1.824,-1.5102,6.9823,-0.32406,0.11118,0.058032
0.72653,1.6671,-2.2555,7.3158,0.33689,0.13806,0.12004
0.70547,0.98067,-3.7265,9.1202,0.343,0.17226,0.14111
0.6767,1.5298,-3.9815,9.3359,0.29383,0.25931,0.076664
0.61774,0.90221,-2.9812,8.7475,0.33353,0.33139,0.05284
0.48862,0.41188,-2.687,6.9235,0.59132,0.35613,0.069028
0.3548,-1.1768,-1.6867,10.454,0.68631,0.33475,0.11851
0.23441,-1.4514,-0.5884,11.317,-0.048869,0.38973,0.15485
0.12393,-0.35304,-0.72569,8.3357,0.17104,0.41936,0.13531
0.029449,0.5884,-1.9809,7.1196,-0.41508,-0.22144,0.044288
-0.043091,0.56879,-4.6091,6.3547,-0.26176,-0.20372,0.046731
-0.049438,1.0395,-4.3542,8.6887,-0.015882,-0.13683,-0.15577
0.022186,-1.0003,-0.72569,15.141,0.21258,-0.048258,-0.14111
0.14575,-1.0591,1.1572,13.729,0.35522,0.024129,-0.10965
0.28528,2.1378,-0.62763,9.2575,0.4444,0.087048,-0.058948
0.41235,2.589,-2.4517,8.5514,0.48961,0.18723,-0.0036652
0.48093,0.80415,-3.197,7.5903,0.47159,0.29383,0.034819
0.46851,0.39227,-2.4124,7.0216,0.34636,0.29444,0.075136
0.39688,0.80415,-2.432,7.7669,0.33537,0.21838,0.069028
0.3139,0.98067,-3.8246,7.8649,0.405,0.19578,0.044288
0.27225,1.6083,-3.8834,8.0022,0.47006,0.24038,0.0036652
0.2562,1.9221,-2.942,8.2376,0.46884,0.29138,-0.018326
0.27087,1.6083,-1.824,8.7279,0.416,0.30788,0.024129
0.28497,1.5298,-1.9809,8.7475,0.34941,0.28436,0.067501
0.3201,1.6475,-2.7459,8.4141,0.28955,0.24954,0.080329
0.36371,1.7064,-2.942,8.2376,0.23427,0.22938,0.049175
0.39325,1.5102,-2.2751,8.4926,0.17562,0.21441,0.051007
0.41898,1.3533,-1.1964,8.316,0.10934,0.20036,0.076664
0.41309,0.74531,-0.74531,8.3749,0.089186,0.1799,0.0956
0.38907,0.54917,-1.6671,8.5514,0.13378,0.16524,0.10232
0.36072,1.118,-2.0594,9.179,0.2135,0.15424,0.083689
0.34482,0.96105,-1.9809,9.6694,0.30146,0.16005,0.076358
0.32681,1.0787,-2.1967,9.3752,0.33475,0.18387,0.065668
0.30789,1.2356,-2.2555,9.1986,-0.12706,0.19395,-0.032376
0.29498,1.5102,-2.2751,9.0221,0.30818,0.1573,0.058338
0.26025,1.3925,-2.6086,9.0417,0.22571,0.075136,0.040623
0.23004,1.2945,-2.8243,9.0613,0.10934,-0.012217,-0.0085521
0.20346,1.0199,-2.4517,9.3555,0.0012217,-0.064752,-0.055589
0.18652,0.70608,-2.3732,9.5125,-0.057116,-0.069333,-0.059559
0.18433,0.98067,-2.432,8.9044,-0.080329,-0.070555,-0.035736
0.18192,1.0591,-2.0594,8.7475,-0.10232,-0.090408,-0.026573
0.1991,0.74531,-1.824,8.8064,0.098349,0.049175,0.00061087
0.24234,0.98067,-1.9809,8.6299,0.073915,0.0082467,-0.022297
0.29395,1.118,-2.0398,8.5514,0.013744,-0.023213,-0.0097738
0.31454,1.1964,-2.1967,8.316,-0.091935,-0.026267,-0.0030543
0.31784,1.3533,-2.1378,8.2572,-0.20617,-0.01069,-0.013744
0.30902,0.90221,-1.4318,8.7083,-0.28039,-0.021686,-0.0058032
0.30273,1.0395,-1.3533,9.1006,0.10599,-0.041844,0.031154
0.31235,1.1376,-1.8829,9.434,0.10171,-0.051313,0.037263
0.32413,1.1964,-2.3144,9.3359,0.052229,-0.0079412,-0.15821
0.34018,1.2945,-2.3144,9.2771,0.34117,0.03207,-0.13073
0.34183,0.96105,-1.7456,9.5125,0.62064,0.040623,0.0076358
0.32874,0.56879,-1.6279,9.6301,0.63591,0.1011,-0.0042761
0.32681,0.86299,-2.0594,9.3163,0.37171,0.15821,-0.13011
0.31067,0.98067,-2.2751,8.8064,-0.002138,0.18937,-0.18387
0.28986,1.1768,-2.1575,8.5906,-0.27,0.1573,-0.18723
0.2446,0.8826,-2.4124,8.7279,-0.12187,0.065057,-0.18295
0.21008,0.90221,-2.1967,9.0221,-0.48197,-0.043066,-0.019242
0.16058,0.56879,-1.8044,8.6887,-0.39187,-0.12278,0.00030543
0.099304,0.35304,-1.6671,8.7083,-0.20372,-0.14905,-0.12462
0.039917,0.66685,-1.7848,8.9044,0.002138,-0.13531,-0.13836
-0.0097656,1.1768,-1.7456,9.1202,0.13806,-0.098044,-0.13592
-0.032379,1.1964,-2.589,10.003,0.1857,-0.022907,-0.12156
-0.047302,1.3533,-2.4124,9.2183,-0.30696,0.061087,-0.097738
-0.050385,1.7456,-2.687,8.316,-0.46487,0.11423,-0.062308
-0.062469,1.6867,-2.687,8.8064,-0.15577,-0.033598,-0.020464
-0.078278,2.0594,-1.8044,10.062,-0.14478,-0.0024435,-0.019548
-0.11703,2.1182,-0.64724,9.8066,-0.13011,0.0030543,-0.048564
-0.1994,1.5887,-0.8826,9.0221,-0.083994,0.0064141,-0.022907
-0.28622,1.5887,-1.7456,8.0611,0.0015272,0.026573,-0.031765
-0.34326,1.5887,-2.6674,8.0022,0.091019,0.06353,-0.0562
-0.37027,1.216,-2.7459,8.2572,0.13683,0.086132,-0.052534
-0.34387,0.49033,-2.589,8.4926,0.12675,0.080634,-0.03146
-0.311,0.45111,-2.1575,8.4926,0.4047,0.17043,0.35766
-0.24017,-0.13729,-1.0199,8.316,0.38637,0.23274,0.25168
-0.18481,-0.11768,-0.94144,8.5514,0.30604,0.26878,0.10537
-0.13959,-0.66685,-2.1182,9.2771,0.20647,0.29719,0.1518
-0.11026,-0.17652,-3.2166,9.689,0.17074,0.31918,0.17349
-0.075073,0.74531,-2.7459,9.5125,0.27458,0.34697,0.18876
-0.027893,1.1768,-1.5102,8.9633,0.31918,0.41172,0.24923
0.048126,0.41188,-0.72569,9.0417,0.10263,0.36133,0.34544
0.10513,0.8826,-1.4318,8.7083,-0.21136,0.15241,-0.037874
0.15512,1.5298,-1.9025,8.1003,-0.46151,-0.13714,-0.067501
0.21591,0.90221,-1.6671,8.6495,-0.50793,-0.35003,0.14539
0.25812,0.17652,-2.2555,10.768,-0.39431,-0.38912,0.04948
0.2962,0.98067,-3.6873,10.297,-0.28405,-0.32223,-0.0088575
0.33365,1.0787,-3.2362,10.062,-0.22663,-0.2642,0.01069
0.37259,0.90221,-2.5693,10.277,-0.17318,-0.2416,0.03543
0.3963,1.0591,-1.9613,10.297,-0.098655,-0.20831,0.0079412
0.39661,0.80415,-1.3141,10.297,0.30024,0.013134,-0.072998
0.38663,1.6475,-0.41188,8.7868,0.50457,0.0042761,-0.13103
0.31223,1.6475,-0.56879,7.1785,0.68722,0.0085521,0.097738
0.20248,1.0199,-1.6867,6.9823,0.80023,-0.026267,0.088881
0.07663,0.8826,-3.1381,7.6492,0.80604,-0.060781,0.06017
-0.026031,1.3533,-2.2555,8.4141,0.68325,-0.10782,0.027184
-0.10803,1.118,-2.0594,7.8649,0.4667,-0.16371,0.0024435
-0.18036,1.1964,-1.824,8.218,0.16432,-0.21502,-0.031154
-0.2735,0.17652,-1.3533,6.747,-0.2529,-0.26695,-0.045204
-0.35617,-2.1182,-1.9417,10.925,-0.65088,-0.27703,0.0085521
-0.42026,-1.1572,-2.687,12.494,-0.88789,-0.26237,-0.18448
-0.46289,0.74531,-2.589,9.3359,-0.93035,-0.22419,-0.18815
-0.49911,0.70608,-2.0006,7.6492,-0.82711,-0.15882,-0.17165
-0.54037,0.43149,-1.824,8.0022,-0.60353,-0.094684,-0.14325
-0.54736,0.45111,-2.432,8.5514,-0.27397,-0.03879,-0.10354
-0.50623,0.74531,-2.7459,9.2771,0.072998,0.058338,-0.064752
-0.43997,0.98067,-2.1575,9.4732,-0.21075,-0.026267,0.016799
-0.34357,1.0395,-1.5691,9.0613,-0.25381,-0.017715,0.020464
-0.25735,1.3925,-1.6867,8.8848,-0.3485,0.015272,-0.070555
-0.19083,1.5887,-2.1182,8.9437,-0.40439,0.087048,-0.06689
-0.12799,1.8437,-1.9417,9.1202,-0.3372,0.17074,-0.045509
-0.10208,1.824,-1.3729,8.8064,-0.18937,0.19181,-0.024435
-0.079529,1.824,-0.90221,8.2376,-0.14294,0.18937,-0.017104
-0.075653,1.2945,-1.5887,8.1787,-0.1857,0.19609,0.00030543
-0.06424,1.3729,-2.5693,8.6887,0.041539,0.094073,-0.10293
-0.039398,0.92183,-2.687,10.199,-0.089797,0.097128,-0.10629
-0.01535,0.90221,-3.1381,10.905,-0.10293,0.051618,0.14447
-0.016266,1.3337,-1.9417,8.7868,0.058338,0.0094684,0.077274
-0.028656,0.72569,-2.1378,8.316,0.27,-0.014355,-0.062919
-0.031311,0.17652,-2.7459,9.7478,0.36713,-0.07758,-0.1405
-0.0466,0.45111,-2.4713,10.474,0.32009,-0.16493,-0.12248
-0.06134,0.74531,-1.726,9.9047,0.19151,-0.24526,-0.10049
-0.05954,1.0395,-1.3533,9.0613,0.019853,-0.31734,-0.11576
-0.09613,1.216,-1.9809,8.5514,-0.15882,-0.37171,-0.094379
-0.11078,1.6083,-2.687,8.2376,-0.28833,-0.41111,-0.12034
-0.10657,1.5495,-2.4517,8.316,-0.32009,-0.42761,-0.1347
-0.090302,1.3533,-1.9613,8.6495,-0.26237,-0.40592,-0.13775
-0.06366,1.1964,-1.6279,8.5318,-0.16646,-0.35461,-0.14386
-0.034302,1.3729,-1.5691,8.1591,-0.030543,-0.28466,-0.15333
-0.0058594,1.3729,-1.4318,8.4141,0.10751,-0.21075,-0.146
-0.013336,1.4318,-1.5691,8.8064,0.14325,-0.15455,-0.086132
0.023651,1.5298,-1.5691,8.8652,0.025656,-0.11942,-0.072693
0.043243,1.9025,-1.5102,8.2572,-0.051313,-0.10049,-0.089492
0.049713,1.5298,-1.6475,7.6884,-0.069028,-0.096517,-0.093462
0.055023,0.92183,-2.2751,9.0417,-0.071777,-0.091019,-0.10568
0.069183,0.70608,-2.7262,9.9439,-0.097433,-0.066584,-0.11576
0.093781,0.80415,-2.4713,9.9636,0.20159,-0.036346,-0.11148
0.10678,0.92183,-1.7848,9.4732,0.21655,-0.022907,-0.098655
0.11154,1.0395,-1.6867,8.7475,-0.045204,-0.023213,-0.060476
0.1232,1.118,-2.3732,8.8652,0.0015272,-0.013134,-0.048564
0.1481,1.3925,-2.1182,8.8064,0.017715,0.0033598,-0.033292
0.15866,1.2945,-2.0398,8.9437,0.034819,0.017104,-0.024435
0.16168,1.3533,-2.0986,9.0221,0.036957,0.015272,-0.017104
0.15793,1.5887,-2.2555,8.8652,0.025351,0.0067195,-0.0097738
0.16113,1.216,-2.2948,8.8456,0.0036652,0.0082467,-0.0033598
0.15598,1.1964,-2.3732,8.9437,-0.019548,0.026573,0.002138
0.16791,1.1768,-2.4124,9.2771,0.099876,0.033292,-0.07758
0.19977,0.66685,-2.3144,9.3359,0.11942,0.074831,-0.090713
0.21164,0.90221,-2.1967,9.0613,0.11454,0.11148,-0.0036652
0.22269,1.0787,-2.2751,8.8064,0.073915,0.13928,-0.017104
0.23056,1.3533,-2.4517,8.5318,0.0067195,0.14539,-0.021686
0.24091,1.5298,-2.589,8.2768,-0.080329,0.12981,-0.019853
0.26093,1.6475,-2.432,8.2572,-0.1518,0.098044,-0.030849
0.25516,1.8437,-2.1575,8.5906,-0.14416,0.077885,-0.050702
0.24756,1.5298,-1.9417,8.7475,0.045509,0.092852,-0.10721
0.21851,1.4514,-2.3732,8.8652,0.14844,0.11851,-0.11057
0.22586,1.6867,-3.1381,8.6887,0.18387,0.1237,-0.085216
0.22235,1.4906,-3.0008,9.0025,0.15211,0.10476,-0.07422
0.20786,1.1768,-2.6086,9.434,0.093157,0.071471,-0.071471
0.20236,1.1768,-2.3732,9.3163,0.037568,0.025656,-0.083078
0.198,1.3729,-2.3144,9.0417,0,-0.016493,-0.096211
0.19788,1.3729,-2.2751,9.0417,-0.018937,-0.043677,-0.10354
0.18582,1.3337,-2.2163,9.0025,-0.029322,-0.059559,-0.051007
0.18887,0.98067,-2.0986,8.6887,-0.035125,-0.067806,-0.058338
0.18301,1.0591,-2.1575,8.4926,-0.040623,-0.065973,-0.10507
0.1745,1.0395,-2.2555,8.4926,-0.046426,-0.05681,-0.094379
0.14792,1.2356,-2.1967,8.8652,-0.040317,-0.046731,-0.082161
0.12302,1.2749,-1.9613,9.1202,-0.027489,-0.044899,-0.072388
0.10492,1.1376,-1.8829,8.8652,-0.013744,-0.044593,-0.062919
0.087006,1.2945,-1.9613,8.7083,-0.0039706,-0.034208,-0.050702
0.071106,1.1964,-2.1182,8.4729,0.018631,-0.018021,0.043677
0.068695,1.1964,-2.3732,8.8456,0.057421,0.0012217,0.045509
0.08551,1.216,-2.2751,9.2575,0.060476,0.013439,0.036652
0.098297,1.3533,-2.0006,9.2771,0.028405,0.013744,0.038179
0.10196,1.2945,-1.824,9.0417,-0.038179,0.0009163,0.041233
0.10831,1.4514,-2.0398,8.7083,-0.11942,-0.019853,0.044593
0.097565,1.5887,-2.4124,8.6887,-0.18754,-0.040928,0.044593
0.098022,1.3337,-2.4517,9.0613,-0.22785,-0.05681,0.043371
0.10016,1.1964,-2.3144,9.5713,-0.24404,-0.055283,0.023824
0.10385,1.118,-2.2555,9.4732,-0.23976,-0.048564,0.037874
0.10513,1.2356,-2.0986,9.0417,-0.22205,-0.049786,0.047647
0.10681,1.4318,-2.4124,8.4926,-0.20403,-0.059254,0.045815
0.12637,1.5102,-2.2751,8.5318,-0.17349,-0.067806,0.043371
0.13657,1.2749,-2.3144,8.8064,-0.11209,-0.063225,0.036346
0.16254,1.4514,-2.0594,8.8064,-0.025351,-0.035125,0.025351
0.17572,1.3729,-1.9613,8.8652,0.042455,0.0051924,0.017715
0.19122,1.3533,-2.1182,8.8848,0.0015272,0.031154,-0.022907
0.20578,1.1964,-2.432,8.8456,-0.035125,0.030543,-0.023824
0.23462,1.3337,-2.3144,8.5514,-0.046731,0.021075,0.04612
0.28067,1.2945,-2.4517,8.7279,-0.025656,0.030238,0.035736
0.32156,1.1964,-2.6282,8.6299,0.026267,0.058338,0.009163
0.37848,1.6083,-2.6282,8.6299,0.076053,0.089797,-0.02138
0.42896,1.5102,-2.2948,8.8652,0.066584,0.1124,-0.034819
0.46713,1.6475,-2.2751,8.8064,0.045815,0.12492,-0.028405
0.49457,1.7652,-2.4713,8.4926,0.032987,0.12553,-0.012523
0.49454,1.4318,-2.4713,8.6299,0.016493,0.10721,-0.0033598
0.47537,1.5887,-2.4124,9.1594,0.016188,0.084299,-0.021991
0.43411,1.2945,-2.4124,9.2183,0.01741,0.067806,-0.021991
0.40182,1.3337,-2.3732,9.0221,0.0015272,0.055894,-0.026573
0.35895,1.3533,-2.2751,9.0417,-0.026267,0.047342,-0.028405
0.34012,1.3533,-2.1575,9.179,0.085216,0.041844,-0.025656
0.31427,1.118,-2.2751,9.1986,0.062003,0.0281,-0.021991
0.29385,1.1964,-2.432,9.1006,-0.0051924,0.054978,-0.012828
0.31107,1.0395,-2.7851,8.8652,0.11851,0.077274,-0.0085521
0.33566,1.5298,-2.4124,8.7083,0.21441,0.11026,-0.055283
0.33667,1.0787,-2.1378,8.7475,0.24343,0.12981,-0.052534
0.3302,1.0787,-2.3732,8.8064,0.21838,0.12095,-0.04215
0.33768,1.3533,-2.6086,8.8652,0.16463,0.1014,-0.033598
0.35645,1.4318,-2.432,9.0221,0.10324,0.083994,-0.030238
0.35968,1.4514,-1.9809,8.9437,0.043371,0.064446,-0.022297
0.36887,1.5887,-1.6279,8.8652,0.011912,0.036346,0.044899
0.37253,1.6475,-1.8829,8.4141,0.044899,0.011606,0.021686
0.35596,1.4318,-2.2751,8.2376,0.13011,0.018326,-0.017104
0.34433,1.4318,-2.5105,8.3357,0.19181,0.064446,-0.030238
0.33432,1.6475,-2.4517,8.7083,0.18204,0.10171,-0.01741
0.31116,1.4318,-2.1378,8.8848,0.12065,0.093768,0.016493
0.28482,1.2945,-2.2163,9.0613,0.053451,0.053756,0.042761
0.2489,1.3533,-2.432,8.9044,0.01405,0.010385,0.054367
0.2085,1.1964,-3.0008,8.7475,0.016493,-0.007025,-0.0042761
0.18036,1.0395,-2.7459,8.8652,0.048258,0.013134,-0.01069
0.1188,1.3533,-2.432,9.1006,0.081551,0.04612,0.00061087
0.077271,1.216,-1.8044,9.179,0.087659,0.067806,-0.0030543
0.027405,1.1376,-1.6279,9.0613,0.06353,0.07758,-0.0051924
-0.0093994,1.3533,-2.2751,8.8848,0.018326,0.07422,-0.0082467
-0.022308,1.3533,-2.1967,8.9437,-0.022602,0.065057,-0.00030543
-0.046997,1.1768,-1.8437,9.179,-0.036346,0.063225,0.0018326
-0.064972,1.3337,-1.9025,9.1986,0.091935,0.080329,-0.0054978
-0.08963,1.3533,-2.2751,8.7868,0.1347,0.10599,-0.038179
-0.11694,1.2356,-2.1967,8.7475,0.12034,0.11362,0.025656
-0.14587,1.4318,-1.8829,8.8652,0.073304,0.10934,0.036652
-0.19278,1.3337,-1.8829,8.8456,0.01741,0.099266,0.033292
-0.2305,1.3533,-2.2555,8.6887,-0.040623,0.093157,0.025351
-0.27124,1.2945,-2.432,8.4729,-0.099876,0.082161,0.017104
-0.31198,1.3337,-1.9809,8.9437,-0.12767,0.059254,0.010385
-0.3624,1.0591,-1.471,9.1202,0.011912,0.078191,-0.081245
-0.38513,0.86299,-1.824,9.0221,0.065668,0.084299,-0.089186
-0.40619,1.1964,-2.6086,8.7475,0.11362,0.07422,-0.012523
-0.43909,1.1964,-2.6086,8.8848,0.13073,0.072998,-0.010996
-0.46783,0.90221,-2.3732,9.179,0.11179,0.091019,-0.026267
-0.49365,0.92183,-2.2751,8.9437,0.079718,0.10018,-0.043982
-0.51578,0.74531,-1.9809,8.4141,-0.039706,0.094684,-0.048564
-0.54953,0.49033,-1.9417,9.0613,-0.026267,0.076053,-0.062614
-0.57043,0.90221,-1.9025,9.4144,0.069028,0.052229,-0.068111
-0.60556,0.92183,-1.6671,9.5125,0.087659,0.031154,-0.06689
-0.63495,1.0591,-1.6475,9.4144,0.096211,0.010996,-0.086743
-0.64429,1.1376,-1.6671,9.3359,0.087048,0.0012217,-0.085827
-0.64209,1.2945,-1.3729,9.1202,0.054978,0.00030543,-0.083994
-0.64609,1.5102,-0.8826,8.5514,0.0097738,0.0058032,-0.076358
-0.65381,1.216,-1.0199,8.4141,0.059559,0.0061087,-0.068417
-0.65039,1.0787,-1.5691,8.7475,0.054978,-0.0036652,-0.064141
-0.65546,0.98067,-2.2163,9.3359,0.043371,-0.032376,0.054062
-0.63245,1.0787,-2.3536,9.3752,-0.010385,-0.051924,0.047342
-0.6062,1.3533,-2.6086,9.0417,-0.033598,-0.053145,-0.060781
-0.5593,1.4514,-2.432,8.7475,-0.054062,-0.042455,-0.063835
-0.50897,1.118,-2.1967,8.8652,-0.091935,-0.014355,-0.038179
-0.48096,1.216,-2.3144,9.1202,-0.13683,0.021991,-0.009163
-0.45032,1.1964,-2.1967,9.179,-0.16493,0.046426,0.020769
-0.43713,1.0395,-1.824,9.0417,-0.17349,0.059254,0.049175
-0.42291,1.0395,-1.8829,9.1202,-0.15913,0.064446,-0.0024435
-0.4136,1.118,-1.6671,9.2575,-0.12065,0.061392,-0.015577
-0.40433,0.92183,-1.824,9.1202,-0.078191,0.0562,0.051924
-0.40567,1.0395,-1.824,9.0417,-0.052534,0.053145,0.059254
-0.38397,1.1964,-1.8044,8.9437,-0.054367,0.047037,0.057116
-0.36426,0.90221,-1.9809,9.0417,-0.078496,0.035736,0.053451
-0.34027,0.8826,-1.9809,9.0613,-0.089492,0.02474,0.048564
-0.31775,1.118,-1.7456,9.0417,-0.06353,0.043982,0.026878
-0.31061,1.1964,-1.6867,8.8064,0.043371,0.068111,-0.065363
-0.28406,0.98067,-2.0006,8.6299,-0.0094684,0.068722,-0.073609
-0.27689,1.0395,-1.8437,8.9437,-0.050396,0.076358,-0.0562
-0.27054,1.0787,-1.8829,9.3163,-0.028405,0.086743,-0.071471
-0.26541,1.2356,-1.824,9.2771,0.045815,0.10446,-0.077885
-0.25464,1.118,-1.3729,9.1202,0.11362,0.12187,-0.076664
-0.25958,0.92183,-1.5102,9.0417,0.12614,0.12675,-0.072388
-0.26181,1.1964,-2.0986,8.9044,0.06689,0.11362,-0.068417
-0.2655,1.118,-1.8829,9.1594,-0.034514,0.097738,-0.033598
-0.26331,1.118,-1.6279,9.3359,-0.12339,0.097128,0.05681
-0.24298,1.1964,-1.5102,9.2183,-0.15088,0.1066,-0.074831
-0.23495,1.2749,-1.9417,8.7475,-0.090713,0.10415,-0.067195
-0.22067,1.2945,-1.6279,8.8848,0.013134,0.10629,-0.072082
-0.23169,0.8826,-1.216,9.0221,0.091324,0.095295,-0.073915
-0.23987,0.56879,-1.6475,9.2575,0.14539,0.0562,-0.062614
-0.24011,0.86299,-2.0594,9.0613,0.14783,0.030849,-0.057116
-0.23157,1.118,-2.0594,9.0613,0.0048869,0.044593,0.0036652
-0.24054,1.0199,-2.0398,9.0025,-0.047953,0.0082467,0.0018326
-0.22232,1.1964,-2.0594,8.8652,-0.055894,-0.0094684,0.051007
-0.24207,1.3337,-2.3732,8.7475,-0.027489,-0.012217,0.040928
-0.23792,1.3729,-2.0594,8.7083,-0.010385,-0.0048869,0.036041
-0.23764,1.3533,-1.9613,9.0025,-0.021991,0.0018326,0.027184
-0.25241,1.0395,-1.824,9.0613,-0.046731,0.0009163,0.016188
-0.26437,1.4318,-1.9417,8.8652,-0.062614,-0.002138,0.0088575
-0.30411,1.3337,-1.9025,8.8652,-0.058948,0.0012217,-0.05284
-0.3436,1.0591,-1.7848,8.8064,-0.04612,0.009163,-0.04612
-0.37625,1.2749,-1.6671,9.2575,-0.023824,0.020159,-0.014966
-0.40747,1.5102,-1.6867,9.1006,0.00061087,0.040012,-0.033903
-0.42764,1.2749,-1.6671,8.5318,0.019853,0.058338,-0.043066
-0.41876,1.0591,-1.824,8.9633,0.035736,0.067806,-0.047037
-0.39761,0.74531,-2.1378,11.062,0.057727,0.072693,-0.051313
-0.36948,0.80415,-1.6279,10.199,0.065973,0.074526,-0.055283
-0.39603,1.2356,-1.0395,6.5116,0.12462,-0.016188,0.0061087
-0.42316,0.17652,-1.824,9.2575,0.025045,0.055283,0.0082467
-0.46582,-0.11768,-2.9028,10.925,-0.029322,0.099571,-0.042761
-0.47781,1.1376,-1.3729,9.434,-0.019242,0.087965,-0.020769
-0.50714,0.86299,-0.078453,8.0022,0.0027489,0.053145,-0.018021
-0.55399,-0.21575,-0.94144,7.3354,0.0018326,0.025351,-0.01741
-0.56641,-0.23536,-2.2751,7.8453,0.077274,-0.0009163,-0.019853
-0.54657,0.49033,-2.7262,8.5906,0.15913,-0.045204,-0.010996
-0.48523,0.66685,-2.7459,9.6497,-0.46945,-0.062614,0.039095
-0.39517,0.96105,-3.0793,9.8459,-0.42364,-0.070555,0.022907
-0.28888,1.3925,-2.4124,9.6301,-0.25717,-0.040928,-0.029322
-0.18683,1.8044,-1.0199,8.8456,-0.016493,0.029322,-0.064752
-0.098419,1.3729,-1.118,7.6296,0.20067,0.10354,-0.066279
-0.057312,1.118,-2.432,8.1199,0.30268,0.14203,-0.027184
-0.0037231,1.7652,-2.9028,8.8848,0.27214,0.12431,0.015882
0.053711,1.6083,-2.2163,9.5321,0.16616,0.07086,0.037263
0.11435,1.4318,-1.8437,9.8851,-0.057727,0.023213,-0.064141
0.16333,1.1964,-2.1967,9.5713,-0.029627,-0.0082467,-0.076358
0.20343,1.1964,-2.6086,9.179,0.037263,-0.023518,-0.0015272
0.22748,0.90221,-2.7459,9.1594,0.12401,-0.027184,-0.023213
0.23541,1.0395,-2.589,8.9437,0.20739,-0.024435,-0.031765
0.22964,1.4318,-2.2751,8.9437,0.25504,-0.015882,-0.030238
0.19199,1.8044,-1.4906,9.1594,0.054978,-0.0027489,-0.032681
0.12946,1.7456,-0.70608,9.0417,-0.025351,-0.0088575,-0.047953
0.067352,1.6867,-0.68647,9.434,0.41661,-0.011301,-0.058948
0.00064087,1.5102,-1.4318,9.0417,0.36499,0.0281,-0.063225
-0.051056,1.7456,-1.9809,8.7868,0.24404,0.080634,-0.07422
-0.10437,1.5298,-1.9417,8.7475,0.094073,0.099876,-0.059559
-0.14301,0.86299,-2.0986,9.0221,-0.017104,0.079718,-0.047342
-0.17551,0.45111,-2.0594,9.3359,-0.019548,0.027794,-0.030543
-0.20612,0.66685,-2.687,9.1986,0.31368,-0.026878,-0.029322
-0.22391,0.90221,-2.2751,8.8848,0.38912,-0.047647,-0.047342
-0.24292,0.64724,-1.7456,8.316,-0.075442,0.048564,0.048258
-0.22482,0.96105,-2.4517,8.0807,-0.070555,0.071777,0.069028
-0.21185,1.1768,-2.6674,8.0807,-0.043677,0.10293,0.0097738
-0.21124,1.3729,-2.1182,8.8456,-0.019548,0.12889,0.020159
-0.2283,1.3925,-1.6475,9.179,-0.010385,0.12462,0.038485
-0.25403,1.2945,-1.824,9.1986,-0.019853,0.10171,0.055894
-0.27881,1.2356,-1.5691,8.5514,-0.042455,0.091324,0.057116
-0.30847,1.1964,-1.6671,8.5514,-0.058948,0.087659,0.044593
-0.32053,0.92183,-1.6279,9.3752,-0.052534,0.080634,0.17562
-0.30951,0.98067,-1.5102,9.8459,-0.037263,0.072693,0.09896
-0.29034,1.0395,-1.6475,9.4732,-0.059559,0.050396,0.08827
-0.2952,1.3925,-1.7456,8.8456,-0.13347,0.0076358,0.1066
-0.29102,1.3533,-1.6671,8.8064,-0.19456,-0.021686,0.10996
-0.29672,1.0395,-1.5298,9.1006,-0.11668,0.010996,0.095295
-0.27567,0.92183,-1.8437,9.1986,0.12401,0.10996,0.10996
-0.26266,1.0787,-1.824,9.179,0.29047,0.19028,0.16952
-0.23669,0.60801,-1.726,9.6497,0.078191,0.16524,-0.093157
-0.20081,1.0591,-2.1182,10.042,-0.14264,0.041233,-0.077274
-0.19992,1.5495,-2.5105,9.3163,-0.32467,-0.14111,0.025656
-0.23669,1.2749,-2.432,7.7865,-0.3488,-0.27978,-0.0073304
-0.27344,-0.078453,-2.1378,10.277,-0.24129,-0.31062,-0.052229
-0.32349,-0.35304,-1.824,10.983,-0.10996,-0.25504,-0.13042
-0.37888,0.5884,-1.9417,8.4926,-0.03207,-0.17685,-0.16616
-0.4379,0.54917,-1.7848,7.1589,-0.02474,-0.12156,-0.13134
-0.48792,0.56879,-1.9417,7.61,0.0024435,-0.09896,-0.11057
-0.51941,0.35304,-1.8437,8.1787,0.10018,-0.062614,-0.089186
-0.51318,0.41188,-2.1575,9.3163,0.14905,-0.022907,-0.068722
-0.466,0.80415,-1.9417,9.787,0.090103,-0.014355,-0.051313
-0.38794,1.118,-1.824,9.5321,-0.043066,-0.040317,-0.057421
-0.28958,1.5298,-1.8829,9.0613,-0.17654,-0.081245,-0.090713
-0.17645,1.5102,-2.0594,8.9044,-0.26756,-0.12065,-0.12004
-0.068481,1.9613,-1.824,8.7475,-0.30604,-0.1518,-0.12492
0.01239,1.8633,-1.4318,8.2768,0.017715,0.036652,0.044593
0.074524,1.7456,-1.824,7.9434,-0.007025,0.033292,0.023213
0.14651,1.8437,-1.9809,8.7279,-0.026573,0.022297,-0.011606
0.19986,1.5298,-1.5298,9.4732,-0.059865,-0.0073304,0.038485
0.23557,1.4906,-1.5691,9.6301,-0.041539,-0.031154,0.06353
0.24738,1.5102,-2.3732,9.0417,0.11118,0.015882,0.099876
0.22949,1.4318,-2.4517,8.8652,0.208,0.062614,0.13897
0.19357,0.90221,-2.1575,9.0613,0.20372,0.052229,0.10385
0.15582,0.56879,-1.7848,9.4732,-0.38576,-0.054367,-0.070555
0.091949,0.90221,-1.7456,9.1594,-0.50916,-0.16982,-0.033598
0.031525,1.0395,-2.1182,8.2572,-0.53665,-0.23702,-0.011912
-0.036194,0.74531,-2.1967,8.0218,-0.41417,-0.24893,-0.029627
-0.11349,0.56879,-2.2163,9.0417,-0.18692,-0.2532,-0.029932
-0.18677,0.49033,-2.1378,9.5125,0.048564,-0.2364,-0.034819
-0.24661,0.82376,-1.9809,9.689,0.054978,-0.17593,-0.052534
-0.29022,1.0395,-1.5102,9.8066,-0.18021,-0.093157,-0.066279
-0.31281,1.2945,-1.6475,9.8851,0.18815,-0.029627,-0.0562
-0.33737,0.86299,-2.9224,8.9437,0.013439,-0.023518,-0.024129
-0.3486,0.49033,-2.5105,10.572,-0.13286,-0.061087,-0.0018326
-0.34473,0.66685,-1.0199,10.297,-0.19273,-0.1179,-0.0036652
-0.34802,1.118,-0.72569,8.2572,-0.15791,-0.17013,-0.020464
-0.36459,0.56879,-1.7456,7.61,-0.058643,-0.19456,-0.043066
-0.36557,0.74531,-2.6086,7.9238,0.23915,-0.17623,-0.05681
-0.3457,0.64724,-2.4517,8.8652,0.28741,-0.12645,-0.065973
-0.28009,0.56879,-2.432,9.8066,-0.029322,-0.07025,-0.067195
-0.21011,0.98067,-2.2751,9.3359,0.056505,-0.027184,-0.046426
-0.11606,1.4906,-2.2751,8.8652,0.072693,-0.0088575,0.0033598
-0.030334,1.4318,-1.8829,8.6299,0.011606,-0.007025,0.0097738
0.042328,1.3533,-1.6475,8.7083,-0.10263,-0.0073304,-0.0012217
0.11313,1.3533,-1.5298,8.6887,-0.21961,0.0067195,-0.020769
0.15308,1.6083,-1.8044,8.1199,-0.25748,0.04612,-0.043677
0.18857,1.5495,-2.5105,8.0611,-0.18021,0.098044,-0.065668
0.21255,1.3925,-2.5105,8.9044,0.53726,0.36927,-0.10415
0.26038,0.90221,-2.3144,10.12,0.41264,0.3427,-0.10415
0.30957,0.98067,-1.6867,9.689,0.30207,0.29383,-0.04215
0.32553,1.2356,-1.471,9.2575,0.24801,0.24984,-0.053451
0.35123,1.1964,-1.6475,9.1006,0.25412,0.2306,-0.073609
0.37042,0.8826,-1.6475,9.0417,0.29169,0.22083,-0.083078
0.37448,1.0395,-1.7456,9.3163,0.31979,0.20708,-0.091019
0.38443,1.0395,-1.824,9.2575,0.33934,0.17654,-0.10446
0.40637,0.90221,-2.1967,9.179,0.34392,0.16432,-0.017104
0.43921,0.76492,-2.3732,9.2771,0.30238,0.17318,0.010996
0.47092,1.0591,-2.0594,9.0613,0.22022,0.15974,-0.096517
0.48325,1.0395,-1.824,9.0221,0.13225,0.11301,-0.072693
0.47595,1.3337,-1.3729,8.4926,0.079718,0.07086,-0.055589
0.45776,1.3925,-1.2749,8.0611,0.062308,0.055589,-0.061392
0.42047,1.0199,-1.4906,7.3158,0.076358,0.058338,-0.065057
0.37177,0.8826,-1.6475,8.218,0.11332,0.06017,-0.046426
0.31787,1.3533,-1.5102,9.0417,0.14508,0.058032,0.024129
0.25772,1.2945,-1.471,9.5125,0.16463,0.0562,0.032376
0.19827,1.0787,-1.3533,9.787,0.15272,0.058643,0.027794
0.15109,0.92183,-1.5102,9.5125,0.086743,0.055283,0.03879
0.11496,0.90221,-1.5102,9.179,0.007025,0.044288,0.054978
0.099823,0.90221,-1.5298,9.8263,-0.050396,0.039095,0.053145
0.091217,0.86299,-1.3141,9.8263,-0.075442,0.03543,0.036041
0.084961,0.90221,-0.86299,9.6694,-0.076969,0.040012,0.029627
0.086609,0.80415,-0.80415,9.4928,0.24496,0.053145,-0.063225
0.095062,0.86299,-0.86299,9.1986,0.18204,0.13073,-0.047647
0.09787,0.74531,-0.94144,9.3752,0.19456,0.2135,-0.062003
0.095245,0.80415,-1.0003,9.434,0.26176,0.2587,-0.08827
0.084473,0.74531,-0.72569,9.434,0.35125,0.28711,-0.11057
0.053986,0.8826,-0.78453,9.1202,0.45082,0.32376,-0.11057
0.021454,0.90221,-1.0003,9.0417,0.54367,0.35552,-0.10965
-0.017914,0.66685,-0.8826,9.0417,0.60812,0.36988,-0.093157
-0.040192,0.5884,-0.80415,9.2771,-0.35064,0.10415,0.26603
-0.059998,0.66685,-0.72569,9.6301,-0.60537,0.02138,0.23671
-0.037292,0.8826,-1.216,9.3163,-0.80481,-0.10751,0.080023
-0.039246,1.3533,-1.824,8.8848,-0.8488,-0.23335,0.1237
-0.029327,1.3533,-1.6867,8.7083,-0.72082,-0.33567,0.18601
-0.032104,1.118,-1.0199,9.2575,-0.49114,-0.38637,0.24709
-0.037811,0.49033,-0.62763,9.4928,-0.022907,-0.37385,0.28466
-0.050415,0.80415,-0.62763,9.5321,-0.13378,-0.29566,0.28833
-0.083374,0.90221,-1.0395,8.9437,0.05284,-0.19059,0.17349
-0.10223,1.0395,-1.824,8.7083,-0.0012217,-0.11698,-0.048258
-0.12491,0.72569,-2.1378,8.7083,-0.10934,-0.073609,0.21655
-0.14551,0.54917,-1.3533,9.434,-0.10934,-0.029322,0.19792
-0.17001,0.17652,-0.72569,9.9439,0.14691,0.032987,0.1967
-0.19482,0.66685,-0.94144,9.5713,0.30146,0.19731,0.20861
-0.22357,1.216,-1.824,8.4926,-0.24068,0.478,0.23549
-0.25702,0.90221,-1.3533,8.7083,-0.043066,0.48167,0.27397
-0.26425,0.60801,-0.15691,9.6301,0.24343,0.079107,-0.064752
-0.27713,0.41188,0,10.415,0.14508,0.0064141,0.0033598
-0.29382,1.1376,-0.62763,9.8263,-0.036346,-0.059559,-0.021991
-0.30029,0.86299,-0.94144,8.9044,-0.21197,-0.097738,-0.052534
-0.31824,0.39227,-0.62763,8.7083,-0.26573,-0.088575,-0.093157
-0.33206,-0.45111,0.05884,9.689,-0.14875,-0.030849,-0.12981
-0.34167,-0.35304,-0.25497,9.5125,0.075442,0.053451,-0.14569
-0.35184,0.25497,-1.118,8.6299,0.2587,0.12065,-0.12339
-0.36639,0.98067,-2.2555,8.6299,-0.027794,0.12828,0.03879
-0.35562,1.2945,-2.687,9.6694,-0.17257,0.062919,0.044593
-0.33914,1.4906,-2.9812,10.101,-0.23152,-0.034514,0.035736
-0.34125,2.432,-1.824,8.6299,-0.20403,-0.093157,0.020464
-0.41412,2.2948,-0.37265,3.3735,-0.15211,-0.072388,-0.0042761
-0.52106,-1.0003,-1.1768,9.5125,-0.055894,-0.009163,0.0067195
-0.62616,0.5884,-3.0008,13.278,0.29383,0.058032,0.054672
-0.71417,2.9616,-0.86299,10.827,0.16799,0.11454,0.08094
-0.78833,1.4514,-0.098066,9.3359,0.34728,0.34819,-0.11026
-0.81378,1.4318,-3.0401,8.7868,0.060476,0.44471,0.092241
-0.80701,3.0989,-5.1387,7.9434,-0.1912,0.50305,0.21044
-0.75262,3.0793,-3.0793,8.0022,-0.32498,0.46395,0.21411
-0.68433,1.6867,-0.54917,8.6299,-0.28253,0.34697,0.15516
-0.64172,1.5102,-0.098066,9.1986,-0.058338,0.24435,0.046426
-0.64572,1.0395,-0.5884,8.8848,0.25045,0.22785,-0.099876
-0.67316,0.35304,-0.39227,9.3359,0.45387,0.25931,-0.19639
-0.70236,-0.98067,-0.31381,9.5713,-0.32926,-0.36835,-0.26389
-0.75363,-3.197,-0.52956,9.7282,-0.45051,-0.43097,-0.25473
-0.77396,-2.687,-0.96105,11.376,-0.46701,-0.38026,0.098655
-0.76709,-1.4906,-1.6475,8.9437,-0.44013,-0.26237,0.033598
-0.73981,-0.60801,-1.6671,7.0019,-0.38179,-0.10873,-0.028711
-0.69589,-0.70608,-1.471,5.7467,-0.22663,0.045815,-0.088575
-0.65091,0.19613,-0.90221,6.747,0.044899,0.20006,-0.14875
-0.59061,0.80415,-0.52956,10.356,0.36988,0.32223,-0.21472
-0.51865,1.0591,-0.49033,12.788,0.6295,0.39126,0.071166
-0.44653,1.6671,0.23536,11.944,0.75931,0.39034,0.066279
-0.36047,1.5887,1.2945,11.552,0.75075,0.31093,-0.19578
-0.27744,1.4318,-0.078453,10.16,0.60384,0.20861,-0.11881
-0.21024,1.9025,-0.94144,8.2572,0.39248,0.12248,-0.055894
-0.16818,2.0594,-2.4517,8.1787,0.098044,0.03146,0.0085521
-0.1145,2.0202,-4.0796,8.7279,-0.3036,-0.13317,0.059254
-0.03833,2.6478,-2.432,7.7865,-0.70921,-0.32437,0.076664
-0.0090637,1.9613,-0.23536,7.1589,-1.0861,-0.42669,0.031765
-0.065369,1.1376,0.31381,6.8254,-1.124,-0.4102,0.17013
-0.14606,-0.64724,-2.4124,8.5514,-1.0925,-0.36621,0.062919
-0.22263,0.49033,-4.1776,10.787,-0.93371,-0.35369,0.08491
-0.29614,-0.019613,-2.687,12.474,-0.56444,-0.30299,0.072388
-0.35403,-0.86299,-1.0199,9.1594,-0.10568,-0.17746,0.0027489
-0.39914,-1.6083,-0.11768,10.63,0.3146,0.024129,-0.030238
-0.41364,-1.0199,0.70608,10.199,0.49083,0.2251,-0.0562
-0.4155,-0.68647,-0.8826,6.4332,-0.011912,-0.49114,0.20128
-0.38681,-0.21575,-3.5304,6.5312,0.74251,-0.38423,0.16005
-0.32562,1.0199,-2.7851,8.4141,1.3302,-0.18295,-0.0033598
-0.23932,0.45111,-1.9809,11.14,1.4532,0.096822,-0.087048
-0.15366,1.4514,-1.5102,9.8066,1.2199,0.34667,-0.067195
-0.087585,2.0006,-2.0594,8.7475,0.72785,0.46242,0.082467
-0.046997,2.6086,-2.2555,8.6887,-1.0873,0.47403,0.17898
-0.017151,2.334,-2.2751,9.0417,-0.66706,0.35461,0.219
-0.0097351,2.0006,-1.9417,9.0613,0.85094,0.17593,-0.029932
-0.015747,1.5495,-1.3141,8.9437,0.24465,-0.062308,-0.055589
-0.013062,1.4318,-1.0395,9.0613,-0.37843,-0.3259,-0.022907
-0.021332,1.1964,-1.8829,9.4732,-0.80848,-0.53237,-0.027489
-0.035034,0.80415,-2.1967,9.6301,-0.98166,-0.61331,-0.083078
-0.057831,0.74531,-1.0199,10.532,-0.9218,-0.53939,-0.15272
-0.093445,-0.078453,0.86299,11.356,-0.66065,-0.36438,-0.17929
-0.18246,0.23536,-0.098066,10.219,-0.3992,-0.19823,-0.13408
-0.24176,1.3533,-1.5691,9.8851,0.24618,-0.071166,0.28436
-0.26782,2.5497,-1.7456,6.8254,0.48167,0.098349,0.3485
-0.26141,3.0793,-2.3732,5.7663,0.60262,0.29322,-0.12339
-0.24768,2.3732,-2.2948,6.492,0.58979,0.45968,-0.059559
-0.22961,0.74531,-1.7456,7.2373,0.41172,0.56047,0.036957
-0.22678,-0.039227,-0.80415,8.6887,0.15333,0.6185,0.11057
-0.23373,-0.68647,-0.098066,9.179,-0.24709,0.60842,0.14661
-0.26102,-2.2359,-2.4124,10.768,-0.029932,0.50824,0.19181
-0.2674,-1.1572,-3.0008,12.925,0.12798,0.36011,0.18326
-0.25946,-0.19613,-0.49033,11.572,0.18754,0.14569,0.089186
-0.27658,-0.86299,0.31381,8.0807,-0.0097738,-0.036346,0.26084
-0.30188,-0.39227,-1.0199,5.9036,-0.36927,-0.10934,0.15027
-0.31076,1.0983,-2.6282,7.3354,-0.77,-0.18082,0.15027
-0.2897,1.3533,-1.9809,9.3163,-1.0901,-0.27642,0.15241
-0.26563,1.2945,-0.019613,10.297,0.0088575,-0.3766,0.17929
-0.21616,0.49033,1.2945,12.396,0.026573,-0.46884,0.22602
-0.16025,0.25497,0,11.846,0.25473,0.081856,-0.19517
-0.10092,0.8826,-1.3533,9.2575,0.281,0.058032,-0.19853
-0.051636,0.74531,-2.1967,8.4141,0.24251,0.022602,-0.021686
-0.0071106,1.3533,-4.2953,7.2373,0.18173,-0.013744,-0.024129
0.051117,2.4517,-4.0011,6.4332,0.11637,-0.024129,-0.038179
0.16681,1.4514,-2.2948,7.4923,0.04215,-0.0067195,-0.078191
0.24869,1.216,-1.0983,8.0218,0.0054978,-0.0018326,-0.12156
0.29175,0.86299,-1.6867,8.5514,0.07025,0.020159,-0.15852
0.32245,0.56879,-2.0594,9.1594,0.3372,0.084605,-0.02138
0.34671,0.80415,-1.5298,10.12,0.45723,0.15363,0.013134
0.3494,0.49033,-1.2553,10.375,0.49266,0.20281,-0.17287
0.34885,1.0395,-1.5298,9.5125,0.4273,0.22663,-0.14478
0.34109,0.56879,-1.2553,9.5321,0.27672,0.24007,-0.1182
0.34775,0.66685,-0.78453,10.591,0.12523,0.24893,-0.083994
0.33069,0.74531,-0.94144,10.454,0.064446,0.23732,-0.057421
0.31174,1.216,-1.118,9.5713,0.079107,0.22113,-0.037263
0.26956,1.1376,-1.5691,9.0025,0.12248,0.1741,-0.046426
0.23264,0.98067,-1.4906,8.8652,0.22297,0.09163,-0.067195
0.19662,0.72569,-1.2553,8.8064,0.24923,0.065057,0.072998
0.16339,0.39227,-1.0199,8.8652,0.13592,0.063225,0.091019
0.12091,0.17652,-1.1768,8.3945,-0.063835,0.031765,0.081856
0.081055,-0.05884,-1.3533,9.5321,-0.4383,-0.057421,0.053145
0.028259,-0.23536,-2.4124,9.434,-0.85216,-0.19151,0.021075
-0.035492,0.098066,-2.2751,9.6694,-1.1032,-0.34361,-0.013744
-0.095154,-0.70608,-1.1768,11.219,-1.0889,-0.41142,0.197
-0.13104,0.25497,-0.05884,9.0221,-0.81337,-0.35247,0.1744
-0.18048,1.3337,-0.72569,5.7663,-0.354,-0.21625,-0.083078
-0.22778,0.74531,-1.8044,6.1193,0.11484,-0.029016,-0.077885
-0.2619,0.90221,-1.9809,8.0807,0.46059,0.14813,-0.037568
-0.26935,0.64724,-1.8437,9.5713,0.6918,0.29413,0.023824
-0.23431,-0.05884,-1.4318,11.16,0.80359,0.36713,0.081856
-0.20016,0.19613,-0.23536,12.631,0.83108,0.35552,0.15333
-0.17892,0.39227,-0.54917,13.043,-0.28466,0.048564,0.036346
-0.13223,1.2945,-0.86299,10.768,-0.25473,0.032987,0.045509
-0.092346,1.9613,-0.86299,9.4928,-0.18326,0.071471,0.0039706
-0.077789,1.8044,-1.1964,8.4141,-0.07422,0.12737,-0.011912
-0.067627,1.9613,-1.8437,7.3746,0.044288,0.15974,-0.011912
-0.05014,1.6083,-2.432,7.5511,0.12278,0.17043,0.015272
-0.0075989,1.6867,-1.5102,7.963,0.14172,0.15699,0.037874
0.061951,0.76492,-1.1572,8.5514,0.11423,0.12462,0.041233
0.11533,0.54917,-1.0983,8.6299,-0.11179,0.085216,0
0.17538,0.2942,-1.5691,8.6299,-0.21197,0.051618,0.0033598
0.23483,0.66685,-1.9809,8.218,-0.28222,0.043371,0.046426
0.27982,0.43149,-2.2948,7.8649,-0.27642,0.047037,0.033598
0.30759,0.54917,-2.0594,8.3945,-0.23427,0,0.035736
0.31964,0.27459,-1.6475,9.3163,-0.10629,-0.082772,0.056505
0.33316,0.17652,-1.3533,9.3359,0.050396,-0.14447,0.076664
0.34213,-0.05884,-1.1572,9.1986,-0.03146,-0.20097,0.017104
0.34686,0.19613,-1.6867,9.0417,-0.090103,-0.2248,-0.082772
0.37759,0.74531,-1.9025,8.9044,-0.27275,-0.23091,-0.032376
0.39554,0.13729,-1.7456,9.0417,-0.44838,-0.2642,-0.062003
0.41037,0.35304,-1.3337,9.5713,-0.5455,-0.31124,-0.052229
0.40857,0.19613,-1.0199,9.8066,-0.55161,-0.35308,-0.051313
0.41132,0.8826,-1.1768,9.6694,-0.46273,-0.3317,-0.097738
0.41342,0.5884,-1.1572,10.12,-0.0012217,-0.26328,-0.12248
0.43704,0.56879,-2.4124,10.513,0.029932,-0.17623,-0.1182
0.47247,0.66685,-3.1381,10.513,-0.1069,0.12828,0.00061087
0.54443,1.6083,-2.0594,10.591,0.066279,0.19273,0.0042761
0.60327,1.5298,-0.94144,9.8851,0.15913,0.219,-0.048564
0.61179,2.0006,-0.86299,8.1199,0.1408,0.20922,-0.020159
0.55984,2.1575,-1.0591,7.1589,0.050091,0.18448,-0.011606
0.44955,1.5102,-1.5102,7.1785,-0.065973,0.15821,-0.015577
0.33218,0.76492,-2.6086,8.3945,-0.18051,0.13042,-0.0082467
0.23892,1.5298,-2.9224,8.9437,-0.26114,0.08827,0.0009163
0.18884,1.3925,-2.432,9.1202,0.2138,0.29932,-0.075136
0.15582,1.1768,-2.3144,8.8064,-0.14233,0.083383,-0.053145
0.12567,1.0395,-2.2948,7.7865,-0.551,-0.17074,-0.059559
0.071747,0.74531,-2.2751,8.3749,-0.93371,-0.37935,-0.11179
0.030121,0.56879,-1.8829,9.0417,-1.1567,-0.53023,-0.11912
0.00076294,0.27459,-1.5298,9.1202,-1.0794,-0.66584,-0.072388
-0.031738,0.66685,-0.80415,8.7083,-0.72632,-0.7199,-0.019242
-0.086731,0.13729,-0.74531,8.1003,-0.25656,-0.63683,-0.02474
-0.13928,0.039227,-1.471,9.0417,0.10049,-0.46853,-0.19456
-0.16681,0.23536,-2.1575,10.827,0.2697,-0.31948,-0.18357
-0.22696,0.098066,-2.6282,9.8851,0.29871,-0.22724,0.026573
-0.31766,0.019613,-2.2163,9.5713,0.24312,-0.20311,0.082161
-0.41473,-0.68647,-1.3141,11.454,0.19151,-0.21716,0.1127
-0.51178,0.90221,-0.25497,9.1202,0.20678,-0.21808,0.055589
-0.60004,0.5884,-1.118,6.6097,0.29169,-0.17898,-0.067806
-0.64694,1.2356,-3.1381,8.7279,0.40561,-0.1014,-0.15913
-0.65405,2.2359,-3.7265,8.9437,0.5171,-0.0064141,-0.078191
-0.64709,2.2948,-2.432,6.747,0.44838,0.10232,-0.040623
-0.63678,0.39227,-2.589,9.2183,0.47709,0.20159,-0.15455
-0.64563,-2.2751,-3.0008,13.729,0.44685,0.28527,-0.12706
-0.62912,0.17652,-0.62763,12.082,0.39554,0.3317,-0.11332
-0.62564,0.078453,0.078453,8.1199,0.35186,0.3375,-0.12065
-0.60703,-0.64724,-2.4517,6.6685,0.35491,0.32773,-0.13164
-0.58667,0.66685,-3.3931,7.1589,0.42272,0.32193,-0.11179
-0.52692,0.66685,-3.2362,8.2768,-0.88545,-0.32345,0.18906
-0.43839,0.56879,-2.9028,8.8064,-0.62308,-0.30146,0.029627
-0.34,1.2945,-3.0008,8.4926,-0.28283,-0.19364,-0.041539
-0.21436,2.0006,-2.7851,8.4337,0.047037,-0.036041,-0.05284
-0.1019,2.1771,-2.0594,8.6299,0.25931,0.12248,0.043677
-0.017761,1.824,-1.118,8.1787,0.40775,0.29474,0.15058
0.030884,1.6475,-0.96105,8.0807,0.60781,0.43371,0.22297
0.051239,1.0591,-1.471,8.7083,0.6127,0.43677,0.27428
0.041901,1.2749,-1.9809,9.6301,0.058338,0.15088,0.0030543
0.050293,0.64724,-2.0398,10.199,0.002138,0.16341,-0.012828
0.054047,0.56879,-1.824,9.9439,-0.090408,0.16035,-0.089492
0.057892,0.98067,-1.0983,9.5713,-0.18815,0.12981,-0.059254
0.04187,0.49033,-0.47072,9.1202,-0.23121,0.069639,-0.023213
0.014191,0.43149,-0.56879,9.0417,-0.21961,0.00061087,0.011301
-9.1553e-05,0.98067,-1.216,9.2575,0.045815,-0.043066,0.029627
-0.015961,1.118,-2.0986,9.2771,0.071777,-0.028405,0.02474
-0.025909,1.4514,-2.0594,9.434,-0.072693,0.018021,0.034514
-0.024078,0.90221,-1.6867,9.6694,0.015577,0.057421,0.021686
-0.023254,0.74531,-1.1964,9.4928,0.024129,0.073304,-0.015577
-0.024139,0.8826,-1.3533,9.2771,-0.039401,0.074831,0.0058032
-0.031433,1.0395,-1.9809,8.7279,-0.10263,0.045509,0.039401
-0.015747,1.2356,-2.7851,8.3749,-0.12095,-0.016188,0.060476
-0.0073853,0.92183,-2.2555,8.7868,-0.19028,-0.078802,0.058032
0.0016174,0.54917,-1.0199,9.3163,-0.14905,-0.10263,0.047953
0.020111,0.41188,-0.80415,9.2967,-0.078191,-0.067806,-0.073609
0.0054016,0.92183,-1.5102,8.8652,0.061697,-0.0048869,-0.099571
-0.015411,0.90221,-1.5298,8.4141,0.18357,0.051007,-0.076664
-0.041595,0.60801,-1.0591,8.5318,0.219,0.057727,-0.065668
-0.068359,0.66685,-1.0199,9.0613,0.14936,0.019853,-0.033598
-0.10272,0.86299,-1.4122,9.1202,-0.0054978,-0.042761,-0.0073304
-0.13031,1.0591,-1.4318,9.179,-0.19059,-0.10324,-0.0012217
-0.15625,1.0395,-0.72569,9.7282,-0.31185,-0.13103,-0.028405
-0.17587,0.56879,-0.31381,9.9047,-0.12523,-0.098655,-0.096517
-0.16537,0.66685,-0.94144,9.6301,-0.088575,-0.02474,-0.098044
-0.16013,1.2356,-1.726,9.179,-0.099266,0.043982,-0.084299
-0.15625,0.98067,-1.726,9.0221,-0.10537,0.067195,-0.061697
-0.16574,0.74531,-1.118,9.5125,-0.06689,0.061392,-0.052229
-0.18646,0.43149,-0.80415,9.8851,-0.00061087,0.061392,-0.057116
-0.21039,0.76492,-1.3729,9.5125,-0.31001,0.087048,-0.073304
-0.23132,0.98067,-1.7456,9.1594,-0.21655,0.12278,-0.089797
-0.24738,1.0591,-1.8829,8.3357,0.70738,0.56841,-0.043677
-0.24915,0.35304,-2.0986,8.8652,0.58185,0.3375,-0.070555
-0.24469,0.72569,-1.4318,9.5713,0.25504,0.085521,0.089186
-0.2486,0.60801,-1.4906,9.5125,-0.07025,-0.16188,0.018021
-0.25546,0.80415,-1.0591,9.5125,-0.32742,-0.39798,0.12248
-0.26721,1.0395,-0.56879,9.6497,-0.51129,-0.59651,0.17196
-0.25269,1.1964,-0.31381,8.2572,-0.55864,-0.69852,0.135
-0.26016,0.41188,-1.4318,8.4337,-0.47189,-0.69211,0.036652
-0.26035,-0.86299,-2.9028,10.16,-0.50305,-0.47312,0.051618
-0.24496,0.13729,-2.2948,10.925,0,-0.31032,0.072998
-0.27106,0.25497,-0.94144,9.8459,0.43066,-0.11423,-0.15272
-0.29529,0.70608,-1.3533,8.5514,0.60079,0.015577,-0.08827
-0.32526,1.0591,-3.3146,8.218,0.54581,0.061392,0.03879
-0.34235,2.1771,-2.4124,8.2768,0.38149,0.071166,0.10018
-0.35025,1.6671,-0.94144,8.4141,0.18265,0.076358,0.095295
-0.36157,1.7064,-0.56879,8.8652,0.020769,0.075136,0.065973
-0.38992,1.6867,-0.86299,8.1787,0.10018,0.10171,0.074526
-0.47644,1.4514,-1.8829,5.276,0.44349,0.23549,0.18876
-0.53955,-0.37265,-2.3144,10.101,0.69547,0.43158,0.10751
-0.58649,0.2942,-1.824,12.494,0.90316,0.4386,0.073915
-0.61084,0.80415,1.0003,9.9832,0.9896,0.34697,-0.040928
-0.63425,-0.21575,1.6279,8.2572,0.7758,0.25626,-0.083383
-0.6459,0.23536,-1.3729,8.2572,0.36713,0.20678,-0.039401
-0.63629,1.9809,-3.6285,7.5511,-0.12065,0.15241,-0.012828
-0.60092,2.4909,-1.5887,5.6682,-0.63805,0.052534,0.18112
-0.54727,-2.0202,-1.5691,10.611,-0.99815,-0.13134,0.20892
-0.50101,-0.35304,-1.4318,13.886,-0.96761,-0.29902,0.21411
-0.44983,0.66685,-1.0199,13.396,-0.6072,-0.29535,0.12431
-0.41464,1.0787,-1.3533,11.042,-0.12126,-0.11332,0.0042761
-0.38187,2.1771,-1.8829,8.1787,0.2306,0.25779,-0.075136
-0.33939,2.2948,-2.1967,7.0608,0.44288,0.67195,-0.03207
-0.29919,1.7456,-1.6279,7.8453,0.61758,0.77,0.10965
-0.255,1.5298,-1.118,8.7083,0.078191,0.23885,-0.017104
-0.18869,1.4318,-1.2945,8.9044,0.15272,0.23091,-0.024435
-0.14755,1.3533,-1.3533,8.5318,0.16829,0.19028,0.0076358
-0.10025,1.2945,-1.1768,8.4141,0.16096,0.14569,0.011912
-0.054718,0.96105,-0.78453,8.7475,0.15088,0.13195,0.0012217
-0.0014648,0.72569,-0.68647,8.8064,0.11301,0.15394,-0.010996
0.050232,0.90221,-0.31381,9.0417,0.067806,0.16371,-0.015577
0.10571,0.74531,-0.39227,8.6299,0.077274,0.1744,-0.014355
0.1337,0.5884,-0.86299,8.5318,0.21533,0.21838,-0.015577
0.14755,0.43149,-1.6475,8.4141,0.43982,0.28955,-0.10599
0.14127,0.56879,-1.824,9.0417,0.62125,0.3488,-0.014661
0.13074,0.41188,-1.3141,10.003,0.70555,0.35003,0.023518
0.10681,0.098066,-0.80415,10.101,0.70585,0.34239,0.056505
0.075806,0.56879,-0.70608,9.5713,0.60567,0.34606,0.045204
0.044769,0.74531,-0.5884,8.8652,0.43677,0.30665,0.034819
0.0069885,0.49033,-1.118,8.5514,0.26817,0.21991,0.03543
-0.046234,0.54917,-0.86299,9.8851,0.58246,0.18387,-0.15272
-0.082977,0.60801,-0.86299,10.12,0.72754,0.18662,-0.17715
-0.12183,1.0591,-0.72569,9.5125,0.79962,0.18906,-0.13744
-0.14783,0.5884,-1.4318,10.12,0.75961,0.1967,-0.15027
-0.14206,0.90221,-1.471,10.885,0.60262,0.20525,-0.146
-0.12891,0.90221,-0.72569,10.219,0.48839,0.17654,-0.10415
-0.12061,0.56879,-0.27459,9.4732,0.27855,0.13653,-0.077274
-0.11179,0.35304,-0.78453,9.1594,0.41936,0.1011,-0.092241
-0.093689,-0.2942,-0.84337,9.7282,0.36805,0.085521,0.024129
-0.067444,-0.49033,-0.019613,9.8459,0.16341,0.078802,0.015272
-0.02243,-0.05884,0.23536,10.062,-0.12187,0.030849,-0.15547
-0.0064697,1.3729,0.23536,9.3555,-0.50641,-0.070555,-0.11209
-0.0028687,1.824,-0.86299,8.1787,-0.94195,-0.17196,-0.096517
-0.0010376,2.9616,-3.197,7.3158,-1.335,-0.24496,-0.1069
0.032349,3.3735,-4.2561,8.2572,0.47525,-0.33781,-0.069639
0.12183,3.0989,-2.687,9.1202,0.46976,-0.46884,-0.014355
0.21439,2.1575,-1.1768,8.4141,-0.13347,0.011301,-0.032376
0.27765,1.7652,-1.2553,7.3746,-0.11026,0.03207,-0.021075
0.29202,1.0395,0.13729,6.8254,-0.10812,0.015882,0.085521
0.25946,-0.80415,0.45111,8.5906,-0.11606,-0.015882,0.045204
0.20651,-1.216,0,8.7083,-0.13622,-0.050091,0.027794
0.1532,-1.471,-0.25497,10.003,-0.1799,-0.088881,0.00030543
0.10806,-1.4514,-0.8826,10.258,-0.22694,-0.13164,-0.030543
0.052032,-0.27459,-1.3337,9.0613,-0.24007,-0.17287,-0.040317
-0.0066223,-0.90221,-0.86299,8.9437,-0.16707,-0.19548,-0.076969
-0.075195,-2.1575,-1.5887,12.023,-0.13011,-0.19059,-0.10018
-0.1329,-0.21575,-1.4318,11.003,-0.10873,-0.17318,-0.022297
-0.18185,0.90221,-0.27459,8.7083,-0.083383,-0.14875,-0.023824
-0.26035,0.41188,-0.33343,7.7865,-0.054672,-0.12645,-0.012828
-0.32333,0.17652,-1.5102,7.7473,-0.049175,-0.10751,-0.0067195
-0.35504,0.098066,-2.2948,9.5713,-0.067806,-0.094073,-0.022297
-0.35092,0.2942,-2.6086,10.375,-0.092241,-0.080329,-0.049786
-0.30032,0.49033,-2.2555,10.591,-0.10476,-0.060781,-0.076664
-0.22287,1.1768,-1.8044,9.8851,-0.09499,-0.027489,-0.063835
-0.13046,1.1964,-1.5102,9.5125,-0.08094,0.018326,-0.1179
0.0062866,1.4514,-1.6475,9.179,-0.07086,0.054062,-0.12004
0.11929,1.118,-1.5298,8.8848,-0.066584,0.06689,-0.10721
0.1922,1.3925,-1.4318,8.7083,-0.075442,0.076053,-0.092852
0.25153,1.6083,-1.5691,8.7083,-0.099876,0.08491,-0.087354
0.28464,1.9025,-1.8829,8.7279,-0.12859,0.080634,-0.084299
0.29941,1.824,-1.824,8.7083,-0.15272,0.072998,-0.026267
0.32333,1.3533,-1.8437,8.7475,-0.1631,0.064446,-0.017715
0.34393,1.2945,-1.726,8.7475,-0.14813,0.042455,-0.043982
0.35846,0.98067,-1.7456,8.8064,-0.11026,0.01405,-0.037263
0.36621,0.35304,-1.9809,8.8848,-0.069944,-0.015272,-0.048869
0.36743,0.098066,-2.3732,9.3752,-0.04948,-0.045509,-0.052229
0.37601,-0.078453,-2.2948,9.5321,-0.061087,-0.071777,-0.040012
0.3761,0.35304,-1.7456,9.1594,-0.088881,-0.093157,-0.031765
0.34573,0.39227,-1.6279,8.8848,-0.32132,0.18418,-0.073304
0.32355,0.41188,-1.471,8.7868,-0.60415,-0.096211,-0.062003
0.31274,0.35304,-1.5102,9.0025,-0.67378,-0.35797,0.047647
0.27615,0.41188,-1.5691,9.2575,-0.55741,-0.46426,0.0281
0.25571,0.5884,-1.824,9.1986,-0.31368,-0.45815,-0.018021
0.23904,0.98067,-2.1575,9.1594,-0.039095,-0.3992,-0.0051924
0.20337,1.0199,-2.0594,9.1006,0.4499,-0.30879,-0.0082467
0.17017,1.1964,-1.7456,8.8652,0.11026,-0.19059,-0.045204
0.13477,1.1964,-1.8437,8.9044,0.33139,-0.059865,-0.093157
0.12051,1.3925,-2.2163,8.8652,0.20372,0.021991,-0.10629
0.10831,1.2356,-2.0006,8.5514,0.0097738,0.030849,-0.01741
0.10825,1.3337,-1.4906,8.7083,-0.20708,-0.013134,0.002138
0.11157,1.1768,-1.5691,8.4729,-0.3769,-0.074526,0.010996
0.11343,1.0591,-2.3144,8.8652,-0.4554,-0.14844,0.0073304
0.12097,1.216,-2.6086,8.6887,0.21564,-0.21564,-0.023518
0.092407,0.66685,-2.8243,8.8652,0.35247,-0.2532,-0.062614
0.0080261,-0.05884,-2.8832,8.0807,-0.26573,-0.2587,-0.077274
-0.10864,-1.4514,-1.4318,12.258,-0.18448,-0.23702,-0.10354
-0.24506,-0.13729,-0.72569,11.768,-0.12309,-0.19242,-0.10201
-0.37354,0.17652,-1.1768,8.0807,-0.099876,-0.13744,-0.085827
-0.47101,-0.13729,-1.5102,6.8254,-0.12584,-0.088881,-0.069333
-0.53735,0.41188,-1.8044,7.3158,-0.17043,-0.060781,-0.055894
-0.57199,0.35304,-1.7456,8.8652,-0.43952,-0.055589,-0.048869
-0.55835,0.25497,-1.6867,9.9636,-0.36041,-0.059254,-0.054367
-0.5123,0.35304,-1.8829,9.9832,-0.1741,0.050396,0.13408
-0.44348,0.90221,-2.1967,9.1986,-0.16249,0.080634,0.085216
-0.34778,1.1768,-2.3144,8.7475,-0.079412,0.14722,0.064446
-0.23868,1.2945,-2.3144,8.6887,0.026573,0.2306,0.08827
-0.12265,1.3925,-1.9025,8.3945,0.096822,0.29474,0.13225
-0.02002,1.4318,-1.824,8.5514,0.2193,0.31032,0.16066
0.076019,1.5495,-2.3144,8.316,0.47098,0.37996,0.17043
0.16754,1.8633,-2.687,8.6887,0.60781,0.37507,0.15363
0.26221,1.9025,-2.432,8.8064,0.10293,0.10415,-0.018631
0.35052,1.6475,-2.1967,8.9044,0.050396,0.10507,0.0051924
0.40317,1.0787,-1.6475,9.0025,-0.01405,0.096517,-0.040623
0.41785,0.76492,-1.824,9.3752,-0.07025,0.08094,-0.03146
0.40848,1.0395,-2.4713,9.5125,-0.10385,0.060781,-0.025962
0.37817,1.1964,-2.687,9.179,-0.082772,0.042761,-0.018326
0.34705,1.3729,-2.5105,8.9437,-0.018021,0.045204,-0.022602
0.29166,1.2945,-2.0594,8.826,0.040317,0.061697,-0.030238
0.24341,0.90221,-1.7456,9.1202,0.062919,0.073609,0.014661
0.20743,0.90221,-1.5495,9.4732,0.041539,0.061392,0.01741
0.16925,1.0395,-1.6475,9.434,-0.0039706,0.026878,0.025045
0.13998,1.0395,-1.9809,9.0025,-0.046731,-0.017104,0.032987
0.11981,1.2749,-1.7848,8.8456,-0.067195,-0.050702,0.028405
0.097626,1.3337,-1.3533,8.9044,-0.062308,-0.058948,0.016799
0.074005,1.1964,-1.3533,8.7083,-0.047647,-0.053451,0.0088575
0.062744,1.3337,-1.7456,8.7868,-0.025962,-0.037263,0.010996
0.057037,1.3337,-1.9809,8.8064,0.20311,-0.040012,-0.012523
0.062042,1.216,-1.9025,8.8652,0.2361,-0.01741,-0.026573
0.065918,0.86299,-1.8044,8.9437,0.24862,0.012217,0.050091
0.051575,1.1768,-1.9417,8.8064,0.21564,0.026267,0.054367
0.039307,0.92183,-1.6475,8.9044,0.14386,0.025962,0.049175
0.017761,1.0395,-1.3533,8.9437,0.070555,0.024129,0.038179
0.025024,0.66685,-1.3533,9.3359,0.030238,0.027184,0.023213
0.034515,0.80415,-1.7456,9.1006,0.033598,0.036652,0.0067195
0.055664,0.90221,-1.6867,9.1986,0.080023,0.058643,-0.058032
0.077271,0.74531,-1.4122,9.5713,0.13164,0.082772,-0.053145
0.089691,0.66685,-1.2749,9.6301,0.17196,0.10049,-0.030238
0.12369,0.90221,-1.4122,9.5125,0.19761,0.11087,-0.040317
0.13089,0.90221,-1.5691,9.2575,0.19792,0.10873,-0.038485
0.15631,0.80415,-1.3729,9.179,0.18265,0.098349,-0.033903
0.16559,0.86299,-1.2553,9.0417,0.16463,0.091324,-0.041844
0.18546,0.90221,-1.5691,9.2575,0.14813,0.09499,-0.05284
0.21866,0.8826,-1.7456,9.434,-0.092241,0.032681,-0.056505
0.24353,1.0395,-1.6279,9.2575,-0.087659,0.0073304,-0.043677
0.29578,0.86299,-1.4318,9.2575,-0.048564,0.0024435,-0.047647
0.30988,0.90221,-1.7456,8.8848,0.0045815,0.0076358,-0.05284
0.31046,1.0591,-1.5691,8.8652,0.047647,0.014355,-0.058948
0.2825,1.2356,-1.6475,8.8064,0.062308,0.025962,-0.062308
0.24164,1.5298,-1.824,9.0613,-0.014966,0.036652,-0.059254
0.20554,1.3337,-2.432,8.9044,-0.059865,0.037263,-0.060476
0.16766,1.5102,-2.7262,8.4141,-0.035736,0.022907,-0.018937
0.13828,1.0395,-2.0006,8.8456,0.023824,-0.0058032,-0.027184
0.10934,0.43149,-0.94144,9.8263,-0.040928,-0.039401,-0.032987
0.074738,0.35304,-0.86299,10.003,-0.10965,-0.061087,-0.027489
0.031403,0.49033,-1.4122,9.2771,-0.15302,-0.062308,-0.025045
-0.0097656,0.80415,-1.7456,8.8652,-0.15913,-0.04612,-0.024129
-0.047272,0.54917,-1.4318,9.0417,-0.12401,-0.022297,-0.025351
-0.086609,0.39227,-0.96105,9.3555,-0.076358,0.0045815,-0.020159
-0.1329,0.80415,-0.90221,9.3359,0.13408,-0.030238,0.019548
-0.17914,1.2945,-1.1964,8.8848,0.10354,-0.040012,0.019853
-0.20483,1.3533,-1.5691,8.6299,0.014661,-0.065973,0.018326
-0.23834,1.118,-1.824,8.5514,-0.091019,-0.090408,0.026878
-0.2565,0.98067,-2.0006,8.4926,-0.17746,-0.10049,0.034514
-0.27121,0.98067,-2.0398,8.9044,-0.21655,-0.085216,0.038179
-0.27774,0.90221,-2.0398,9.0613,-0.22694,-0.047953,0.031154
-0.26993,0.8826,-1.824,9.4928,-0.22724,-0.0024435,0.023213
-0.26151,0.92183,-1.8437,9.3752,-0.094379,0.038485,-0.0281
-0.25092,1.216,-1.9613,9.0025,-0.029016,0.068111,-0.037263
-0.23608,1.0199,-2.0006,8.9437,0.019548,0.09499,0.013744
-0.22348,0.90221,-1.6475,9.0417,0.050091,0.11637,0.0054978
-0.19983,1.0787,-1.3729,9.3752,0.055283,0.12034,0.0018326
-0.18478,1.0199,-1.3533,9.3359,0.029016,0.11118,-0.0079412
-0.16302,0.86299,-1.6475,9.1986,-0.20647,0.093157,-0.023518
-0.15356,1.118,-1.8829,8.8848,-0.15974,0.065668,-0.029016
-0.12476,1.1964,-1.6671,8.8064,-1.6115,-0.54611,0.27122
-0.085968,0.98067,-1.7456,9.0417,-1.044,-0.52687,0.28039
-0.045807,1.118,-1.4318,9.1986,-0.32681,-0.46151,0.026573
-0.020966,1.118,-1.3729,9.1986,0.44624,-0.33445,0.017104
0.0029297,0.92183,-1.6475,9.0417,1.15,-0.15272,0.028711
0.02594,1.0199,-1.6867,8.6299,1.6964,0.030543,0.086132
0.036804,0.80415,-1.6475,8.9633,2.0018,0.18051,0.17135
0.04776,0.90221,-1.7456,9.434,2.036,0.2868,0.24343
0.056122,0.76492,-1.6671,9.5125,-0.15027,-0.13378,0.022602
0.063843,0.56879,-1.5102,9.5125,-0.10782,-0.11454,0.015882
0.071014,0.54917,-1.5691,9.3555,-0.067501,-0.082772,-0.036041
0.063477,0.56879,-1.7848,9.179,-0.10263,-0.069639,-0.020769
0.049622,0.70608,-2.0006,9.0417,-0.24862,-0.064752,0.00061087
0.037811,0.76492,-1.9417,8.7279,-0.50671,-0.046426,0.020464
0.017334,1.0199,-1.7848,8.6495,-0.85735,-0.021075,0.030238
-0.00073242,1.1964,-1.5102,8.9633,-1.2947,-0.0082467,0.031154
-0.0083313,1.5298,-1.3533,8.8848,-2.1145,-0.069639,-0.21594
0.0040588,1.2945,-1.0395,8.2572,-2.4804,-0.20342,-0.13744
0.062897,0.90221,-1.5102,8.6299,-2.6548,-0.36744,0.00030543
0.16211,0.74531,-3.6677,9.5713,-2.5943,-0.52931,-0.034514
0.32123,1.2356,-5.9624,9.3555,-2.3411,-0.61911,-0.092852
0.49667,2.3732,-5.2564,8.5514,-1.985,-0.59498,-0.17837
0.62662,1.824,-3.2166,8.4141,-1.6692,-0.4777,-0.26328
0.70441,1.5298,-2.0986,8.5514,-1.5064,-0.3485,-0.28191
0.72742,2.0006,-2.5105,8.2572,-1.5333,-0.28924,-0.042761
0.69687,2.1575,-3.0793,8.0807,-1.6967,-0.32467,0.011301
0.66199,2.432,-3.7658,7.61,-1.8995,-0.42638,-0.1179
0.62604,2.0006,-4.8641,6.8254,-2.0553,-0.5174,-0.14478
0.57242,2.3732,-6.3743,5.9036,-2.1356,-0.56291,-0.17685
0.52753,2.4517,-6.5901,6.0213,-2.1564,-0.57391,-0.18295
0.478,1.6083,-5.9624,6.845,-2.1108,-0.56291,-0.15455
0.40839,1.3337,-4.158,7.2373,-1.9618,-0.55222,-0.10568
0.30386,0.90221,-2.9224,7.0216,1.3387,0.67165,0.2135
0.16559,0.70608,-2.9812,7.1589,1.1936,0.71716,0.26053
0.014923,1.4318,-3.8638,7.4334,1.0458,0.72265,0.073304
-0.12491,2.2359,-5.2564,7.4923,0.90958,0.67378,0.11881
-0.23535,2.7655,-5.9232,7.8061,0.76572,0.58735,0.14447
-0.32297,2.4909,-4.9426,8.2572,0.60934,0.50121,0.15058
-0.39636,2.4517,-3.4519,8.8064,0.49236,0.42822,0.146
-0.45715,2.5497,-2.3144,9.0417,0.4105,0.37629,0.16677
-0.49805,2.0594,-1.8437,8.8848,0.30543,0.30238,0.010996
-0.53021,1.9613,-2.9028,8.6495,0.15669,0.197,0.022602
-0.57236,2.942,-4.0207,8.0807,-0.0094684,0.085216,0.29047
-0.59439,3.6873,-3.3931,8.1199,-0.045204,0.010996,0.24618
-0.61978,2.8439,-1.8829,8.316,0.18815,0.067195,0.17043
-0.63614,1.3533,-0.62763,7.5511,0.54489,0.18265,0.094379
-0.65622,0.039227,-0.62763,8.0807,0.72357,0.20128,0.029627
-0.63705,-1.1572,-2.0398,8.9437,0.65637,0.11087,0.016799
-0.6178,-1.5298,-2.8832,9.4928,-0.48136,-0.060476,-0.21716
-0.6113,-1.6475,-3.0008,10.454,-0.79443,-0.18143,-0.1576
-0.59549,-0.82376,-3.5696,9.2575,-0.81092,-0.26817,0.0094684
-0.64853,0.25497,-3.2362,7.61,-0.50335,-0.34117,-0.028405
-0.70496,-1.1572,-1.8829,11.14,-0.078191,-0.36988,-0.078496
-0.76001,-0.05884,-0.25497,11.219,0.28222,-0.30421,-0.13256
-0.81802,0.17652,-0.54917,8.8652,0.32987,-0.17532,-0.18937
-0.87427,-0.05884,-1.8829,7.4531,-0.073304,-0.037263,-0.2251
-0.89398,0.80415,-2.9028,7.5511,0.28527,0.047953,-0.13867
-0.86279,1.216,-2.687,9.3163,-0.0012217,0.044288,-0.12981
-0.80804,0.49033,-1.824,10.474,-0.32803,-0.026878,-0.081245
-0.72882,0.60801,-1.0591,10.454,-0.61789,-0.13989,-0.039095
-0.63187,0.98067,-1.1572,9.5713,-0.7981,-0.27122,-0.030849
-0.55099,1.3925,-1.8437,8.6299,-0.81673,-0.38882,-0.046731
-0.4642,1.9221,-2.5105,8.0022,0.4664,-0.46151,-0.088575
-0.37732,2.1182,-2.1378,7.9434,0.45662,-0.46548,-0.12584
-0.28839,1.824,-1.8437,8.4729,0.19914,0.14172,0.030238
-0.18735,1.3337,-2.6086,9.1202,0.11545,0.11668,0.03543
-0.10361,1.824,-2.6086,8.7083,0.028405,0.081551,0.029016
-0.064484,2.2751,-2.1575,8.5906,-0.036346,0.055283,0.02474
-0.051636,2.0006,-1.9417,8.7475,-0.054978,0.046426,0.013439
-0.032806,1.6475,-2.432,8.9044,-0.036652,0.069028,0.0018326
-0.050629,2.0202,-3.0793,8.1199,0.0054978,0.10324,-0.0009163
-0.08374,1.7456,-2.8243,8.1787,0.072388,0.13042,0.013744
-0.1048,1.1964,-2.1967,8.8456,0.17654,0.14508,0.077885
-0.1524,1.2945,-2.0594,9.179,0.219,0.14783,0.054672
-0.17142,1.3533,-2.2555,8.9437,0.22938,0.15516,0.043982
-0.19577,1.2945,-2.3732,8.5514,0.17959,0.16677,0.057116
-0.21112,0.66685,-2.1575,8.8652,0.080634,0.16157,0.069944
-0.19913,0.27459,-2.6086,9.0417,-0.042761,0.14936,0.075442
-0.20538,0.41188,-2.1967,9.0417,-0.14386,0.135,0.076358
-0.21317,0.49033,-1.2553,8.8848,-0.1744,0.1014,0.083078
-0.21893,0.39227,-1.216,8.9044,-0.1124,0.069028,0.020159
-0.23151,0.27459,-1.5691,9.179,0.015882,0.063835,-0.025045
-0.22421,0.76492,-2.0594,8.9044,0.14752,0.086437,0.025351
-0.22009,0.80415,-1.824,8.8456,0.21044,0.11606,0.010996
-0.21796,0.5884,-1.7456,9.0025,0.18051,0.1295,0.020159
-0.22363,0.74531,-1.5691,9.179,0.062308,0.12034,0.037568
-0.23328,0.98067,-1.2749,9.179,-0.09896,0.087048,0.047342
-0.24304,0.8826,-1.2749,9.1202,-0.20922,0.036957,0.045509
-0.25455,0.5884,-1.9025,9.1202,0.15119,0.197,0.0030543
-0.2626,1.0787,-2.5693,9.179,0.063835,0.20495,0.022907
-0.24933,0.90221,-2.1182,9.689,0.0082467,0.17196,-0.041539
-0.22354,0.80415,-1.5691,9.5909,0.0030543,0.12339,-0.03543
-0.20102,0.66685,-1.8044,9.3555,0.058032,0.093462,-0.041844
-0.1864,0.66685,-2.4713,9.3359,0.1573,0.096211,-0.068722
-0.16623,1.118,-2.7851,9.5125,0.23732,0.12126,-0.071777
-0.16562,1.2945,-2.2948,9.2183,0.24984,0.14325,-0.036041
-0.14252,1.0199,-1.3533,8.6887,-0.07422,0.043371,0.19151
-0.13434,0.56879,-1.0199,9.0417,-0.10843,-0.051313,0.10751
-0.1312,0.74531,-1.3337,9.8066,0.099266,-0.11576,0.1408
-0.14984,0.23536,-2.3732,9.3555,0.5003,-0.14386,0.18112
-0.15311,0.039227,-1.8829,10.14,0.56994,-0.090103,0.21075
-0.14261,0.23536,-1.0199,9.9636,0.30329,0.039706,0.27794
-0.17487,0.74531,-1.3533,7.6492,0.14539,-0.032376,0.35491
-0.1965,1.1768,-2.0594,6.6685,0.021991,-0.26176,0.31185
-0.20956,0.80415,-2.942,6.6685,-1.1356,-0.55008,-0.21655
-0.19016,0.86299,-3.197,9.1594,-1.4288,-0.70647,-0.071777
-0.073669,0.98067,-0.94144,12.043,-1.4951,-0.72388,0.046426
0.078033,1.0591,-0.49033,11.552,-1.1603,-0.70188,0.068111
0.21085,1.824,-1.824,9.3359,-0.60384,-0.66371,0.062614
0.28952,1.7652,-2.7655,7.7865,-0.039706,-0.53115,0.0009163
0.32965,1.9809,-2.4713,7.2765,-0.25626,-0.30635,-0.10629
0.32465,1.3925,-2.9224,7.7865,-0.76389,-0.03543,-0.21441
0.2901,1.6083,-2.942,8.9633,-0.26267,0.17165,0.050702
0.24503,1.1964,-2.1575,9.0221,0.41692,0.24832,0.15241
0.1926,0.76492,-0.94144,9.2575,0.4893,0.20861,0.16952
0.11514,0.39227,-1.0199,10.062,0.35858,0.10232,0.12309
0.010742,1.118,-2.3732,9.6694,0.12553,-0.021991,0.053756
-0.1138,-0.82376,-3.2362,8.7475,-0.1066,-0.11851,-0.0061087
-0.22165,-2.5693,-2.0594,14.278,-0.26664,-0.1854,-0.03879
-0.32397,0.2942,0.15691,11.846,-0.31765,-0.20678,-0.044288
-0.40576,0.80415,1.0787,6.8254,-0.21289,-0.1066,-0.0054978
-0.46011,-0.13729,-1.471,4.6287,-0.069944,-0.047953,0.072693
-0.47336,0.43149,-4.3345,5.1779,0.077885,-0.013744,-0.054367
-0.43317,1.5495,-3.9423,7.4334,0.21686,0.047037,-0.087965
-0.33939,0.50995,-2.6674,9.5321,0.28772,0.08491,-0.12156
-0.20355,0.2942,-1.9809,9.8066,0.30207,0.10721,-0.13836
-0.045868,0.80415,-2.3732,9.0221,0.29413,0.1182,-0.11881
0.10883,1.3533,-3.0793,8.316,0.24832,0.10415,-0.069639
0.23523,2.0594,-3.0989,8.2572,0.040317,-0.013134,-0.048869
0.37317,2.1378,-2.7851,8.6299,0.043371,-0.030849,-0.058643
0.43835,2.0594,-1.6279,8.4141,0.055894,-0.039401,-0.0067195
0.46585,1.8437,-1.2553,8.3749,0.08094,-0.04215,-0.0030543
0.47675,1.8044,-1.7456,8.8064,0.12156,-0.039706,0.0030543
0.49084,1.6083,-2.6086,9.0025,0.16127,-0.020464,-0.0009163
0.50568,1.6083,-3.7854,9.179,0.17471,0.018631,-0.027794
0.52124,1.5298,-3.6285,9.5125,0.15363,0.040012,-0.048869
0.51764,1.4906,-2.9028,9.8066,0.10599,0.047647,-0.084605
0.5148,1.1964,-2.6086,9.5713,0.050091,0.044593,-0.085521
0.50146,1.0591,-2.687,9.179,0.017104,0.041233,-0.071777
0.48279,1.4318,-2.942,8.4337,0.023213,0.044899,-0.077885
0.47037,1.5102,-2.8243,8.2572,0.049175,0.058948,-0.086132
0.43774,1.6867,-2.4124,8.4729,0.072998,0.075747,-0.083689
0.40717,1.6083,-2.1575,8.9044,0.083689,0.079412,-0.075442
0.36462,1.7064,-1.9809,8.7279,0.089186,0.072998,-0.078496
0.32489,1.6867,-2.1378,8.6887,0.22113,-0.029932,-0.0024435
0.28827,1.5298,-2.4124,8.1787,0.24771,-0.0045815,-0.0073304
0.25043,1.2356,-2.687,8.7083,0.21228,-0.0058032,-0.051007
0.2204,1.5298,-2.8439,8.6299,0.15424,-0.021075,-0.03543
0.17813,1.0591,-2.3732,8.9044,0.10568,-0.032987,-0.026878
0.15195,1.0199,-2.3144,8.8064,0.083078,-0.038485,-0.023824
0.13214,1.118,-2.3732,9.0417,0.082772,-0.035125,-0.016799
0.10422,1.118,-2.432,8.9044,0.10171,-0.014355,-0.0051924
0.084625,1.1376,-2.687,8.6299,0.17135,0.022907,0.007025
0.063538,1.2945,-2.5301,8.6495,0.15485,0.044593,-0.0033598
0.047363,1.4318,-2.3536,8.8064,0.14019,0.058032,-0.010385
0.024597,1.6867,-2.2555,8.8064,0.14844,0.08094,-0.020464
0.0037231,1.7456,-2.0986,8.7083,0.13744,0.097433,-0.030849
-0.030182,2.0006,-2.3536,8.9437,0.10354,0.1011,-0.012217
-0.051758,1.6475,-2.2948,9.1202,0.067501,0.07086,0.0085521
-0.070679,1.3729,-2.4713,9.3359,0.045509,0.023824,0.013439
-0.080963,0.8826,-2.0594,9.3359,-0.091324,0.082467,0.28833
-0.073181,0.90221,-2.0006,8.8652,-0.083078,0.09499,0.32132
-0.063782,0.90221,-2.2555,8.8064,-0.01405,0.099876,-0.059865
-0.084778,1.1964,-2.6086,8.6299,0.069333,0.12217,-0.020159
-0.09198,1.118,-2.3536,8.8064,0.11393,0.15944,0.018326
-0.089874,1.0395,-1.9613,9.0025,0.1408,0.20525,0.071777
-0.080261,1.3729,-1.3533,8.7083,0.061697,0.24038,0.13225
-0.082123,1.3533,-1.5102,8.3749,-0.029016,0.27764,0.21258
-0.063019,1.7456,-2.1967,8.6299,-0.002138,0.16463,-0.018937
-0.058014,1.6671,-2.5693,8.7279,-0.077885,0.14508,0.0051924
-0.044312,1.8044,-2.4517,8.8064,-0.095906,0.12767,-0.012828
-0.055481,1.7456,-2.2163,9.0221,-0.050091,0.11851,-0.024435
-0.056061,1.6867,-2.0986,8.9437,0.029322,0.10996,-0.019853
-0.052979,1.5298,-2.2751,9.0221,0.11759,0.10476,-0.015577
-0.046539,1.6671,-2.5693,9.1594,0.20006,0.11637,-0.027184
-0.047302,1.5495,-2.4713,9.2183,0.23396,0.14478,-0.033598
-0.04129,1.3337,-1.9417,9.0417,0.18204,0.16188,-0.078496
-0.058289,0.96105,-2.0398,8.8064,0.079412,0.13439,-0.081245
-0.061859,1.2356,-2.7262,8.9437,-0.0039706,0.079107,0.018021
-0.065277,1.2356,-2.6086,9.3163,-0.04612,0.03207,0.016799
-0.074615,1.0591,-2.687,9.3163,-0.045815,0.0073304,0.00061087
-0.072113,1.0591,-2.6086,8.6887,-0.0085521,0.0030543,-0.034819
-0.080048,1.118,-2.2163,8.4141,0.036652,0.0042761,-0.065668
-0.09024,1.1964,-1.6671,8.7083,0.062003,0.0082467,-0.078496
-0.095459,1.118,-1.471,8.7475,0.14661,0.002138,-0.11881
-0.11005,1.3729,-1.118,8.7083,0.20464,-0.0067195,-0.093768
-0.12061,1.3533,-1.5102,8.8064,0.23732,0.009163,-0.1014
-0.13458,1.2356,-1.9809,9.1202,0.24282,0.032987,-0.12187
-0.1745,0.74531,-1.8437,9.5125,0.21502,0.055283,-0.13225
-0.23798,-0.49033,-2.0986,7.7669,0.15272,0.065668,-0.13195
-0.2923,-2.0202,-1.4318,10.689,0.066279,0.065973,-0.12706
-0.3374,-0.82376,-1.7848,10.925,0.093462,0.069639,-0.12828
-0.38107,0.27459,-2.5105,7.7865,-0.33231,-0.25107,0
-0.40439,-0.74531,-2.4517,8.4141,-0.096211,-0.12553,-0.0048869
-0.4191,1.1964,-2.0594,7.4923,0.10415,-0.0051924,-0.065057
-0.39935,1.7456,-2.7459,7.6884,0.17837,0.062919,-0.046426
-0.35681,1.2945,-2.7851,9.8851,0.14539,0.085521,0.0067195
-0.31735,1.5298,-2.0986,10.885,0.069028,0.086132,0.018631
-0.27179,1.7456,-1.6279,10.827,-0.0045815,0.076053,0.0076358
-0.24731,2.2359,-1.4906,10.199,-0.071777,0.068111,0.0058032
-0.25037,1.6867,-1.3729,9.6694,-0.13256,0.059865,-0.01069
-0.25208,1.9221,-2.1378,8.1787,-0.16738,0.051313,-0.038485
-0.23383,2.2359,-2.3732,7.6492,-0.17654,0.04948,-0.0039706
-0.17462,2.0594,-2.2948,7.3158,-0.17929,0.054062,0.0033598
-0.10056,1.7652,-2.0594,8.1003,-0.18479,0.065057,0.014966
0.021729,1.3925,-1.9809,8.5514,-0.19487,0.073915,0.018937
0.13489,1.118,-2.0594,8.7475,-0.20953,0.095295,0.016493
0.25891,1.0591,-2.0594,8.6299,-0.21319,0.11118,0.0082467
0.37027,1.2945,-2.1182,8.5318,-0.081245,0.10904,-0.036041
0.4679,1.4318,-2.3144,8.8064,0.026573,0.12431,-0.018631
0.55099,1.4318,-2.3732,8.7279,0.10843,0.14172,-0.051924
0.60287,1.3533,-2.8243,8.6299,0.14569,0.135,-0.040928
0.64642,1.3533,-2.7655,9.1006,0.14661,0.094073,-0.021686
0.66077,0.90221,-2.4517,9.6694,0.13683,0.030238,-0.011301
0.65988,1.118,-2.3732,9.8066,0.12309,-0.026573,-0.023213
0.65198,1.1964,-1.9809,9.5125,0.098655,-0.061697,-0.038485
0.62079,1.2356,-1.4318,9.1202,0.041233,-0.073915,-0.017104
0.57452,1.3925,-1.471,8.8652,-0.048869,-0.071471,-0.0030543
0.5289,1.6475,-2.3732,8.7279,-0.13256,-0.076664,0.0033598
0.48669,1.5298,-2.8243,8.6299,-0.19395,-0.093157,0.025045
0.44949,1.5298,-2.6282,8.7083,-0.20739,-0.10507,0.040317
0.41898,1.5495,-1.8044,8.5318,-0.13225,-0.097738,0.030543
0.39044,1.5102,-1.2749,8.2572,0.016493,-0.062614,0.002138
0.3577,1.216,-1.3141,8.7475,0.17043,-0.00030543,-0.01741
0.33109,1.118,-1.8829,9.7478,-0.26206,0.0048869,-0.065363
0.29117,1.1964,-2.6086,9.5713,-0.18357,0.060781,-0.079412
0.21097,1.7456,-4.158,7.3158,-0.091935,0.11881,-0.030849
0.11307,0.17652,-3.295,10.572,-0.03207,0.16707,-0.026267
0.034668,0.13729,-1.8044,12.023,-0.036041,0.18265,-0.012828
-0.044006,1.9221,-0.49033,8.7083,-0.065363,0.17593,-0.015577
-0.10504,0.5884,-1.0199,7.0804,-0.1182,0.16829,-0.037568
-0.15341,1.3533,-2.0594,7.1196,-0.18601,0.1573,-0.053451
-0.13516,1.3533,-2.0986,8.3749,-0.19914,0.15363,-0.076053
-0.093231,1.1964,-1.8829,9.5125,-0.1463,0.16493,-0.068722
-0.023834,0.98067,-1.5887,9.5713,-0.15669,0.17898,-0.0956
0.069031,1.118,-1.5691,9.0025,-0.20892,0.18662,-0.11087
0.14786,1.3533,-1.7456,8.4926,-0.30849,0.16402,-0.09499
0.20822,1.6867,-2.1967,8.1787,-0.47037,0.12462,-0.07025
0.2807,1.824,-2.6086,7.9434,-0.23885,0.092852,-0.071471
0.3244,1.7456,-2.3732,8.3945,-0.24923,0.059254,-0.074831
0.38373,1.5495,-2.432,8.9633,-1.2162,-0.013744,-0.080634
0.42151,2.0202,-2.4713,9.1202,-1.3769,-0.14019,-0.047953
0.48535,1.9613,-2.5693,9.0417,-1.4087,-0.29199,-0.047037
0.49716,1.824,-2.589,8.7083,-1.3155,-0.42883,-0.0281
0.53809,1.3533,-2.5105,9.3752,-1.1451,-0.51435,-0.047342
0.57892,0.90221,-2.5301,9.787,-0.95173,-0.53481,-0.087659
0.61234,0.98067,-2.2948,9.6694,-0.69791,-0.49755,-0.11148
0.65131,0.25497,-1.8437,10.003,-0.96669,-0.43799,-0.10812
0.70563,0.64724,-2.9028,9.5321,-0.41325,-0.38668,-0.021686
0.78323,1.0787,-3.5304,8.8652,-0.25992,-0.34025,-0.030543
0.85669,1.3925,-3.5696,8.1787,-0.1576,-0.28314,-0.033292
0.94922,1.5495,-3.4127,7.8649,-0.11912,-0.21105,-0.040623
1,1.6475,-3.197,7.6492,-0.12889,-0.13439,-0.051313
1,1.7064,-3.0204,7.7473,-0.17135,-0.062308,-0.042761
1,1.3533,-2.9028,8.0022,-0.76541,-0.0067195,-0.027184
1,1.1964,-3.0008,7.9434,-0.58948,0.021075,-0.020464
1,1.216,-3.6088,8.0022,0.080329,0.084605,-0.073609
1,1.3533,-4.0207,8.4337,0.2025,0.091324,-0.091324
1,1.3533,-3.3931,8.5318,0.29993,0.088575,-0.048869
1,1.5495,-3.2558,8.4141,0.31276,0.058032,-0.017715
1,1.6083,-3.4127,7.7865,0.25748,0.014966,-0.0039706
1,2.1575,-3.6285,7.5903,0.14325,-0.030238,-0.015577
1,2.2359,-3.6285,8.0022,0.0051924,-0.049786,-0.018937
0.95163,2.4909,-3.1577,8.8456,-0.10996,-0.034819,-0.042761
0.84802,2.3928,-2.5105,8.8848,-0.18082,-0.0048869,0.034208
0.74664,2.0594,-2.6086,8.3357,-0.12278,0.035736,0.050702
0.63602,1.8437,-3.8442,8.0022,-0.011606,0.10049,-0.11209
0.53748,2.2359,-4.158,7.7669,0.099266,0.15852,-0.12462
0.43158,2.0202,-3.2166,8.4141,0.16463,0.18815,-0.11118
0.34042,1.1376,-2.432,8.9044,0.16677,0.19487,-0.083383
0.25024,0.90221,-1.9025,9.0417,0.12462,0.17929,-0.047342
0.15842,0.5884,-2.1967,9.179,0.088575,0.14569,0.0039706
0.090302,0.27459,-3.0008,9.0613,0.077274,0.11637,0.18173
0.052795,0.27459,-3.1381,8.5906,0.068111,0.11118,0.22388
0.017365,0.27459,-2.6282,9.179,0.022602,0.12339,0.065057
0.006012,0.43149,-2.0986,9.3359,-0.069028,0.13103,0.083383
-0.0088196,0.74531,-2.0398,8.7475,-0.067195,0.12126,0.094379
-0.0066223,1.1768,-2.2948,7.9042,0.24038,0.13958,0.1014
-0.011658,1.3337,-2.432,7.7865,0.81215,0.23579,0.10568
0.019806,1.3533,-2.7262,8.316,1.0861,0.38423,0.14142
0.072693,1.0395,-2.6086,9.0613,0.8827,0.44776,-0.056505
0.12811,1.0787,-2.3732,8.8652,0.80146,0.45204,-0.061697
0.18201,1.2356,-2.1967,8.8848,0.6411,0.41569,-0.015577
0.25238,1.6083,-2.9028,9.3163,0.45907,0.36316,-0.016799
0.27005,1.824,-4.0207,9.1594,0.2813,0.30085,-0.016493
0.21378,1.4906,-4.0796,6.9235,0.14111,0.23457,0.0012217
0.092285,-1.471,-3.0008,14.592,0.04948,0.16432,-0.0042761
-0.015381,-0.13729,-0.84337,14.769,0.025962,0.10904,-0.033903
-0.13712,0.8826,-1.1964,8.0807,0.10079,0.081551,0.015272
-0.21875,0.2942,-2.7459,4.8641,0.15699,0.081551,-0.0058032
-0.24939,1.3729,-3.3539,5.0798,0.20189,0.094684,0.025045
-0.23349,2.0594,-2.4517,6.747,0.22083,0.10018,0.023824
-0.17633,1.9221,-1.7848,8.8652,0.19151,0.11698,0.029627
-0.094788,1.9025,-1.6475,9.6497,0.12278,0.12126,0.016188
0.018463,1.8044,-1.5102,9.2575,0.0051924,0.09499,0.015272
0.11826,2.3732,-1.6279,8.1787,0.037568,0.061087,0.025656
0.19537,2.589,-1.5691,7.1785,-0.011912,0.030543,-0.0024435
0.25327,2.0202,-1.2553,6.8647,0.08094,-0.0027489,-0.048258
0.29956,1.4318,-1.118,8.0611,0.18998,-0.016188,-0.021686
0.34143,1.7456,-1.6475,9.0613,0.26023,0.014966,-0.042761
0.40176,2.0202,-2.7459,9.1986,0.27642,0.050702,-0.039095
0.44525,1.9613,-3.295,8.8064,0.26298,0.054367,0.009163
0.49231,1.8044,-3.55,8.4729,0.039706,0.029627,0.044899
0.53259,1.824,-3.4716,8.7083,-0.022907,-0.0009163,0.033292
0.54639,1.6083,-3.4127,9.0025,-0.3372,0.16066,0.20525
0.5466,1.2749,-3.0597,9.179,-0.49205,0.098044,0.19364
0.53384,1.118,-2.589,9.0613,-0.55192,0.064446,0.22999
0.50146,1.1964,-2.5693,8.8064,-0.51618,0.065973,0.22235
0.45044,1.1964,-2.8243,8.6887,-0.42394,0.075747,0.22907
0.42395,1.4514,-2.9028,8.7475,-0.29383,0.075747,0.24526
0.3952,1.6083,-2.8832,9.0613,-0.14875,0.099876,0.24832
0.37799,1.6083,-2.5105,9.3163,-0.02474,0.13775,0.22602
0.3598,1.7064,-2.687,9.179,0.064752,0.15394,0.076664
0.33487,1.9025,-2.687,8.8064,0.13256,0.16066,0.050091
0.30679,1.7456,-2.5693,8.5514,0.16738,0.17043,0.16952
0.29568,1.6083,-2.687,8.8652,0.16035,0.17074,0.13775
