-0.010803,1.118,1.7652,9.3752,-0.057727,0.058948,-0.057116
0.021393,1.1964,1.7848,9.2575,-0.055589,0.064141,-0.058948
0.03537,1.0395,1.7848,9.434,-0.047647,0.064752,-0.024435
0.041107,1.2945,1.7064,9.434,-0.03879,0.063835,-0.030238
0.039978,1.0591,1.7064,9.5125,-0.041844,0.058948,-0.037568
0.042633,1.2945,1.6671,9.5125,-0.047342,0.051007,-0.043982
0.033386,1.118,1.6475,9.5909,-0.045204,0.039095,-0.051924
0.028412,1.1964,1.6279,9.6301,-0.034819,0.025045,-0.0562
0.02124,1.1964,1.5691,9.4928,-0.021075,0.011301,-0.050091
0.012756,1.0395,1.6083,9.3555,-0.007025,-0.0045815,-0.051313
0.0039978,1.1964,1.6083,9.3555,0.002138,-0.013134,-0.059865
-0.0095825,1.1376,1.6279,9.3359,0.0036652,-0.01405,-0.059865
-0.0093994,1.2945,1.6671,9.3752,-0.0018326,-0.014661,-0.05681
0.0047302,1.3533,1.6279,9.5125,-0.013134,-0.013744,-0.05284
-0.0072937,1.2945,1.5691,9.5713,-0.022907,-0.014966,-0.049175
-0.01944,1.2749,1.9221,9.6694,-0.022907,-0.023518,-0.047647
-0.027649,1.1964,1.9417,9.7282,-0.0079412,-0.036041,-0.0045815
-0.039764,0.98067,1.9417,9.7478,0.015272,-0.047037,-0.0073304
-0.052765,1.0199,1.9809,9.6497,0.034514,-0.051007,-0.050396
-0.052673,1.3337,2.0202,9.6694,0.041844,-0.047953,-0.046731
-0.051544,1.0787,2.0202,9.5125,0.035125,-0.036957,-0.039095
-0.051971,1.0787,2.0986,9.5125,0.014661,-0.020159,-0.026878
-0.057037,1.0395,1.9809,9.3163,-0.01405,-0.0054978,-0.015882
-0.047974,1.1964,1.8829,9.2183,-0.036346,0.0051924,-0.0076358
-0.030518,1.2945,2.0202,9.2575,-0.040623,0.013134,-0.011912
-0.010651,1.2356,1.9417,9.3163,-0.029627,0.018021,-0.0094684
0.0024414,1.2945,1.6475,9.2575,-0.017715,0.019548,-0.0085521
0.0031738,1.1964,1.7064,9.3359,-0.013439,0.020769,-0.010385
0.0067139,1.0199,1.8829,9.434,-0.01069,0.023518,-0.011301
0.0086365,1.0787,1.8829,9.5909,-0.0088575,0.027184,-0.011301
0.0085754,1.0591,1.8829,9.5125,-0.0076358,0.025962,-0.0085521
0.0093384,1.118,1.9809,9.6301,0.00061087,0.02138,-0.010385
0.0016479,1.0591,2.0202,9.5909,-0.025656,0.0076358,-0.0015272
0.0018005,1.0395,1.9809,9.5125,-0.026878,0.0042761,-0.0094684
0.0079956,1.0591,1.9417,9.434,-0.035736,0.0042761,0.050702
0.010864,1.0787,2.0202,9.434,-0.044288,0.0067195,0.04612
0.0090637,1.1964,2.1182,9.3555,-0.051313,0.010079,0.03879
0.015533,1.0591,2.1378,9.4732,-0.0562,0.013744,0.029627
0.0082397,1.2945,1.9417,9.2575,-0.034514,0.015272,0.018937
0.0062256,1.0395,2.0398,9.434,-0.027489,0.015882,0.0067195
0.0049744,1.3337,2.0398,9.3359,-0.04612,0.015882,-0.0012217
-0.0022583,1.1376,2.1967,9.4732,-0.048258,0.016799,0.0018326
-0.011108,1.118,2.0398,9.4732,-0.044593,0.020464,-0.016188
-0.018066,1.118,1.8829,9.5321,-0.03543,0.02138,-0.016493
-0.0089722,1.118,1.8829,9.5125,-0.03207,0.019548,-0.012828
-0.019745,1.1768,1.9417,9.5125,-0.039401,0.017104,-0.011301
-0.030853,1.2945,1.824,9.5713,-0.051924,0.01741,-0.010079
-0.03183,1.1964,1.824,9.5125,-0.044288,0.019242,-0.0058032
-0.029541,1.1768,1.7652,9.5125,-0.043982,0.020159,0.0039706
-0.026459,1.118,1.8044,9.4928,-0.036346,0.022602,0
-0.052246,1.2356,1.824,9.5125,-0.028405,0.023213,0.0033598
-0.054688,1.118,1.9417,9.434,-0.023824,0.018631,0.0051924
-0.04834,1.1964,1.824,9.3359,-0.02138,0.011912,0.0061087
-0.053528,1.1964,1.9613,9.434,-0.026878,0.0048869,0.0067195
-0.068848,1.2945,1.8829,9.4928,-0.047037,0.0030543,0.0079412
-0.069519,0.98067,2.0202,9.5125,-0.04948,0.0054978,0.0076358
-0.06192,1.2945,1.9809,9.5713,0.02138,0.025045,0.063835
-0.069458,0.98067,1.9417,9.6497,0.020159,0.023213,0.057421
-0.072906,1.2749,1.9417,9.434,0.011912,0.02474,0.043066
-0.081573,1.0395,1.8829,9.3752,-0.0051924,0.025962,0.050396
-0.083038,1.0395,1.9417,9.5125,-0.025045,0.0281,0.0562
-0.075134,1.0787,1.9613,9.5321,-0.039706,0.026878,0.061697
-0.077972,1.1964,1.9417,9.4928,-0.047647,0.02138,0.065668
-0.062469,1.0199,1.8829,9.3359,-0.044899,0.013744,0.067501
-0.061798,1.1768,1.9221,9.434,0.0024435,0.11362,-0.2364
-0.050659,1.0395,1.6083,9.5909,-0.014355,0.11729,-0.25656
-0.027313,1.118,1.8829,9.4732,-0.038179,0.1237,-0.15608
-0.0076599,1.1768,1.7064,9.4732,-0.059559,0.12798,-0.16432
-0.0019531,0.86299,1.824,9.6301,-0.078191,0.12828,-0.17715
0.0077515,1.0395,1.7652,9.5713,-0.084299,0.12889,-0.19487
0.010651,0.74531,1.726,9.6694,-0.077885,0.12828,-0.20739
0.032104,1.0395,1.6671,9.5125,-0.051618,0.12614,-0.21777
0.044128,0.90221,1.7848,9.4928,-0.01069,0.12431,-0.26909
0.060425,1.0395,1.8829,9.2771,0.027489,0.13073,-0.26481
0.086609,1.118,1.824,9.434,0.046426,0.13134,-0.26634
0.1145,0.98067,1.7652,9.4732,0.047953,0.13225,-0.26848
0.1322,0.8826,1.7064,9.3752,0.030849,0.13897,-0.26848
0.15631,1.0591,1.6475,9.4144,0.0009163,0.1463,-0.26878
0.17169,0.86299,1.8044,9.434,-0.030543,0.15149,-0.26634
0.18225,0.96105,2.0202,9.6694,-0.064141,0.14722,-0.26695
0.18433,0.86299,1.9809,9.5713,-0.064141,0.094684,-0.093768
0.17163,0.80415,1.8633,9.5125,-0.069028,0.10385,-0.10385
0.16669,0.98067,1.7848,9.5713,-0.071471,0.1124,-0.069944
0.17325,1.0395,1.6475,9.7478,-0.069944,0.12126,-0.067501
0.16272,0.72569,1.6671,9.9439,-0.057116,0.12614,-0.069639
0.15204,0.74531,1.4906,9.8066,-0.031765,0.12706,-0.075747
0.14493,0.72569,1.3925,9.6694,0.00061087,0.12645,-0.080634
0.16238,0.56879,1.3533,9.5713,0.020159,0.12767,-0.085827
0.16953,0.80415,1.5102,9.3752,0.018021,0.12675,-0.14966
0.19498,0.80415,1.824,9.4928,-0.0027489,0.12309,-0.15058
0.22546,0.76492,2.0986,9.5713,-0.025045,0.11545,-0.11545
0.2699,0.66685,2.2751,9.5321,-0.039706,0.10996,-0.12706
0.32248,0.39227,2.1967,9.3359,-0.04215,0.10873,-0.13653
0.36029,0.49033,2.0202,9.3359,-0.030849,0.10476,-0.14264
0.40399,0.60801,1.7848,9.3752,-0.018631,0.1066,-0.14478
0.43533,0.43149,2.0202,9.5125,-0.0042761,0.11118,-0.14905
0.45865,0.50995,2.0202,9.6694,-0.066279,-0.0018326,0.082161
0.4718,0.49033,1.9809,9.6694,-0.079718,-0.0018326,0.069028
0.46988,0.39227,1.8829,9.5713,-0.089186,0.0015272,0.10171
0.46405,0.41188,1.9417,9.5125,-0.096517,0.0009163,0.10354
0.45438,0.35304,2.0202,9.5713,-0.10324,-0.0048869,0.10201
0.43634,0.27459,2.2751,9.6301,-0.10965,-0.009163,0.10018
0.41144,0.49033,2.4124,9.434,-0.042761,-0.011606,0.09499
0.38528,0.41188,2.5105,9.3555,-0.051924,-0.012523,0.089492
0.36307,0.66685,2.589,9.2183,-0.11606,-0.011301,0.0051924
0.35495,0.74531,2.6478,9.2575,-0.12156,-0.0048869,-0.0033598
0.33139,0.82376,2.7459,9.179,-0.12309,-0.00061087,0.058643
0.32233,0.56879,2.8832,9.2575,-0.12065,0,0.050396
0.30966,0.90221,2.8243,9.1986,-0.11362,0.0033598,0.040012
0.29214,0.70608,2.8832,9.2771,-0.10568,0.0088575,0.033292
0.28101,0.74531,2.7262,9.2183,-0.11026,0.013439,0.026267
0.25812,0.74531,2.589,9.1202,-0.11057,0.01405,0.015272
0.25696,0.98067,2.334,9.1202,0.14386,-0.062614,-0.042455
0.25095,0.8826,2.2555,9.2771,0.14111,-0.073915,-0.022907
0.22998,0.74531,2.1967,9.434,0.14233,-0.079412,-0.19028
0.21863,0.60801,2.0986,9.5321,0.1408,-0.080329,-0.16341
0.20175,0.49033,2.079,9.6694,0.13592,-0.072998,-0.13897
0.18216,0.56879,1.9809,9.5321,0.13164,-0.062003,-0.11729
0.15707,0.74531,1.9221,9.5713,0.12278,-0.04948,-0.09163
0.12418,0.5884,1.9417,9.5713,0.10507,-0.036041,-0.065668
0.090607,0.66685,1.9417,9.5125,0.0281,-0.023518,0.083078
0.072937,0.66685,1.824,9.5125,0.0067195,-0.014966,0.093157
0.054047,0.74531,1.8044,9.3752,-0.01405,-0.0045815,-0.0085521
0.027374,0.74531,1.7848,9.4732,-0.027184,0.0030543,0.012217
0.0030212,0.86299,1.8044,9.434,-0.033903,0.0054978,0.032681
-0.012939,0.8826,1.7848,9.434,-0.038485,0.0051924,0.047342
-0.019958,0.90221,1.8044,9.5125,0.079718,0.0027489,0.062614
-0.050354,0.80415,1.7848,9.5321,0.054062,0,0.076358
-0.060638,0.74531,1.824,9.4928,-0.044288,0.034514,-0.083078
-0.065643,0.64724,1.7848,9.787,-0.036957,0.04612,-0.077274
-0.062286,0.74531,1.8829,9.6694,-0.032376,0.051924,-0.073915
-0.069,0.80415,1.8829,9.6301,-0.031154,0.054978,-0.075747
-0.068787,0.90221,1.8829,9.5125,-0.031154,0.057421,-0.082161
-0.082153,0.98067,1.8829,9.5125,-0.037568,0.058338,-0.081551
-0.071991,0.90221,1.9221,9.5125,-0.047342,0.058948,-0.082161
-0.071594,0.98067,1.8829,9.3752,-0.053145,0.05681,-0.084299
-0.071594,0.74531,1.8829,9.4732,-0.021075,0.01069,-0.019242
-0.060669,0.90221,1.9221,9.3359,-0.014966,0.018021,-0.020464
-0.063141,0.80415,1.9221,9.434,-0.01405,0.021991,-0.020769
-0.062775,0.74531,1.7848,9.3555,-0.015272,0.026267,-0.021075
-0.06369,0.70608,1.726,9.5125,-0.020464,0.028405,-0.020464
-0.069977,1.0395,1.7652,9.4732,-0.028405,0.029627,-0.021686
-0.055511,0.74531,1.7848,9.4144,-0.036041,0.032681,-0.025656
-0.050507,0.8826,1.8044,9.5321,-0.036652,0.037263,-0.024435
-0.053192,0.66685,1.7848,9.6694,-0.032987,0.037874,-0.034819
-0.049622,0.80415,1.6279,9.5713,-0.027794,0.033903,-0.039706
-0.06134,0.41188,1.7848,9.6694,-0.025351,0.026573,-0.022907
-0.038635,0.70608,1.6671,9.5909,-0.0281,0.015272,-0.02138
-0.044159,0.54917,1.7652,9.6694,-0.030543,0.0061087,-0.018326
-0.031097,0.72569,1.7064,9.434,-0.024435,-0.00061087,-0.019853
-0.029663,0.70608,1.6671,9.434,-0.01741,-0.0058032,-0.02474
-0.032013,0.86299,1.6475,9.434,-0.013134,-0.0082467,-0.029016
-0.018066,0.74531,1.6475,9.2575,-0.012828,-0.010385,-0.071166
-0.01413,0.80415,1.6083,9.2575,-0.012217,-0.0079412,-0.076053
-0.024841,0.8826,1.5691,9.3555,-0.016493,-0.0024435,-0.044288
-0.034271,0.80415,1.6279,9.434,-0.028405,0.0058032,-0.044899
-0.041687,0.76492,1.6671,9.434,-0.044288,0.015577,-0.045509
-0.036926,0.66685,1.6671,9.5125,-0.054367,0.020769,-0.050702
-0.059357,0.80415,1.6475,9.5909,-0.058032,0.024435,-0.060476
-0.075806,0.86299,1.5495,9.5713,-0.054978,0.027489,-0.067501
-0.083344,0.60801,1.6083,9.6694,0.075747,0.04948,-0.1909
-0.073975,0.74531,1.6279,9.6497,0.067195,0.041539,-0.20097
-0.055206,0.74531,1.7848,9.6301,0.045204,0.033598,-0.20372
-0.068237,0.80415,1.6475,9.5713,0.020464,0.025351,-0.20739
-0.056702,0.74531,1.5691,9.3359,-0.0051924,0.019242,-0.20892
-0.053833,0.86299,1.5102,9.5713,-0.028711,0.020159,-0.20708
-0.052582,0.74531,1.6279,9.689,-0.044593,0.029322,-0.19975
-0.070984,0.80415,1.5495,9.8263,-0.052229,0.044593,-0.19151
-0.080048,0.74531,1.2945,9.8066,-0.047342,0.061392,-0.34514
-0.082916,0.74531,1.2553,9.9636,-0.032681,0.076664,-0.36316
-0.093658,0.74531,1.1768,10.062,-0.013439,0.086743,-0.21258
-0.098785,0.74531,1.1572,10.297,-0.0079412,0.090408,-0.22602
-0.11383,0.49033,1.1376,10.297,-0.018631,0.088881,-0.24099
-0.12344,0.56879,1.0983,10.101,-0.033292,0.078496,-0.2642
-0.11203,0.49033,0.94144,9.9439,-0.047953,0.061392,-0.29505
-0.1145,0.70608,0.66685,9.9636,-0.059254,0.039706,-0.32437
-0.10236,0.66685,0.52956,9.8459,-0.014966,0.017104,-0.39218
-0.089996,0.098066,0.56879,9.9636,0.021075,-0.00030543,-0.40378
-0.076416,0.39227,0.68647,10.003,0.048258,0.0039706,-0.37782
-0.043793,0.039227,0.78453,9.8066,0.051313,0.027794,-0.38118
-0.014435,0.27459,0.86299,9.5713,0.021075,0.054978,-0.37629
-0.0021362,0.41188,0.72569,9.3359,-0.023518,0.080023,-0.36957
0.022064,0.72569,0.76492,9.1986,-0.060476,0.10293,-0.36805
0.048431,0.43149,1.0395,9.1594,-0.044899,0.1237,-0.3766
0.081146,0.60801,0.94144,8.9044,-0.03543,0.14691,-0.43035
0.11694,0.60801,0.68647,8.9044,0.0033598,0.17226,-0.41569
0.1235,0.35304,0.68647,8.8848,0.04612,0.18754,-0.41417
0.13187,0.098066,0.82376,9.0417,0.077274,0.19151,-0.4273
0.14005,0.35304,0.86299,9.0221,0.097128,0.18845,-0.43402
0.151,0.27459,1.0003,9.0221,0.11606,0.18234,-0.43433
0.15225,0.17652,1.1376,9.179,-0.054672,0.18326,-0.43249
0.1405,0.17652,1.1964,9.3359,-0.057421,0.19303,-0.43371
0.13235,0.25497,1.3337,9.0613,0.079718,0.18357,-0.11362
0.13828,0.35304,0.94144,8.9044,0.080329,0.21533,-0.13989
0.12378,0.76492,1.0003,8.7083,0.11576,0.2416,-0.13867
0.1026,1.0395,1.0003,8.9437,0.16616,0.26084,-0.10996
0.073456,0.66685,0.94144,9.0417,0.21258,0.27245,-0.091019
0.048859,0.41188,1.0003,9.1202,0.24954,0.27642,-0.082161
0.022644,0.13729,1.2553,9.3555,0.27947,0.28008,-0.083994
-0.020416,0.11768,1.6475,9.5125,0.31001,0.27703,-0.096517
-0.068909,-0.039227,1.8829,9.5125,0.33109,0.25534,-0.22633
-0.1055,-0.27459,2.0202,9.5125,0.35858,0.21808,-0.21686
-0.12067,-0.5884,2.334,9.5125,0.4102,0.17196,-0.17257
-0.15936,-0.68647,2.6478,9.5125,0.49266,0.12187,-0.19945
-0.17996,-0.45111,3.197,9.3752,0.59284,0.072998,-0.22113
-0.17661,-0.21575,3.5108,9.2183,0.6915,0.034208,-0.23702
-0.16556,0.11768,3.2166,9.2575,0.77091,0.020159,-0.24312
-0.17847,-0.078453,2.8243,9.4928,0.82497,0.034514,-0.23854
-0.17911,-0.50995,2.8243,9.787,0.85124,0.063225,-0.087965
-0.17847,-0.76492,2.9616,9.9439,0.84208,0.097433,-0.057116
-0.18161,-0.70608,3.1381,9.9832,0.7984,0.135,-0.20586
-0.1846,-1.216,3.4912,9.8066,0.73609,0.17226,-0.19303
-0.18594,-1.1572,3.5108,9.0221,0.67165,0.20128,-0.17318
-0.18408,-0.98067,3.6677,8.316,0.62033,0.21716,-0.14936
-0.1412,-0.5884,3.7658,8.1787,0.5904,0.21838,-0.12889
-0.087463,-0.019613,3.8246,7.963,0.57727,0.20953,-0.10873
-0.029083,-0.35304,4.1188,8.1591,0.32742,0.20403,0.025656
0.026764,-0.2942,3.9815,8.2376,0.56597,0.208,0.033598
0.087158,-0.66685,3.7658,8.316,0.54856,0.21716,-0.019242
0.13489,-0.64724,3.5892,8.3945,0.5229,0.23182,0.0073304
0.17221,-0.68647,3.5108,8.3749,0.48839,0.24435,0.023213
0.18338,-0.68647,3.55,8.7083,0.45723,0.24496,0.028405
0.19205,-0.64724,3.805,8.8848,0.42119,0.23488,0.02474
0.18912,-0.84337,3.8442,8.8652,0.37141,0.21533,0.023518
0.17496,-0.80415,3.7461,8.6299,0.33078,0.00061087,-0.011606
0.1796,-0.68647,3.805,8.5514,0.29932,0.025351,0.0097738
0.17667,-0.76492,3.903,8.7083,0.27611,0.040012,-0.14386
0.17807,-1.0199,4.158,8.8456,0.27122,0.047037,-0.11606
0.16644,-1.1376,4.2953,9.0613,0.28497,0.047647,-0.094684
0.14923,-0.98067,4.158,9.2183,0.31062,0.047037,-0.076053
0.13516,-1.3337,4.3149,9.1986,0.37141,0.051618,-0.055894
0.12973,-1.4318,4.6091,9.5713,0.36011,0.063835,-0.035125
0.1239,-1.6475,4.7464,9.7282,0.30543,0.080634,0.070555
0.13,-1.7064,4.8445,9.7478,0.25137,0.10018,0.072082
0.13867,-1.9025,5.021,9.4928,0.19028,0.12401,0.033903
0.16125,-2.0202,4.9229,9.3163,0.13928,0.14875,0.05284
0.17847,-1.9417,4.9622,9.1202,0.10873,0.16707,0.061392
0.20627,-1.8437,5.4525,9.0417,0.10201,0.17898,0.068417
0.24377,-1.8437,5.3937,8.8064,0.33842,0.18876,0.073915
0.29462,-1.9025,5.4721,8.4141,0.34208,0.19242,0.071777
0.35092,-1.9417,5.5506,8.1199,0.11851,0.19273,0.14722
0.40894,-1.9613,5.5898,8.1199,0.1014,0.19212,0.15241
0.45001,-2.1575,5.7271,8.316,0.069639,0.18998,0.078191
0.49347,-2.0986,5.884,8.1003,0.021075,0.19731,0.086132
0.5426,-2.1182,5.531,7.9042,-0.044288,0.21075,0.097433
0.5856,-2.0594,5.3937,7.8649,-0.10996,0.22999,0.10965
0.61533,-2.079,5.4721,7.8453,0.11332,0.24954,0.12401
0.61227,-2.2359,5.7859,8.1787,0.12309,0.25962,0.13928
0.62753,-2.1575,5.7859,8.218,0.44502,0.065668,-0.19028
0.63528,-2.0986,5.4721,8.1199,0.43127,0.039095,-0.1689
0.6236,-2.2359,5.5506,8.1199,0.40378,0.014661,-0.24557
0.60513,-2.2751,5.5506,8.1787,0.3824,-0.0085521,-0.25076
0.58777,-1.9613,5.6486,8.4337,0.3711,-0.023518,-0.25259
0.56604,-2.0986,5.884,8.8652,0.36377,-0.029627,-0.24282
0.53165,-2.2555,6.0213,9.0025,0.36163,-0.030543,-0.2303
0.49905,-2.4124,5.9624,9.1202,0.36652,-0.02138,-0.21136
0.45807,-2.2751,5.8448,9.0417,-0.19945,-0.16829,0.23854
0.43115,-2.7262,5.884,9.1986,-0.17532,-0.1741,0.18112
0.4104,-2.3144,6.0213,9.0613,-0.15944,-0.1741,0.31826
0.38739,-2.2751,6.2763,9.0417,-0.16799,-0.16982,0.32956
0.37048,-2.1575,6.0997,8.8652,-0.20495,-0.16768,0.33995
0.36398,-2.2163,5.884,8.5514,-0.26848,-0.17013,0.33934
0.3606,-2.1575,5.7859,8.5318,-0.34575,-0.17776,0.31826
0.35745,-1.7848,6.0213,8.7083,-0.40684,-0.19609,0.28405
0.34354,-1.9025,6.0213,8.9437,-0.43188,-0.22724,-0.064752
0.35809,-2.4124,5.7859,8.7475,-0.40225,-0.25931,-0.069639
0.35498,-2.2751,5.374,8.316,-0.32345,-0.28191,0.11576
0.35971,-2.0202,5.3348,8.3945,-0.21686,-0.281,0.0562
0.34271,-2.0202,5.5702,8.4141,-0.12523,-0.26328,0.011606
0.33484,-2.0202,5.7075,8.218,-0.09163,-0.23457,-0.019853
0.34631,-2.0986,5.276,7.8061,-0.12004,-0.19884,-0.046731
0.36627,-1.7652,5.1583,7.8649,-0.18601,-0.16829,-0.060781
0.36395,-1.8437,5.3152,7.9042,0.072388,-0.16585,0.28833
0.37878,-1.9417,5.4721,8.0022,0.069333,-0.1628,0.28375
0.38965,-1.7848,5.5506,8.0807,0.042455,-0.17562,0.26573
0.39929,-1.9417,5.7075,8.1199,0.016493,-0.19303,0.26695
0.39536,-1.6083,5.3937,7.9434,0.010385,-0.20525,0.27458
0.39856,-1.7064,5.276,7.9434,0.030849,-0.20495,0.27825
0.40503,-1.4514,5.4721,8.218,0.063835,-0.19456,0.27703
0.38846,-1.3337,5.5702,8.3749,0.082161,-0.1799,0.28222
0.36975,-1.5298,5.3937,8.2768,0.081856,-0.1686,0.29047
0.34094,-1.5298,4.9033,8.1787,0.060476,-0.16677,0.30482
0.30133,-1.118,4.2953,7.9434,0.022907,-0.16952,0.27214
0.27066,-0.80415,4.4326,7.9434,-0.025962,-0.16646,0.26114
0.22491,-0.50995,4.8445,8.2768,-0.086743,-0.16096,0.26389
0.18399,-0.70608,5.2171,8.5318,-0.15027,-0.15882,0.27794
0.13632,-0.68647,4.9622,8.5514,-0.19426,-0.16066,0.28436
0.09375,-0.60801,4.7072,8.5514,-0.20922,-0.16218,0.28497
0.051117,-0.27459,4.3345,8.6887,-0.13378,0.029016,0.040317
0.021423,0.039227,4.1776,8.7083,-0.10079,0.027184,0.040012
-0.0092468,0.13729,4.1776,8.8064,-0.063225,0.013439,0.052534
-0.043762,0.11768,4.158,8.9437,-0.029016,-0.0030543,0.043982
-0.071045,0.039227,4.1384,9.0417,-0.0064141,-0.019242,0.03879
-0.10303,0.13729,3.9619,9.1202,0.00061087,-0.03146,0.036957
-0.13303,0.098066,3.55,9.0221,-0.1689,-0.037568,0.037263
-0.16531,0.2942,3.3539,9.0221,-0.15791,-0.041539,0.039706
-0.18237,0.56879,3.3539,9.0417,-0.3375,-0.11332,0.17746
-0.19879,0.5884,3.3931,9.1594,-0.34636,-0.12339,0.17746
-0.21954,0.5884,3.2166,9.0613,-0.33231,-0.13195,0.19364
-0.24384,0.50995,3.0793,9.0417,-0.29627,-0.14294,0.18784
-0.24796,0.80415,2.8832,8.9044,-0.2532,-0.15547,0.18418
-0.25357,0.90221,2.9812,8.8652,-0.22144,-0.16707,0.18265
-0.25864,0.80415,3.1381,8.6299,-0.20036,-0.17776,0.18021
-0.26624,1.0395,3.3343,8.7083,-0.19181,-0.18326,0.17715
-0.25082,1.0199,3.4519,8.7868,-0.19395,-0.18143,0.15211
-0.22577,0.74531,3.4912,8.8652,-0.208,-0.17074,0.14722
-0.21545,0.96105,3.3931,8.8064,-0.22694,-0.15913,0.17715
-0.20483,0.82376,3.3735,8.8064,-0.25107,-0.14539,0.17837
-0.19238,0.80415,3.2754,8.8848,-0.27306,-0.12706,0.17532
-0.17664,0.66685,3.3735,9.1202,-0.27703,-0.11026,0.16707
-0.16214,0.80415,3.3931,9.2575,-0.26237,-0.096822,0.15791
-0.16949,0.45111,3.4912,9.5125,-0.24038,-0.083383,0.15516
-0.17752,0.56879,3.3931,9.5125,-0.17013,-0.071471,0.079107
-0.18024,0.56879,3.2754,9.434,-0.15119,-0.059254,0.065363
-0.18729,0.5884,3.2754,9.2771,-0.14386,-0.043066,0.14142
-0.19327,0.49033,3.4519,9.2575,-0.14905,-0.024129,0.13225
-0.20227,0.74531,3.4519,9.2575,-0.15821,-0.0033598,0.12584
-0.19556,0.72569,3.4519,9.3163,-0.16707,0.012217,0.12034
-0.19772,0.76492,3.3539,9.3752,-0.2193,0.023213,0.10751
-0.19397,0.60801,3.197,9.3555,-0.19487,0.027794,0.091324
-0.20157,0.45111,3.1774,9.434,-0.0085521,0.18754,0.27031
-0.18768,0.098066,3.1381,9.6497,0.018937,0.19792,0.26084
-0.16611,0.11768,3.2754,9.689,0.040012,0.20861,0.30879
-0.15378,0.43149,3.1774,9.5713,0.049786,0.21594,0.31001
-0.15598,0.35304,3.197,9.434,0.043677,0.21777,0.30665
-0.18698,0.27459,3.0793,9.434,0.02138,0.2138,0.3036
-0.16064,0.39227,3.0401,9.434,-0.0085521,0.20647,0.29444
-0.15253,0.39227,3.2754,9.3163,-0.029627,0.197,0.28253
-0.13922,0.41188,3.2362,9.3359,-0.086132,-0.078802,0.47403
-0.1301,0.60801,3.2166,9.2771,-0.11301,-0.057421,0.4722
-0.12961,0.49033,3.197,9.1594,-0.1347,-0.034514,0.39065
-0.13434,0.66685,3.2754,9.3359,-0.14508,-0.011912,0.40867
-0.12024,0.66685,3.3343,9.1986,-0.15027,0.010385,0.42944
-0.11911,0.54917,3.5108,9.179,-0.15272,0.034819,0.4441
-0.12701,0.74531,3.4519,9.2183,-0.15699,0.055589,0.45723
-0.13364,0.80415,3.5108,9.0417,-0.16096,0.071777,0.46884
-0.13016,0.66685,3.5108,9.0417,-0.16646,0.077885,0.36316
-0.11942,0.5884,3.6677,8.9044,-0.16799,0.080023,0.34117
-0.11588,0.56879,3.6873,8.9437,-0.16249,0.088575,0.46365
-0.11942,0.80415,3.7069,8.7083,-0.14905,0.096517,0.45173
-0.1134,0.90221,3.6677,8.8456,-0.11759,0.10599,0.4383
-0.11383,0.54917,3.8442,8.9437,-0.076664,0.11759,0.42333
-0.11667,0.70608,4.0011,9.0221,-0.038485,0.12462,0.40623
-0.13205,0.5884,4.3345,9.1202,-0.0036652,0.12706,0.38485
-0.15448,0.56879,4.4718,9.2183,0.019853,0.12645,0.29993
-0.16611,0.39227,4.6287,9.3359,0.021075,0.12981,0.30482
-0.17938,0.49033,4.5307,9.1986,0.0039706,0.13897,0.32742
-0.20343,0.60801,4.5895,9.2771,-0.017104,0.14966,0.31765
-0.20743,0.5884,4.6091,9.3359,-0.029932,0.15638,0.30727
-0.21375,0.27459,4.766,9.2575,-0.036346,0.1628,0.30024
-0.20367,0.27459,4.8053,9.179,-0.038179,0.17135,0.29474
-0.19531,0.35304,4.766,9.1006,-0.029016,0.1799,0.29444
-0.18213,0.49033,4.6091,8.8652,0.039401,0.12737,0.083078
-0.16818,0.70608,4.5307,8.6495,0.054672,0.11148,0.08094
-0.11768,0.82376,4.6876,8.4926,0.06017,0.093768,0.092241
-0.085693,0.74531,4.8445,8.5514,0.055589,0.081856,0.086132
-0.053375,0.90221,4.7856,8.5514,0.053145,0.076358,0.083383
-0.041626,0.96105,4.6287,8.5514,0.05284,0.071777,0.078496
-0.023987,0.92183,4.6287,8.6495,0.055283,0.072388,0.077274
-0.0043335,0.86299,4.6287,8.7083,0.059559,0.076664,0.080634
0.0072632,0.98067,4.6287,8.8652,0.069333,0.079412,0.007025
-0.0020142,0.90221,4.7072,8.9437,0.075442,0.080023,-0.01405
-0.026764,1.0395,4.6876,9.0025,0.076358,0.076664,0.078496
-0.036163,0.90221,4.7072,8.8848,0.078191,0.070555,0.07422
-0.038391,1.1768,4.6287,8.8652,0.076969,0.066279,0.062308
-0.05014,1.118,4.6287,8.8456,0.073609,0.062308,0.04948
-0.061371,1.1964,4.766,8.7083,0.059865,0.054978,0.03879
-0.04071,1.216,4.8053,8.6887,0.064141,0.049175,0.025351
-0.055054,1.4906,4.6484,8.6299,0.092241,0.041233,-0.17257
-0.040222,1.1768,4.6484,8.8064,0.10751,0.029016,-0.20311
-0.031189,1.2945,4.5307,8.7083,0.1292,0.015882,-0.033598
-0.014465,1.0199,4.6287,8.8652,0.15852,0.0042761,-0.05284
0.014893,0.90221,4.6287,8.7083,0.19975,-0.007025,-0.074831
0.041412,0.76492,4.6287,8.8064,0.25351,-0.012523,-0.096211
0.060089,0.86299,4.6287,8.8064,0.072388,-0.011606,-0.11973
0.096558,0.70608,4.6287,8.5906,0.07758,-0.0042761,-0.14478
0.13739,0.74531,4.6287,8.4141,0.47128,0.012217,-0.41661
0.16577,0.80415,4.4914,8.0611,0.54489,0.036957,-0.47159
0.20847,0.70608,4.5307,7.6884,0.57727,0.080329,-0.23854
0.26709,0.74531,4.6287,7.61,0.53084,0.14539,-0.27611
0.32718,0.5884,5.1583,8.0611,0.40897,0.23213,-0.30665
0.40131,0.27459,5.884,8.5514,0.25381,0.33292,-0.32773
0.43912,-0.23536,5.7467,8.3945,0.31337,0.42913,-0.34972
0.53586,-0.64724,5.0995,8.0022,0.38943,0.51099,-0.37354
0.62201,-0.50995,4.5307,7.1589,0.94318,2.664,-1.2055
0.71487,-0.54917,4.0207,6.4332,0.67623,2.6145,-1.1579
0.82922,-0.21575,3.8638,5.7075,0.52046,2.5821,-1.1866
0.9501,-0.019613,3.7658,5.5506,0.47495,2.5446,-1.2825
1,-0.45111,3.8246,5.276,0.48045,2.4804,-1.3124
1,-0.84337,3.7658,5.1387,0.47953,2.3909,-1.292
1,-1.3925,5.3937,7.0608,0.45387,2.3017,-1.2602
1,-3.4912,7.2177,7.6884,0.42822,2.2168,-1.2367
1,-3.7854,6.6489,7.3158,0.42241,2.131,-0.80634
1,-3.6285,4.6484,6.0801,0.43952,2.0339,-0.79687
1,-4.0992,3.6677,5.8644,0.45876,1.9199,-1.0965
1,-4.7464,3.6481,5.9232,0.44654,1.7911,-1.0275
1,-5.374,4.0796,5.5506,0.39767,1.6567,-0.93432
1,-5.8448,4.4914,5.3544,0.33628,1.5226,-0.85246
1,-6.5508,5.9624,6.0801,0.30757,1.3882,-0.82009
1,-7.7473,7.0019,6.4332,0.34086,1.2443,-0.81306
1,-7.5903,6.5901,6.0801,0.40623,1.0886,-0.5678
1,-8.0218,5.9428,5.8644,0.45448,0.9279,-0.46487
1,-8.2964,6.1978,5.9821,0.48533,0.75778,-0.76205
1,-8.218,6.7274,6.1978,0.51526,0.56963,-0.70585
1,-8.0807,6.8058,5.9036,0.52107,0.35308,-0.68783
1,-8.2768,7.1196,6.0801,0.49786,0.10507,-0.68661
1,-8.1984,7.2765,6.2959,0.48503,-0.15821,-0.67348
1,-8.0415,6.5901,6.5312,0.51649,-0.4383,-0.64171
1,-7.8061,5.8448,7.1785,0.91813,2.7122,-0.88514
1,-7.4138,5.884,8.2768,1.1842,2.7474,-1.0311
1,-7.3942,6.0997,9.1594,1.4291,2.7541,-0.74862
1,-8.0415,6.1782,9.9047,1.6304,2.7684,-0.75014
1,-8.2964,5.9624,10.062,1.7391,2.8075,-0.81001
1,-9.0025,5.7467,10.258,1.7116,2.832,-0.87995
1,-9.2379,5.4721,9.8851,1.5379,2.8054,-0.8769
1,-9.4536,5.2171,9.2183,1.2569,2.7351,-0.84269
1,-10.101,4.9229,8.4141,-0.1967,1.4151,-0.85918
1,-10.493,6.0409,7.61,-0.43341,1.8625,-0.86346
1,-10.395,7.8845,7.0804,-0.65821,2.2797,-0.16188
1,-10.63,8.7868,6.9235,-0.85613,2.6399,-0.27031
1,-10.434,8.218,6.5312,-1.0189,2.9263,-0.41325
1,-10.415,7.1392,5.7467,-1.1234,3.1432,-0.57482
1,-9.8655,6.0997,4.7856,0.049786,3.2975,-0.72204
1,-9.2771,5.629,3.8246,-0.0073304,3.4166,-0.81734
1,-8.4533,5.1779,2.9812,-1.1567,3.5397,-0.94134
1,-7.61,5.021,2.4713,-1.146,3.7107,-0.93462
1,-6.3547,5.1583,2.432,-1.1264,3.9502,-0.83261
1,-5.7271,5.884,2.687,-1.0931,4.2406,-0.78985
1,-4.9229,6.5116,2.5301,-1.0547,4.5424,-0.77213
1,-4.5307,6.492,1.9809,-1.0437,4.8145,-0.8097
1,-4.2757,5.7075,0.64724,-1.1664,5.0192,-0.87384
1,-3.4912,4.4522,-1.5102,-1.1671,5.1585,-0.91813
1,-2.7851,3.5108,-2.8047,-1.4923,5.2333,-0.048564
1,-2.1182,3.0401,-2.8832,-1.1506,5.2406,0.091019
1,-1.7652,3.4519,-2.1378,-1.3027,5.1859,-0.89461
1,-2.6478,4.3934,-1.3925,-1.3732,5.0625,-0.82497
1,-3.3146,5.3348,-0.54917,-1.3378,4.8744,-0.7196
1,-3.9815,5.8644,-0.19613,-1.3039,4.6352,-0.56566
1,-4.2561,6.0997,0.15691,-1.3357,4.3695,-0.3821
1,-4.4522,6.2763,0.54917,-1.4096,4.0992,-0.20433
1,-5.374,6.9039,1.3533,-0.94501,-1.9041,-0.0048869
1,-8.3553,7.61,2.5693,-1.0846,-1.5922,-0.081856
1,-11.533,8.6299,4.4914,-1.065,-1.2538,0.62033
0.92773,-12.317,9.9439,5.6094,-0.91233,-0.87445,0.47525
0.77515,-12.533,10.415,5.7467,-0.67562,-0.45509,0.35125
0.69281,-12.454,9.3555,5.276,-0.41722,-0.0097738,0.25412
0.61459,-11.905,9.1006,6.0801,-0.19334,0.46273,0.17135
0.55219,-10.532,8.7083,6.6685,-0.03146,0.94409,0.082161
0.49478,-9.4732,8.0415,6.845,3.0727,-3.3524,1.7211
0.42834,-8.9241,7.1196,6.4332,3.1826,-3.4434,1.7691
0.35645,-7.7669,6.7274,5.7663,3.3485,-3.5006,0.8152
0.27316,-7.4138,6.5312,5.5506,3.5109,-3.5775,1.0229
0.16608,-7.1196,6.1978,5.4917,3.598,-3.653,1.1784
0.052917,-7.1196,6.0213,5.7663,3.441,-3.675,1.2944
-0.05304,-6.8058,6.139,6.237,3.0268,-3.6768,1.4383
-0.13702,-6.492,6.0605,6.3547,2.3857,-3.6802,1.6209
-0.18466,-6.139,5.7075,6.0213,1.4817,-3.6826,1.9801
-0.22372,-5.8644,5.1779,5.6682,0.60781,-3.6811,1.9196
-0.23331,-5.531,4.6287,5.7663,0.0067195,-3.6878,1.846
-0.2457,-5.5506,3.6481,5.8055,-0.50702,-3.7318,1.8622
-0.27509,-5.5113,3.1381,5.7663,-1.0174,-3.7724,1.8775
-0.31778,-5.5113,3.5108,5.5702,-1.3693,-3.7858,1.9771
-0.39862,-5.4133,4.3934,5.4329,-1.4484,-3.8026,2.069
-0.4769,-6.1586,5.1191,5.7271,-1.3036,-3.8185,2.0568
-0.55066,-6.8254,5.2564,6.1978,1.4923,0.21869,-0.69608
-0.6171,-7.4923,5.1583,6.3351,1.9261,0.020159,-0.62766
-0.67117,-8.0807,5.531,5.7467,2.2571,-0.17349,-0.73457
-0.63046,-8.4337,6.3155,5.4329,2.5061,-0.36988,-0.77122
-0.54358,-8.3749,6.5705,5.5702,2.7052,-0.57024,-0.78832
-0.39435,-9.1202,6.0997,5.0798,2.8698,-0.76664,-0.78985
-0.19,-10.748,5.5506,4.3149,3.0195,-0.967,-0.7703
0.071716,-13.886,5.6879,3.8638,3.16,-1.1851,-0.73762
0.38266,-16.377,7.0019,4.1972,3.2855,-1.4371,0.45143
0.70401,-16.495,8.7868,4.8053,3.3857,-1.7242,0.61117
0.96536,-15.455,9.179,5.4917,3.4496,-2.0165,-0.52351
1,-14.259,8.1591,4.413,3.452,-2.2981,-0.38729
1,-13.102,7.0608,3.5108,3.3445,-2.5693,-0.23854
1,-12.043,6.3155,2.1378,3.178,-2.8091,-0.08827
1,-10.728,4.6091,1.1768,3.0644,-3.0253,0.096822
1,-9.1202,3.3539,1.216,3.0366,-3.2089,0.29322
1,-7.9826,2.7655,1.0199,-1.3424,3.7214,0.76144
1,-7.2569,2.8243,0.86299,-1.5739,3.5424,0.71654
1,-6.9823,3.5304,0.72569,-1.7339,3.3723,0.52565
1,-7.1196,4.3345,0.54917,-1.8063,3.2135,0.55864
1,-7.2373,4.6287,0.54917,-1.7984,3.0711,0.59193
1,-7.2569,4.8053,0.8826,-1.7168,2.9383,0.64507
1,-6.0997,5.0602,0.64724,-0.85949,2.8081,0.70677
1,-5.531,5.0602,-0.078453,-1.0873,2.6802,0.75411
1,-4.4522,4.6484,-0.60801,-0.15211,1.5357,-0.68661
1,-3.6481,4.2169,-0.86299,-0.16524,1.8555,-0.70005
1,-3.197,4.0796,-0.86299,-0.22083,2.1805,-0.53237
1,-3.1185,4.2953,-0.47072,-0.32162,2.5146,-0.58215
1,-2.8635,4.6287,-0.52956,-0.47037,2.8595,-0.63041
1,-3.4716,5.1191,-0.41188,-0.67684,3.2046,-0.65546
1,-4.0992,6.0017,-0.37265,-0.9331,3.5439,-0.66371
1,-5.0602,6.5901,0.31381,-1.2251,3.864,-0.67409
1,-6.237,6.845,1.4122,-1.5482,4.1536,-0.50793
1,-7.8845,7.9434,2.9028,-1.9175,4.4056,-0.38454
1,-9.0025,8.571,3.5108,-2.328,4.6249,-0.69394
0.9035,-9.9439,8.0807,3.7854,-2.7413,4.7956,-0.66371
0.56866,-10.885,6.9627,3.5696,-3.0748,4.9092,-0.64782
0.20471,-12.121,6.2763,4.0011,-3.2446,4.974,-0.65179
-0.1561,-12.298,5.8448,4.6091,-3.2101,4.9987,-0.64019
-0.50897,-12.298,6.5312,5.9036,-2.9975,4.9865,-0.59193
-0.81964,-11.807,7.61,6.9627,-1.8738,4.9349,0.45937
-0.99796,-10.944,8.4729,7.3158,-1.4563,4.8445,0.49114
-0.99997,-9.5517,8.3945,7.0019,-1.0794,4.7284,-0.24007
-0.99997,-9.0613,7.7669,6.8058,-0.80176,4.6016,-0.095295
-0.99997,-8.7475,6.845,6.6097,-0.67042,4.4648,0.046426
-0.99997,-8.9044,5.7075,6.6489,-0.7028,4.3051,0.18845
-0.99997,-8.5122,4.7072,7.1196,-2.6704,4.1212,0.32406
-0.99997,-7.963,3.903,6.9235,-2.2843,3.9184,0.41478
-0.99997,-7.0412,3.1381,6.6685,0.76419,-2.1979,0.76633
-0.99997,-6.237,2.5105,5.9036,0.8882,-2.4465,0.89339
-0.99997,-4.6287,3.0793,4.9229,1.0843,-2.697,-0.010079
-0.99997,-4.0011,4.7856,4.5699,1.3137,-2.9404,0.080329
-0.9682,-3.8246,6.8058,5.1191,1.514,-3.1756,0.18051
-0.79074,-4.3542,7.7865,6.3547,1.6249,-3.4056,0.2981
-0.60287,-5.0014,8.0807,6.9235,1.642,-3.6322,0.4496
-0.45209,-5.531,8.5318,6.8058,1.6005,-3.8546,0.61728
-0.28418,-6.6685,8.8652,6.6489,1.5415,-4.0784,1.6976
-0.12555,-8.0807,8.6102,6.5312,1.5134,-4.3063,1.6863
-0.00067139,-9.4732,7.8845,5.9821,1.5168,-4.5228,0.98349
0.073883,-10.395,7.2961,5.4525,1.5137,-4.7055,1.0476
0.10791,-10.944,6.9823,4.8641,1.4508,-4.846,1.1383
0.11401,-11.69,7.3158,4.4914,1.3027,-4.9642,1.2996
0.11755,-12.611,7.5903,3.9227,1.1084,-5.0564,1.5116
0.10513,-13.71,7.5315,3.5304,0.92363,-5.1007,1.6597
0.12769,-14.161,6.845,2.589,0.80695,-5.0971,1.5678
0.17377,-13.827,6.9039,2.0006,0.79535,-5.0659,1.5217
0.24158,-13.729,6.9823,1.8044,0.8769,-5.0235,1.6832
0.34497,-13.533,6.2763,1.8044,0.99785,-4.974,1.7046
0.44843,-13.259,5.3937,1.1768,1.0983,-4.9114,1.7287
0.59201,-13.357,5.1583,0.43149,1.1411,-4.824,1.7306
0.71289,-12.592,5.3937,-0.05884,1.1026,-4.7183,1.6955
0.83121,-11.984,5.8644,0.21575,0.98807,-4.5928,1.6331
0.93735,-11.121,6.1782,0.33343,0.81153,-4.4511,0.80848
1,-10.63,6.0017,0.21575,0.60903,-4.2987,0.64477
1,-9.9243,5.7075,-0.23536,0.42028,-4.1392,1.4826
1,-9.2183,5.021,-0.37265,0.25717,-3.967,1.4132
1,-8.1199,4.3345,-0.8826,0.12187,-3.7883,1.3247
1,-6.9431,4.158,-1.3337,0.013744,-3.6111,1.2382
0.99597,-5.884,4.2365,-1.4122,-0.04948,-3.4325,1.1277
0.92511,-4.7856,4.5895,-1.4122,-0.061697,-3.2596,0.978
0.84076,-3.5108,4.9229,-1.8633,0.208,5.2165,-0.41264
0.74765,-2.3732,5.3348,-1.9417,0.17165,5.0714,-0.2306
0.66797,-1.5298,5.5506,-1.8829,-0.036041,4.8991,-0.71654
0.58047,-1.5887,5.6486,-1.9613,-0.3882,4.6985,-0.7138
0.42999,-1.9417,5.3937,-2.0202,-0.83108,4.4767,-0.67959
0.26575,-2.687,5.2368,-1.1376,-1.3106,4.2599,-0.62797
0.090973,-4.1384,6.5705,0.37265,-1.7904,4.0537,-0.60292
-0.067322,-5.6094,8.9241,1.8044,-2.2181,3.8601,-0.5455
-0.23676,-6.7862,10.983,3.4127,-2.5617,3.6899,0.48258
-0.36588,-7.3354,10.356,3.0597,-2.8127,3.5415,0.50916
-0.47897,-7.9042,8.9241,2.4517,-2.9233,3.3912,-0.034819
-0.58533,-9.3752,7.355,1.6867,-2.865,3.2296,0.14478
-0.68094,-10.905,6.3155,2.0006,-2.689,3.0751,0.27306
-0.74146,-11.65,6.4332,3.2362,-2.4816,2.9276,0.35522
-0.75003,-12.062,7.6688,4.766,-2.3088,2.7791,0.41814
-0.7113,-12.317,8.9437,5.5702,-2.178,2.6344,0.45998
-0.61151,-11.886,9.5125,5.6682,-1.784,2.4954,-0.20556
-0.46643,-11.258,9.3163,5.4329,-1.6307,2.3586,-0.30238
-0.2901,-10.63,8.1003,4.9229,-1.4755,2.2196,0.50732
-0.13065,-11.317,6.4135,5.1191,-1.3494,2.0663,0.45051
-0.014252,-11.317,5.021,5.3544,-1.2394,1.8793,0.34147
0.042389,-10.375,4.3345,5.9036,-1.1359,1.6835,0.17471
0.049011,-9.6301,3.6677,6.2174,-2.0556,1.496,0.0088575
0.018951,-9.8066,3.2754,6.3743,-1.9236,1.3045,-0.10843
-0.053284,-9.9243,2.8243,7.1589,-0.91691,1.12,-0.69303
-0.14926,-8.8652,2.4124,8.0611,-0.78557,0.94165,-0.68264
-0.24289,-7.3942,2.6086,8.1199,-0.58918,0.74342,-0.41417
-0.37448,-6.4724,2.8635,7.8649,-0.35949,0.51435,-0.53481
-0.508,-6.3351,2.7655,8.0022,-0.12401,0.26359,-0.6295
-0.64008,-6.492,2.6086,8.1003,0.1124,-0.0076358,-0.68936
-0.78214,-6.6293,2.7262,8.3945,-1.0522,-0.29719,-0.71593
-0.91653,-6.8843,3.0204,8.316,-0.99174,-0.59865,-0.71166
-0.99997,-7.5903,3.5892,8.3945,-0.65912,-3.4117,0.65088
-0.99997,-9.3752,3.7658,8.4926,-1.3127,-3.1496,0.61942
-0.99997,-10.179,4.158,8.218,-1.7431,-2.8598,1.2098
-0.99997,-11.886,5.021,8.2572,-1.8897,-2.5562,1.0046
-0.99997,-13.67,6.7862,8.316,-1.7856,-2.2455,0.8436
-0.99997,-14.455,8.3553,7.61,-1.4954,-1.9169,0.75686
-0.99997,-14.788,9.3555,6.5312,-1.0855,-1.5577,0.7138
-0.99997,-14.788,8.3945,6.1193,-0.6295,-1.1793,0.68264
-0.99997,-14.514,6.2174,5.1387,-0.21105,-0.78832,-0.32467
-0.99997,-13.847,5.5506,3.6677,0.11179,-0.37446,-0.44196
-0.95087,-12.729,6.9431,2.2163,0.29749,0.081856,0.60353
-0.88306,-11.356,6.9431,1.6867,0.31093,0.57727,0.58979
-0.77048,-10.179,6.2763,1.4122,0.15058,1.0846,0.52565
-0.63986,-9.5321,6.6293,1.2749,-0.13103,1.5776,0.35797
-0.48032,-9.0025,6.9823,1.471,-0.45082,2.0305,0.10751
-0.32367,-8.4337,7.0412,1.5102,-0.73731,2.4349,-0.13867
-0.16986,-7.6688,7.9826,1.216,-0.94562,2.799,-0.67867
-0.044678,-7.1,7.61,0.72569,-1.0644,3.1218,-0.72449
0.031067,-6.0801,5.7075,-0.78453,-1.098,3.4187,-0.50152
0.058014,-4.7464,3.5892,-2.5693,-1.0525,3.6933,-0.52962
0.064056,-3.0989,2.4909,-4.2365,-0.95234,3.956,-0.55711
0.0802,-2.2163,2.6478,-4.06,-0.83811,4.2113,-0.59773
0.10461,-1.5298,3.5892,-2.7655,-0.74984,4.4633,-0.63438
0.096985,-2.0006,4.5895,-1.4122,-0.73701,4.7186,-0.65851
0.063721,-2.6478,5.0995,-1.3337,3.2837,-5.1053,1.4251
-0.0066528,-3.2754,5.1191,-1.4514,3.1493,-4.955,1.3705
-0.086426,-3.8442,5.1583,-1.5691,2.8698,-4.7898,1.3751
-0.17282,-4.9426,5.2564,-1.5495,2.4618,-4.6114,1.5302
-0.26846,-6.4135,5.5506,-1.1572,1.9725,-4.4178,1.616
-0.3681,-8.3553,6.3351,0.11768,1.4224,-4.1908,1.6069
-0.48108,-10.728,7.9042,1.824,0.79443,-3.9269,1.5244
-0.55881,-13.102,9.179,2.9812,0.084299,-3.6615,1.4478
-0.60583,-14.867,9.0221,2.8243,-0.17318,-0.046426,-0.74434
-0.61017,-16.22,8.6691,2.4713,-0.029016,-0.22358,-0.70677
-0.58438,-16.083,8.6102,2.6674,0.16463,-0.40714,-0.67898
-0.5134,-15.279,9.1006,3.7658,0.35247,-0.59834,-0.75533
-0.42596,-13.769,10.042,4.7268,0.51007,-0.78649,-0.79779
-0.32068,-12.317,10.415,5.0995,0.62583,-0.97189,-0.80879
-0.18054,-10.866,9.8263,5.0995,-0.21075,-1.1521,-0.80726
-0.040314,-9.787,8.8652,4.9426,-0.22969,-1.3314,-0.7871
0.086304,-8.6691,8.5318,4.6484,0.7141,-1.5372,-0.71746
0.17639,-8.3357,7.6688,4.6287,0.8491,-1.7651,-0.68814
0.24469,-8.0415,6.4332,4.4522,1.1102,-1.9902,-0.69822
0.2634,-7.7669,5.0995,4.158,1.4658,-2.229,-0.71257
0.2428,-7.2569,4.158,4.158,1.8876,-2.4884,-0.74312
0.18765,-7.1785,3.4912,4.413,2.3402,-2.7535,-0.76755
0.11218,-6.9627,3.197,4.8053,0.68081,-3.0216,-0.76725
0.033264,-6.9431,3.1381,5.3937,0.68692,-3.2962,-0.74403
-0.047485,-6.8254,3.197,6.0605,-2.919,2.4658,0.98869
-0.11697,-6.8647,3.3735,6.5901,-2.6585,2.317,0.83047
-0.16629,-6.6489,3.6677,6.5312,-2.3616,2.1735,1.2333
-0.23007,-6.1978,4.2953,6.6685,-2.0198,2.0327,1.274
-0.26892,-5.7271,4.8641,6.6097,-1.6765,1.9032,1.2746
-0.30789,-5.6682,4.7072,6.747,-1.3662,1.7877,1.2407
-0.36478,-5.3937,4.4522,6.7666,-1.091,1.6725,1.1857
-0.43576,-5.0406,4.9229,7.4334,-0.8491,1.543,1.1069
-0.51706,-5.531,5.884,7.8649,-0.64966,1.4041,-0.5058
-0.60196,-6.7666,6.492,7.9434,-0.49999,1.2605,-0.59468
-0.68396,-7.8845,5.9428,7.3746,-0.39187,1.1066,0.64202
-0.7532,-9.081,5.2564,6.845,-0.31154,0.93523,0.43127
-0.8201,-9.9636,5.1191,6.1978,-0.24618,0.74464,0.21564
-0.87204,-11.336,5.7075,5.4917,-0.19334,0.54153,-0.0015272
-0.89896,-12.16,6.747,4.3149,-0.16646,0.33934,-0.20861
-0.84256,-13.239,8.4729,3.5304,-0.17623,0.14142,-0.38179
-0.74829,-13.769,8.9829,4.0011,0.13806,3.8741,-0.062919
-0.57727,-14.259,8.5318,4.3345,-0.68447,4.2758,0.23335
-0.37579,-14.337,8.218,3.8638,-1.668,4.6722,-1.4355
-0.17529,-14.475,9.0221,2.3536,-2.6365,5.0402,-1.2657
0.052307,-14.396,10.336,1.8829,-3.4801,5.3946,-1.0464
0.25525,-13.69,9.7674,2.0006,-4.156,5.692,-0.85124
0.40445,-13.062,7.5707,1.3533,-4.5592,5.8921,-0.61239
0.47501,-12.298,5.374,0.25497,-4.5891,5.9904,-0.33659
0.46136,-11.356,4.0796,-0.47072,-0.39645,6.0115,1.3937
0.36996,-9.4536,5.2564,-0.25497,-4.1377,5.973,1.2975
0.26279,-8.4926,6.9823,0.33343,-3.5097,5.8695,0.59956
0.16086,-7.4923,6.9431,0.098066,-2.7581,5.7705,0.98991
0.065704,-6.9627,5.7075,-0.50995,-1.9945,5.7174,1.2614
-0.021515,-6.0213,4.6287,-1.1376,-1.3488,5.6615,1.3854
-0.094849,-5.374,3.903,-1.471,-0.8433,5.5613,1.4471
-0.17053,-4.4718,3.6677,-1.4122,-0.51893,5.4052,1.4468
-0.23166,-3.6873,4.7072,-1.4906,0.45448,-2.6542,-1.4441
-0.26511,-2.7851,5.8644,-0.78453,0.72021,-2.364,-1.5571
-0.27914,-1.9613,6.5901,-0.098066,1.0009,-2.043,-0.7199
-0.28183,-1.6867,6.8058,-0.039227,1.2514,-1.701,-0.90683
-0.25681,-1.3141,6.3155,-0.25497,1.408,-1.3415,-1.0702
-0.21243,-1.4514,5.9036,-0.35304,1.4435,-0.9444,-1.1527
-0.17856,-2.0986,7.355,0.72569,1.3494,-0.50213,-1.2294
-0.13895,-3.5108,10.258,2.0986,1.1781,-0.034514,-1.3363
-0.075867,-3.9815,13.004,2.942,0.99724,0.4328,-1.5715
-0.015472,-4.1384,13.415,2.8832,0.85399,0.88453,-1.4926
-0.003418,-5.2956,11.846,2.5301,0.78374,1.3305,-1.6707
-0.040314,-7.2765,8.4141,1.471,0.83933,1.7709,-1.7706
-0.13391,-9.5909,5.7859,1.4122,0.99418,2.2129,-1.8195
-0.27359,-11.69,4.6091,2.432,1.1096,2.6643,-1.8265
-0.42621,-13.004,4.9229,4.2365,1.0427,3.1105,-1.7831
-0.57553,-14.396,5.9036,5.7467,0.7141,3.5094,-1.6939
-0.65848,-15.279,6.8254,6.6489,-2.7602,-5.2699,0.055589
-0.65576,-15.514,7.5315,6.9235,-2.8112,-5.2525,0.13317
-0.57785,-14.926,7.2961,7.1196,-2.251,-5.1762,0.87873
-0.48221,-14.024,6.1586,7.0608,-1.2737,-5.1215,0.50763
-0.39633,-12.906,4.3934,6.8254,-0.072998,-5.0696,0.26023
-0.36099,-11.65,3.197,6.4332,1.1463,-4.9437,0.077274
-0.34818,-9.9439,2.2948,6.1193,-0.83933,-4.7559,-0.035125
-0.37875,-8.6887,1.6671,5.9624,-2.0601,-4.5836,-0.018631
-0.44424,-7.5511,1.3925,5.7663,-0.17074,0.22633,-1.6701
-0.48691,-6.5508,1.0199,5.9036,-0.14936,0.2642,-1.6893
-0.52344,-6.1586,0.8826,6.9627,-0.040012,0.27458,-0.87109
-0.58063,-6.0409,1.3925,8.7083,0.039706,0.24679,-1.0861
-0.62955,-5.2564,1.7652,8.4926,0.053756,0.16066,-1.226
-0.69812,-4.4522,1.1376,7.4531,0.013134,0.0033598,-1.3363
-0.76721,-4.7268,1.3925,7.61,-0.029627,-0.20983,-1.47
-0.85403,-7.3942,3.1774,9.0613,-0.0076358,-0.45173,-1.598
-0.91971,-9.6301,4.1384,9.434,0.28436,-0.72143,-0.87079
-0.96307,-10.689,4.6287,8.7868,0.38698,-1.0183,-0.72326
-0.97891,-10.885,5.276,7.9238,0.50244,-1.3314,-1.6759
-0.96127,-11.121,6.4332,7.4531,0.62736,-1.6564,-1.6264
-0.89352,-10.807,7.1392,7.4923,0.78252,-1.9948,-1.5241
-0.81332,-10.63,7.0412,7.2373,0.98991,-2.3476,-1.3714
-0.71704,-10.787,6.5116,6.1978,0.078802,-2.6933,-1.197
-0.61349,-12.062,6.2174,5.6682,0.18448,-3.0198,-1.0278
-0.5289,-13.102,7.0608,5.884,1.9175,-3.3369,1.0314
-0.44385,-13.376,10.67,5.9036,2.1936,-3.6466,1.1536
-0.34412,-13.769,13.847,6.0409,2.3375,-3.9602,-0.5681
-0.2178,-12.984,11.67,5.4329,2.2257,-4.2748,-0.39676
-0.1449,-12.278,7.355,3.7658,1.6695,-4.5824,-0.20861
-0.17484,-10.493,3.5108,1.824,0.56383,-4.8512,0.014355
-0.28558,-8.7475,1.7064,0.54917,1.2599,-5.0436,0.27855
-0.41495,-7.1785,2.589,0.25497,1.5861,-5.1838,0.63225
-0.50351,-6.0017,4.5307,0.96105,-0.23885,2.6475,-1.3806
-0.52682,-5.5113,6.0213,1.6867,-0.23579,3.0207,-1.3256
-0.51038,-4.4522,6.9823,1.8044,-0.33262,3.3747,-0.74556
-0.42896,-4.0992,7.1392,1.0983,-0.55803,3.6924,-0.85338
-0.2926,-3.6481,6.2174,0.019613,-0.85704,3.9499,-0.97983
-0.14963,-3.4716,5.1583,-0.60801,-1.1154,4.1459,-1.1161
0.021515,-3.0401,4.4718,-0.8826,-1.2278,4.2913,-1.2501
0.1926,-2.6478,4.4522,-0.86299,-1.1609,4.3936,-1.3515
0.36127,-2.7066,4.7856,-0.60801,-0.95203,4.4712,-0.053451
0.49408,-2.9616,5.4721,-0.35304,-0.69455,4.5375,-0.055283
0.62918,-4.0992,5.8448,-0.21575,-0.46548,4.5968,-1.1839
0.71323,-5.374,6.0213,-0.078453,-0.29352,4.6487,-0.95509
0.76599,-7.0412,7.2765,0.78453,-0.19395,4.6942,-0.71868
0.80051,-8.2964,9.3163,2.2751,-0.14813,4.715,-0.50946
0.8085,-9.2967,11.14,3.0401,-0.12339,4.7159,-0.30604
0.80539,-8.6102,10.728,2.2751,-0.11973,4.7128,-0.13683
0.771,-8.1787,9.4144,0.96105,-0.13042,4.7027,0.039095
0.74182,-8.218,9.179,0.70608,-0.15058,4.6637,0.11118
0.6944,-8.7083,9.1398,1.1768,-0.18295,4.5885,-0.071471
0.6297,-9.5517,9.2379,2.0594,-0.20036,4.4886,-0.064141
0.61017,-10.12,9.081,2.589,-0.18509,4.3927,-0.073304
0.62128,-10.63,8.8848,2.9812,-0.15485,4.3051,-0.10354
0.67078,-11.003,8.5318,3.2362,-0.13286,4.2165,-0.098044
0.77304,-11.415,8.0022,3.4519,-0.15913,4.1041,-0.040928
0.92221,-11.356,7.7669,3.2362,-0.29566,3.9535,0.21411
1,-11.18,8.2964,3.3539,-0.58887,3.7794,0.24679
1,-10.493,8.7083,4.1776,-1.0174,3.5836,0.14813
1,-9.6301,8.7868,4.4914,-1.5146,3.3643,0.15791
1,-8.7083,8.218,4.3542,-2.0039,3.1359,0.16677
1,-7.8845,6.7862,3.5304,-2.4294,2.9034,0.18204
1,-6.9627,5.3937,3.5304,-2.7379,2.6713,0.19609
1,-6.5508,4.6287,4.0992,-2.8897,2.4596,0.20739
1,-6.139,4.4718,4.8641,2.4826,-3.5363,-0.15485
1,-6.4528,4.4522,5.2956,2.7055,-3.7666,-0.015882
1,-6.492,4.4522,5.7467,2.9294,-3.988,-0.71624
1,-6.8058,4.6287,6.0801,3.153,-4.189,-0.68509
1,-6.7274,4.9426,6.5312,3.3628,-4.3601,-0.63225
0.84314,-6.6293,5.0995,6.4332,3.5204,-4.5027,-0.54489
0.59045,-6.139,5.3348,6.3547,3.5687,-4.6163,-0.41508
0.37677,-5.8252,5.3348,6.139,3.4389,-4.6844,-0.27825
0.18677,-5.3937,5.3152,5.9036,2.2431,-4.7015,0.041233
0.03299,-5.7271,5.2171,5.5702,1.7984,-4.7116,0.10904
-0.10336,-6.1586,5.1191,5.4133,1.4676,-4.7385,0.13683
-0.18387,-6.7862,5.021,5.2564,1.3069,-4.7531,0.23121
-0.25986,-7.7473,5.021,5.1779,1.2956,-4.7131,0.19823
-0.31009,-8.5906,5.0995,5.0406,1.3506,-4.6484,0.081551
-0.31012,-9.7478,5.2368,4.5699,3.1261,-4.5882,0.017104
-0.27908,-10.591,5.531,4.3345,2.7074,-4.5259,0.018326
-0.25232,-11.042,5.531,3.9227,1.5317,-4.4587,0.47403
-0.1785,-11.493,5.5898,3.2166,1.5828,-4.3955,0.54856
-0.11526,-11.788,6.0213,2.9224,1.6506,-4.335,0.22083
-0.016602,-12.101,6.3547,3.197,1.7538,-4.2614,0.33842
0.071014,-11.984,7.61,3.2558,1.828,-4.1624,0.43371
0.17142,-12.141,7.9826,3.0597,1.7859,-4.028,0.47861
0.25452,-11.493,7.1589,2.5301,1.4111,-3.8439,0.46029
0.31531,-11.121,5.884,2.1575,1.4719,-3.6221,0.43524
0.33679,-10.63,5.3937,1.6475,0.70585,-1.8763,-0.74464
0.33948,-11.042,5.5702,1.3533,0.93249,-2.0601,-0.73518
0.33829,-11.376,5.5702,1.0983,1.1664,-2.2526,-0.66218
0.31076,-10.63,5.6486,0.96105,1.3928,-2.4557,-0.67684
0.26282,-9.5517,6.6293,1.216,1.6109,-2.6683,-0.69425
0.24786,-8.5122,7.4727,1.4122,1.8274,-2.8818,-0.71441
0.25214,-6.8647,7.2177,1.0003,2.0449,-3.0949,-0.73151
0.26614,-4.668,6.1978,-0.2942,2.2633,-3.313,-0.74159
0.30475,-2.9616,5.1779,-1.1964,-1.7602,3.8909,0.54795
0.36111,-1.7456,4.2169,-2.1771,-1.781,3.6551,0.68417
0.42606,-1.471,4.1188,-2.2751,-1.7657,3.3778,-0.096517
0.4845,-1.9221,4.7856,-2.2359,-1.7184,3.0708,0.032987
0.5314,-2.5693,5.884,-2.0202,-1.6787,2.7581,0.15821
0.56689,-3.7265,6.5312,-1.4122,-1.6393,2.4505,0.26786
0.58148,-4.2757,6.8058,-1.0003,-1.5788,2.1573,0.36744
0.58386,-5.0602,6.7862,-0.62763,-1.544,1.8818,0.45754
0.59384,-5.9232,6.6489,-0.23536,-1.543,1.6475,1.0192
0.60394,-7.355,6.4332,0.39227,-1.5192,1.4368,0.99327
0.61816,-8.5318,6.4135,1.0003,-1.4951,1.2459,0.82436
0.65338,-9.787,7.0019,2.1575,-1.5153,1.0876,0.89706
0.69659,-10.866,7.7669,2.9224,-1.5696,0.95509,0.94379
0.73306,-11.317,7.9826,3.3931,-1.6133,0.83566,1.0073
0.76212,-11.846,8.0807,3.8638,-1.62,0.72815,1.0562
0.76929,-12.278,7.7276,4.5503,-1.5928,0.63744,1.0534
0.73456,-12.729,7.2177,5.1779,-1.5269,0.55925,0.24312
0.63602,-12.749,7.1589,6.1193,-1.4285,0.49266,0.028405
0.49615,-13.062,7.2961,7.0019,-1.314,0.43799,0.97005
0.33887,-13.415,7.0412,7.2765,-1.193,0.39218,0.91996
0.15912,-13.219,6.6881,7.1785,-1.062,0.35461,0.82986
-0.017761,-12.533,6.4135,7.0608,-0.91966,0.32773,0.70585
-0.20712,-10.866,5.884,6.845,-0.78343,0.31124,0.56627
-0.39267,-9.179,5.2368,6.6097,-0.6744,0.30543,0.41905
-0.55865,-8.2376,5.0995,6.4332,-1.1475,5.0039,-0.31918
-0.69696,-7.0412,4.7856,5.9036,-1.3525,4.948,-0.20372
-0.82037,-6.6293,4.158,5.7271,-1.5333,4.8796,-1.069
-0.9003,-5.884,3.3931,5.3348,-1.6857,4.7806,-1.0143
-0.95224,-5.5506,2.7459,5.1779,-1.7675,4.649,-0.93432
-0.98816,-4.7856,2.4909,5.4133,-1.7804,4.4957,-0.83322
-0.99997,-4.3149,2.5105,5.4329,-1.7654,4.3133,-0.68783
-0.99997,-4.2757,2.9616,5.6682,-1.7501,4.1081,-0.49419
-0.99997,-4.2953,3.55,5.8644,1.3546,-3.2296,0.28588
-0.99997,-4.9818,4.4522,6.1978,1.3567,-2.9984,0.22907
-0.99997,-5.3544,5.2564,6.5508,1.3127,-2.7388,0.42974
-0.99997,-5.7663,5.4917,6.747,1.2077,-2.4593,0.43982
-0.99997,-6.1978,5.1583,6.5508,1.0467,-2.1649,0.45509
-0.99997,-6.4724,4.9229,6.1978,0.88667,-1.854,0.45112
-0.99997,-6.8647,5.021,6.1193,1.0953,-1.5256,0.39859
-0.99997,-7.61,5.5506,6.2959,1.277,-1.1939,0.33445
-0.99997,-9.0025,6.0997,6.3547,0.43799,-0.86193,-0.12187
-0.99997,-10.493,6.8058,6.1978,0.31979,-0.52718,-0.14875
-0.99997,-11.748,7.2177,5.7467,0.22633,-0.19181,0.16646
-0.96555,-13.219,7.7276,5.1191,0.16432,0.1408,0.1066
-0.8074,-13.631,8.0807,4.413,0.14172,0.46212,0.040012
-0.59918,-13.533,8.4729,3.6873,0.14539,0.7758,-0.017104
-0.38379,-12.69,10.356,2.8439,0.73426,1.0776,-0.058032
-0.13791,-11.336,11.846,2.1378,0.5791,1.3628,-0.090713
0.11835,-10.591,11.376,1.6475,1.9926,-3.8405,0.2868
0.33475,-9.9439,9.7086,1.0003,2.0831,-4.0012,0.26695
0.51709,-9.1398,8.6691,-0.60801,2.0436,-4.1261,-0.83597
0.65848,-8.2376,8.3749,-1.6279,1.77,-4.2116,-0.65637
0.75275,-7.1196,7.6688,-2.2751,1.2559,-4.2541,-0.34819
0.8201,-6.4724,7.5903,-2.7459,0.59437,-4.248,-0.034208
0.88632,-5.5702,7.6884,-2.6674,-0.084299,-4.2076,0.18357
0.94427,-5.2956,7.7473,-2.3536,-0.65821,-4.1627,0.27275
0.9949,-5.2564,7.5315,-2.0398,-0.99968,-4.1304,0.41325
1,-5.1583,7.2961,-1.4122,-1.0531,-4.0922,0.43035
1,-4.9426,7.1,-1.1964,-0.88392,-4.0372,0.24068
1,-5.374,6.6881,-1.0787,-0.58521,-3.9706,0.2697
1,-5.3544,6.2174,-1.0003,-0.23427,-3.8665,0.34117
1,-5.5702,6.0213,-0.86299,0.12065,-3.726,0.37049
1,-5.9232,6.1782,-0.23536,0.4667,-3.5803,0.36041
1,-6.3547,6.9627,0.5884,0.80634,-3.4245,0.37324
1,-7.0216,7.5315,1.0983,0.46395,0.51221,-0.40531
1,-7.6688,7.8845,1.3337,0.50488,0.41386,-0.38882
1,-7.5903,8.2572,1.9025,0.52534,0.30177,-0.36163
0.95673,-7.5903,8.6887,2.1575,0.52901,0.17837,-0.41233
0.86108,-7.5903,9.1594,2.432,0.52015,0.051007,-0.44257
0.75067,-7.4334,9.1398,2.7459,0.50671,-0.078496,-0.45296
0.64783,-7.4334,9.1594,2.8439,0.49999,-0.21166,-0.44532
0.52094,-7.355,9.179,3.0008,0.49908,-0.35186,-0.42516
0.40582,-7.5903,9.3359,3.0989,-1.1793,3.3503,0.8885
0.30722,-7.8649,9.4144,3.6677,-1.2706,3.2871,0.87629
0.2261,-8.218,9.4144,4.0992,-1.3531,3.2095,0.84238
0.1438,-7.7669,9.0221,4.1384,-1.412,3.1273,0.86712
0.089935,-7.7473,8.6887,4.3542,-1.4426,3.032,0.8714
0.050995,-7.61,8.1003,4.4914,-1.4413,2.9184,0.87048
-0.0030518,-7.2569,7.2765,4.668,-1.4184,2.7862,0.87109
-0.050629,-7.1785,6.9039,4.9818,-1.3793,2.642,0.88026
-0.1041,-6.6489,6.4724,5.0406,-1.3228,2.4932,0.57177
-0.16968,-6.6293,6.0017,4.9622,-1.2544,2.343,0.49297
-0.23532,-6.5508,5.5898,5.1779,-1.1671,2.1878,0.84422
-0.27914,-6.0017,5.2171,5.0995,-1.058,2.0287,0.81062
-0.33517,-6.237,5.021,5.0406,-0.93401,1.8711,0.78618
-0.38223,-6.4135,4.7072,4.7856,-0.80787,1.7156,0.75167
-0.4043,-6.8647,4.9229,4.9426,-0.68631,1.5617,0.69975
-0.43646,-6.8058,5.1583,4.9229,-0.56658,1.4163,0.63897
-0.4599,-7.4334,5.531,4.9229,-0.44471,1.2834,-0.20861
-0.46909,-7.8061,5.7859,4.9818,-0.3146,1.16,-0.29505
-0.46722,-7.8845,5.8644,5.0995,-0.17074,1.0418,0.40959
-0.47852,-7.61,5.8644,4.9426,-0.018631,0.93126,0.31796
-0.47781,-7.355,5.6879,4.8249,0.12614,0.8323,0.21014
-0.44647,-7.2961,5.276,4.668,0.24801,0.74587,0.10446
-0.44223,-7.5903,5.0995,4.668,0.34453,0.67195,0.0061087
-0.41293,-7.0412,5.0602,4.5503,0.41325,0.59895,-0.10049
-0.39151,-6.7862,4.9229,4.5503,0.38576,0.22877,-0.16066
-0.34357,-6.3351,4.7856,4.3149,0.22449,0.55741,-0.2135
-0.31821,-6.1978,4.6876,4.158,0.048869,0.90652,-0.19548
-0.27396,-6.5508,4.766,4.3345,-0.12767,1.2743,-0.13744
-0.2525,-6.9627,5.0995,4.4914,-0.27855,1.6402,-0.12614
-0.24237,-7.8845,5.1583,4.7856,-0.38698,1.9929,-0.12737
-0.22864,-8.6887,5.2564,4.8641,-0.46823,2.3332,-0.11851
-0.24182,-9.0025,5.4329,5.276,-0.54795,2.6762,-0.12339
-0.24533,-8.9241,5.4721,5.3544,0.049175,-3.4205,-0.36682
-0.23959,-9.2967,5.6486,5.7467,0.29444,-3.5174,-0.26542
-0.2403,-9.6301,5.884,5.7075,0.56322,-3.6053,-0.51068
-0.2417,-10.179,6.1782,6.0605,0.84544,-3.6896,-0.55314
-0.24774,-11.023,5.9428,6.0213,1.0944,-3.7571,-0.58979
-0.26767,-11.121,5.374,5.7663,1.2471,-3.7858,-0.60689
-0.30725,-11.317,4.7856,5.276,1.2773,-3.7727,-0.56505
-0.35437,-11.435,4.7072,4.8249,1.1918,-3.6982,-0.4722
-0.41769,-11.023,4.7464,4.4914,0.99968,-3.5461,-0.3262
-0.49426,-10.101,5.6486,3.9423,1.1295,-3.3533,-0.23335
-0.55084,-8.8652,7.2961,2.8439,1.248,-3.1609,-0.1854
-0.53986,-7.6492,8.2376,2.0398,1.3201,-2.9737,-0.13989
-0.45825,-6.5508,7.9238,1.824,1.3583,-2.7678,-0.14355
-0.32407,-5.8448,6.6881,2.2163,1.3766,-2.5461,-0.2025
-0.11008,-5.2956,5.7859,1.6867,1.0415,-2.3271,-0.2923
0.10596,-4.7464,6.3155,0.47072,0.94776,-2.109,-0.35461
0.3306,-4.5895,7.2961,-0.60801,1.2511,-1.8937,-0.30024
0.54727,-4.2757,7.6884,-0.84337,1.1017,-1.6725,-0.27
0.72244,-3.6285,7.5315,-0.8826,0.92638,-1.4325,-0.18051
0.85422,-3.0204,7.2177,-0.86299,0.7758,-1.1738,-0.18357
0.93231,-2.5301,7.355,-1.1376,0.64874,-0.90927,-0.20189
0.979,-2.2359,7.1,-1.0395,0.52595,-0.65485,-0.22174
0.97699,-2.432,6.6489,-0.8826,1.3732,-0.39218,-0.25045
0.94656,-3.3343,6.1193,-0.52956,1.3372,-0.092852,-0.2813
0.89127,-3.9815,6.0409,-0.2942,-0.62156,1.9826,0.6408
0.83679,-5.3544,6.0409,-0.098066,-0.04612,1.7578,0.58032
0.81107,-6.0409,5.9624,0.54917,0.4554,1.5886,0.87598
0.75067,-7.1785,5.7859,1.4318,0.83872,1.485,0.85399
0.6842,-8.7475,6.9039,2.432,1.0794,1.4435,0.83139
0.61588,-9.9636,7.4727,3.0793,1.1597,1.4157,0.81215
0.53082,-11.258,7.1,3.197,1.0742,1.3827,0.759
0.44339,-12.69,6.492,2.589,0.84635,1.3534,0.69272
0.3671,-14.318,6.2174,2.5105,0.51496,1.3335,-0.0009163
0.28232,-14.926,6.2566,2.9812,0.089186,1.3213,-0.048258
0.18015,-14.024,5.8644,3.9227,-0.40775,1.2953,0.5287
0.079407,-12.258,4.8053,3.8638,-0.91966,1.2538,0.47006
-0.036377,-11.435,4.0796,3.3931,-1.3851,1.2104,0.3543
-0.15808,-11.336,3.8442,2.9812,-1.7623,1.1802,0.20281
-0.29877,-10.395,4.3934,3.1577,-2.047,1.1551,0.07758
-0.38354,-8.9829,5.5506,3.3539,-2.2092,1.1127,0.01741
-0.46381,-8.218,6.5901,3.9227,-2.2526,1.0614,-0.42089
-0.49518,-7.7473,7.2569,4.5503,-2.2269,1.0119,-0.47434
-0.46573,-7.6688,8.0807,4.7268,-2.1576,0.96333,-0.12401
-0.42017,-6.7862,8.0807,4.6484,-2.0482,0.90103,-0.1857
-0.34579,-6.0017,6.9627,4.4914,-1.8989,0.82375,-0.21961
-0.28265,-5.0602,5.9428,4.3149,-1.7126,0.73884,-0.25504
-0.27145,-4.7464,5.1583,4.4522,-1.481,0.64355,-0.31521
-0.29895,-3.903,4.7072,4.7268,-1.1881,0.52229,-0.37324
-0.36972,-3.4127,4.4914,5.0406,-0.86621,0.37324,-0.85094
-0.50302,-3.1774,4.0796,5.2956,-0.54031,0.22083,-0.85704
-0.67441,-3.3343,3.8638,5.4917,-0.20983,0.066279,-0.54947
-0.86206,-3.6481,4.0011,5.4917,0.13225,-0.10171,-0.63713
-0.99921,-4.9229,4.158,5.4917,0.47037,-0.28833,-0.70983
-0.99997,-6.5508,4.9229,5.5898,0.76297,-0.49236,-0.7703
-0.99997,-8.0611,6.0409,5.7467,0.98746,-0.69914,-0.81642
-0.99997,-9.179,7.1589,5.9036,1.1457,-0.91538,-0.83902
-0.99997,-9.7674,7.355,5.8055,2.3518,-3.2657,0.42577
-0.99997,-10.689,6.6489,5.5506,1.489,-2.9386,0.32315
-0.99997,-11.493,5.9428,4.9622,0.56902,-2.5898,1.0693
-0.99997,-11.572,5.5702,4.1972,-0.29077,-2.2388,1.0214
-0.99997,-11.16,5.6486,3.3931,-0.98227,-1.9004,0.95173
-0.99997,-10.179,6.5116,2.4124,-1.4685,-1.5828,0.8262
-0.88873,-9.9243,7.5315,2.432,-1.7614,-1.3045,0.67837
-0.67578,-9.3163,7.2569,3.1381,-1.8922,-1.0766,0.54336
-0.46277,-9.0417,6.6489,3.4716,-1.6561,-0.89125,-0.093768
-0.24814,-9.1202,5.9036,2.9812,-1.3967,-0.7477,-0.16157
-0.016846,-9.0025,4.8053,2.2751,-1.0424,-0.64813,0.24343
0.21002,-8.6887,3.55,1.726,-0.63408,-0.56719,0.18479
0.42276,-8.1984,3.1381,1.471,-0.22602,-0.48411,0.13286
0.63162,-8.218,3.8442,1.2553,0.15516,-0.39706,0.076969
0.84247,-8.4337,5.374,0.70608,-1.9016,-0.3091,0.022602
0.99994,-8.4337,7.2961,0.019613,-1.8198,-0.20342,-0.035125
1,-8.6495,9.1594,0.098066,1.0434,-0.069944,-0.5455
1,-8.1395,10.356,0.43149,1.1973,0.09499,-0.59834
1,-8.218,10.728,0.15691,1.3237,0.27,-0.26634
1,-8.0218,10.101,-0.2942,1.4059,0.44349,-0.33598
1,-7.8845,9.0221,-1.3337,1.4328,0.62919,-0.33017
1,-7.5119,8.0415,-2.2555,1.3989,0.8323,-0.33384
1,-6.6685,7.0608,-2.7262,0.51526,1.0473,-0.38637
1,-5.9232,6.4135,-3.0401,0.83047,1.2767,-0.47098
1,-5.0798,6.2763,-2.9812,3.5995,-4.6508,1.0492
1,-4.2953,6.2174,-2.6674,3.9285,-4.5711,1.098
1,-3.8246,6.4135,-2.3928,4.1679,-4.4819,0.52229
1,-3.6677,6.4724,-2.0986,4.2608,-4.397,0.58429
1,-3.5892,6.2174,-1.6475,4.2049,-4.2806,0.65882
1,-3.7461,6.3547,-1.2356,4.0009,-4.0913,0.7309
1,-4.2169,6.6881,-0.84337,3.6285,-3.8417,0.821
1,-4.9229,6.8843,-0.078453,3.0763,-3.565,0.93646
1,-6.0017,6.9627,0.84337,-1.2679,1.7217,-0.25045
1,-7.7669,7.9042,1.6475,-1.4755,1.5275,-0.37354
1,-8.8456,8.4729,2.2163,-1.6493,1.314,0.4441
1,-10.317,8.826,2.5693,-1.7605,1.1014,0.29505
1,-10.944,9.7282,3.6088,-1.7901,0.89034,0.14997
0.97128,-11.042,10.572,4.1972,-1.7364,0.68142,0.029627
0.84473,-11.631,9.4732,4.0992,-1.6038,0.49083,-0.066584
0.68121,-12.278,7.8453,3.8442,-1.3958,0.31826,-0.15272
0.47086,-12.925,7.0412,4.2561,-1.1167,0.14966,-1.1924
0.26828,-12.121,6.9627,5.0406,-0.7761,-0.027184,-1.317
0.066223,-10.964,6.7862,5.276,-0.41569,-0.21838,-0.49388
-0.11957,-9.3359,6.6489,5.2368,-0.065057,-0.42425,-0.57605
-0.25693,-8.4337,6.2763,4.9426,0.21686,-0.65301,-0.64385
-0.37344,-7.4531,5.7075,4.4914,0.37507,-0.91141,-0.75106
-0.49493,-6.7274,5.0995,4.2953,0.40103,-1.1848,-0.89706
-0.5983,-6.5508,4.3934,4.3149,0.32467,-1.4517,-1.0473
-0.69437,-6.8843,3.6481,4.4914,-2.1371,3.4407,0.73731
-0.78552,-7.0412,3.1381,5.021,-2.1451,3.2672,0.81001
-0.85422,-7.1,3.3735,6.0213,-2.1756,3.1053,0.22724
-0.91687,-6.7862,3.7658,6.8254,-2.1954,2.9499,0.32254
-0.96323,-6.492,3.6677,7.1785,-2.1875,2.8246,0.40378
-0.99075,-5.9428,2.9028,6.845,-2.1396,2.7217,0.49388
-0.99997,-5.2956,2.2948,6.3547,-2.054,2.627,0.58796
-0.99997,-5.4133,1.6083,6.1782,-1.9477,2.5433,0.66401
-0.99997,-6.3547,1.0199,6.5312,-1.8149,2.4697,0.71563
-0.99997,-9.2967,1.6279,7.1392,-1.6475,2.4062,0.58948
-0.99997,-12.258,3.0401,7.7865,-1.4517,2.3393,0.86224
-0.99997,-13.102,4.6484,8.2572,-1.2459,2.2666,0.88239
-0.99997,-12.925,5.8644,8.1199,-1.0705,2.1909,0.88209
-0.99997,-12.376,6.5116,7.0608,-0.96761,2.1044,0.86804
-0.99997,-11.807,6.8843,6.0605,-0.97066,2.0036,0.84238
-0.99997,-11.572,6.3547,5.8055,-1.0809,1.8824,0.79993
-0.99997,-11.16,5.7859,5.4525,-0.50457,2.6227,-1.7324
-0.99997,-10.709,5.5702,4.8641,-0.68417,2.927,-1.7297
-0.99997,-10.63,5.8448,4.0207,-0.91141,3.2107,-1.3586
-0.99997,-10.493,6.1782,3.295,-1.1622,3.4691,-1.4349
-0.99997,-10.748,6.1193,3.1577,-1.3937,3.697,-1.5073
-0.99997,-10.944,6.1586,2.9224,-1.5724,3.8982,-1.5812
-0.99997,-11.101,8.0611,2.1575,-0.29535,4.0748,-1.6512
-0.9505,-10.101,11.042,1.3533,-0.37538,4.2266,-1.7043
-0.6915,-8.9241,10.807,1.9809,-1.8079,4.3616,-1.452
-0.40506,-8.0415,9.2967,2.6282,-1.8066,4.4764,-1.3262
-0.12265,-8.218,8.2964,2.6086,-1.7501,4.5494,-1.7095
0.1087,-7.5707,7.8845,1.5298,-1.6585,4.5751,-1.6958
0.34531,-6.5116,7.0412,0.27459,-1.5638,4.5546,-1.7074
0.57385,-5.4525,6.1782,-0.23536,-1.4872,4.4746,-1.7165
0.76199,-4.4718,5.7271,-0.2942,-1.6878,4.3316,-1.679
0.92416,-3.6873,5.6879,-0.37265,-1.763,4.1395,-1.5788
1,-2.8635,5.374,-0.92183,0.93768,-2.4624,0.34636
1,-2.4124,4.6287,-1.4122,0.86529,-2.2226,0.10568
1,-1.6083,4.0011,-1.6671,0.72174,-1.985,1.2385
1,-0.96105,3.7658,-1.3337,0.51007,-1.7391,1.1961
1,-1.1768,3.903,-0.8826,0.24251,-1.4795,1.0959
1,-2.0986,4.158,-0.37265,-0.025656,-1.2107,0.95509
1,-3.6677,4.4326,-0.2942,-0.23182,-0.93065,0.78343
1,-5.2564,5.0995,-0.15691,-0.3485,-0.62094,0.57391
1,-6.6489,5.7859,0.078453,-0.39401,-0.27917,-1.1481
1,-7.8257,6.2174,0.25497,-0.36072,0.080634,-1.263
0.93573,-8.8456,6.4135,0.23536,-0.33811,0.44104,-0.11942
0.79605,-10.317,6.7862,0.15691,-0.31826,0.80909,-0.31062
0.63913,-12.298,7.4531,0.72569,-0.28344,1.1842,-0.51588
0.5083,-13.867,7.7669,1.471,-0.2645,1.5595,-0.73976
0.39719,-14.259,8.2964,1.6279,-0.39706,1.9358,-0.9163
0.30304,-14.298,8.3945,1.5102,-0.40989,2.2932,-1.0369
0.24576,-13.533,8.3945,1.6279,1.423,-1.5959,-0.95448
0.22379,-12.709,8.7868,1.8044,1.5259,-1.7312,-0.94776
0.21661,-11.023,8.8652,2.0398,1.6377,-1.8711,-0.76938
0.23981,-9.5517,8.7868,2.2948,1.7535,-2.0186,-0.80787
0.26523,-8.6887,8.5122,2.2948,1.8738,-2.1725,-0.84269
0.29587,-7.8649,8.3945,2.2555,2.0122,-2.3332,-0.87476
0.32877,-7.7669,8.218,2.2948,2.1845,-2.5064,-0.90652
0.35757,-7.355,8.0611,2.7459,2.4099,-2.6909,-0.93737
0.37433,-7.1785,7.61,2.9028,-1.89,1.7361,0.3375
0.38345,-6.8647,6.9039,2.9224,-1.5369,1.6487,0.17165
0.34689,-6.8254,6.1586,2.8439,-1.2746,1.5012,1.1506
0.29037,-6.6097,5.1583,3.1577,-1.0424,1.3558,1.0247
0.18927,-6.5508,4.6287,3.7854,-0.80543,1.2599,0.95906
0.055298,-6.4528,4.0011,4.158,-0.60537,1.1851,0.87598
-0.093658,-6.7862,4.0796,4.5699,-0.47709,1.091,0.71532
-0.2392,-6.4528,4.1188,5.1779,-0.40409,0.97647,0.52076
-0.3923,-6.0997,4.2953,5.6682,-0.36805,0.85063,-0.63194
-0.52789,-6.4135,4.8053,6.2959,-0.35827,0.71074,-0.6576
-0.65741,-6.237,5.021,6.237,-0.37202,0.55528,0.014661
-0.78235,-6.139,5.1779,6.0409,-0.38668,0.39645,-0.13195
-0.86615,-5.629,5.021,5.6682,-0.36866,0.2361,-0.26725
-0.94901,-5.4133,4.8445,5.5702,-0.30513,0.07422,-0.39676
-0.99997,-5.531,4.8053,5.6682,-0.19823,-0.087659,-0.50641
-0.99997,-5.0798,4.8445,5.4917,-0.048869,-0.24923,-0.58643
-0.99997,-5.3544,5.1191,5.4133,0.1405,-0.41172,-0.68661
-0.99997,-5.6094,5.2368,5.276,0.35094,-0.57391,-0.72754
-0.99997,-6.4135,5.3937,5.276,0.56658,-0.73518,-0.67714
-0.99997,-7.1785,5.6486,5.0798,0.76755,-0.89339,-0.67562
-0.99997,-8.1199,6.0017,4.8641,0.9389,-1.0434,-0.65607
-0.99997,-8.5318,6.3547,4.413,1.0825,-1.1851,-0.6411
-0.9808,-9.4928,6.5705,4.0011,1.2068,-1.3228,-0.63927
-0.88199,-9.7674,6.3547,3.295,1.3179,-1.4615,-0.65454
-0.75592,-10.63,6.3351,2.589,0.45387,-2.9969,0.42883
-0.6084,-10.866,6.5116,1.4906,0.56536,-2.8585,0.34331
-0.44855,-11.454,7.4531,0.72569,0.67348,-2.7278,0.90622
-0.24814,-10.846,9.4928,0.05884,0.7813,-2.5907,0.82833
-0.028046,-10.728,10.591,1.1572,0.87659,-2.4245,0.74281
0.22046,-9.9636,10.277,2.5301,0.94562,-2.248,0.66676
0.44434,-10.905,9.5517,2.6282,0.98013,-2.0785,0.59346
0.633,-10.866,8.1591,1.8437,0.98624,-1.9056,0.50916
0.79059,-10.65,6.5312,1.3337,0.97372,-1.7104,-0.3766
0.8989,-9.689,5.4721,0.47072,0.9444,-1.4832,-0.49419
0.92868,-9.2771,5.3937,0.019613,0.90408,-1.2291,0.25443
0.9386,-9.2183,5.629,0.078453,0.85796,-0.94043,0.1573
0.9241,-8.7475,5.4721,0.078453,0.81764,-0.60751,0.047342
0.8797,-8.2964,5.3348,0.019613,0.79046,-0.24007,-0.061087
0.86053,-7.8061,5.4721,-0.2942,0.79107,0.15027,-0.16188
0.84836,-6.9823,5.7271,-0.60801,0.81245,0.55039,-0.26542
0.84818,-5.7271,5.6486,-1.0395,0.88331,0.94348,-1.4642
0.85513,-4.5699,5.4721,-1.4122,0.77336,1.31,-1.635
0.88324,-3.8834,5.3937,-1.6279,0.48319,1.6554,-0.62492
0.91434,-3.4127,5.276,-1.5102,0.051618,1.9933,-0.79046
0.9534,-3.1577,5.5506,-1.1768,-0.43952,2.3036,-0.96853
0.99817,-3.0597,5.7271,-0.78453,-0.89675,2.5672,-1.1267
1,-3.3539,6.0213,-0.15691,0.85002,2.7987,-1.2297
1,-3.2166,6.9039,0.078453,0.88484,3.014,-1.3256
1,-3.7461,7.0608,0.019613,-1.6674,3.2376,-1.6616
1,-4.1188,6.5116,0.098066,-1.8176,3.4734,-1.5846
1,-4.7464,6.3743,0.74531,-1.978,3.7101,-1.792
1,-5.8644,7.1392,1.6867,-2.1478,3.9337,-1.8741
1,-7.355,7.8257,2.3536,-2.3222,4.1356,-1.89
1,-9.1594,7.9826,2.589,-2.4804,4.3219,-1.8521
0.99881,-10.944,8.1591,3.2362,-1.2529,4.496,-1.7816
0.83533,-12.415,8.1591,4.413,-1.4985,4.6404,-1.7174
0.59998,-13.004,7.7669,4.9229,4.4205,-0.33628,0.48045
0.32535,-13.357,7.1,5.4917,3.4981,-0.1628,0.33262
0.073792,-12.278,6.5901,5.7467,2.215,-0.015272,0.13195
-0.16122,-11.493,6.3547,5.8644,0.70372,0.09896,0.30146
-0.36539,-10.689,6.0213,5.7467,-0.92088,0.13653,0.34667
-0.54565,-9.689,5.2564,5.8644,-2.4853,0.080329,0.42241
-0.71774,-8.826,4.1384,5.4525,-3.7507,-0.026573,0.54795
-0.87479,-7.8845,3.3735,5.1779,-4.6249,-0.12523,0.58338
-0.99744,-7.8845,2.2751,5.1975,-5.1441,-0.19364,-0.20831
-0.99997,-7.8649,0.21575,5.4329,-5.3582,-0.23488,-0.30116
-0.99997,-7.355,-0.49033,4.3149,-5.2898,-0.27214,0.20433
-0.99997,-7.1196,1.8633,3.0989,-4.9608,-0.31796,0.11057
-0.99997,-7.1196,5.1583,2.8243,-4.4257,-0.37202,0.062308
-0.99997,-6.6293,7.6296,1.9417,-3.7758,-0.43127,0.027794
-0.99997,-5.7859,9.7282,1.471,-3.062,-0.50549,-0.035736
-0.92313,-5.6094,11.278,3.3931,-2.2684,-0.59895,-0.11942
-0.55228,-5.7271,12.298,5.884,-1.3928,-0.7086,-0.19273
-0.092957,-6.0997,13.082,5.276,-0.50457,-0.84055,-0.1628
0.37155,-6.9627,11.356,2.7655,0.29016,-0.99754,-0.39492
0.78622,-6.8843,8.0611,0.96105,0.91111,-1.153,-0.45845
0.99991,-6.7862,5.5506,0.5884,1.3204,-1.3008,-0.46762
1,-6.8058,4.0796,1.1572,1.5076,-1.4539,-0.42028
1,-7.2373,3.197,2.2555,1.496,-1.6096,-0.33048
1,-7.3942,2.5105,2.8439,1.3586,-1.7611,-0.24343
0.87079,-7.2765,2.589,3.295,1.2037,-1.9068,-0.14936
0.63693,-7.2373,3.7461,4.0011,1.1231,-2.0559,-0.15119
0.37439,-7.9826,5.3937,4.7856,1.1429,-2.2107,-0.16616
0.16232,-8.1199,6.0213,5.3937,1.2468,-2.3665,-0.18692
3.0518e-05,-8.0415,5.2564,5.5506,1.4203,-2.5296,-0.22358
-0.13739,-8.1984,4.158,5.4133,1.6356,-2.6899,-0.25687
-0.24496,-8.4926,3.5108,5.0798,1.8494,-2.8311,-0.26359
-0.32813,-8.6495,3.6873,4.4718,2.0201,-2.9456,-0.2645
-0.40506,-8.8064,4.4718,4.1972,1.277,-0.12065,-0.54428
-0.4458,-9.0025,4.8445,4.1384,1.7755,0.090103,-0.5733
-0.4483,-9.2379,5.2368,4.0992,2.3347,0.30421,0.11118
-0.44897,-9.0613,5.5702,3.6873,2.9731,0.5284,0.013439
-0.40457,-8.5318,6.1782,3.1577,3.5788,0.75533,-0.13531
-0.34094,-8.4337,7.2961,2.2163,3.9642,0.99724,-0.31857
-0.25049,-9.1398,7.9826,1.7456,3.9899,1.2422,-0.46365
-0.11237,-9.2379,8.1984,1.5102,3.5901,1.4881,-0.53023
0.04364,-8.9044,9.0417,1.3533,0.44929,1.7141,-1.3824
0.22241,-8.1787,9.8066,1.1768,-0.75106,1.8977,-1.2346
0.42691,-7.9826,10.277,1.0983,-1.7849,2.0559,-0.66798
0.64371,-7.8257,10.12,0.33343,-2.6127,2.2391,-0.85216
0.86264,-7.8649,9.5517,-0.41188,-3.2483,2.4709,-1.1106
0.99924,-7.3942,8.6102,-1.4122,-3.7131,2.7238,-1.3543
1,-6.7274,7.2961,-2.0986,2.7868,2.9685,-1.4817
1,-5.9232,6.2566,-3.197,1.6857,3.197,-1.4749
1,-5.1975,5.6486,-3.3931,-4.4447,3.4059,0.14447
1,-4.9229,5.3152,-3.6677,-4.5665,3.5809,0.34911
1,-4.9229,5.2564,-3.5304,-4.6221,3.7122,-1.0446
1,-5.0798,5.0798,-3.7069,-4.6068,3.8011,-0.83169
1,-5.1583,5.021,-3.6873,-4.5302,3.853,-0.62094
1,-5.4721,6.5901,-2.5105,-4.419,3.8817,-0.42028
1,-6.3351,9.6301,-0.78453,-4.0332,3.8833,-0.23946
1,-7.2373,11.493,0.25497,-4.2669,3.857,-0.062919
1,-7.1196,11.042,0.64724,-1.7715,-1.5027,0.30879
1,-6.6293,9.8066,0.41188,-1.7422,-1.3714,0.20464
1,-6.7862,9.179,0.019613,-1.5467,-1.2217,0.68631
1,-7.0412,8.6102,0.11768,-1.1945,-1.0534,0.60384
1,-7.4334,8.218,0.41188,-0.74434,-0.88911,0.56016
1,-7.61,7.4334,0.84337,-0.24862,-0.71593,0.53023
1,-8.0218,7.1392,1.1768,0.25107,-0.54,0.48014
1,-8.5122,7.1589,1.9613,0.76572,-0.34208,0.40959
0.90756,-8.6887,6.9039,2.687,-5.1129,-0.3146,0.23121
0.47897,-9.0613,6.4135,2.9224,-5.003,-0.38057,0.32895
0.060638,-8.6495,6.0213,3.0597,-4.6493,-0.48686,-0.077885
-0.32138,-8.2964,5.5702,3.6873,-4.065,-0.6576,0.033903
-0.66068,-8.0415,5.374,3.8442,-3.3222,-0.88911,0.12981
-0.93228,-7.9042,4.5895,3.9815,-2.5131,-1.1454,0.15699
-0.99997,-7.5903,3.4519,3.8442,-1.6952,-1.4197,0.14783
-0.99997,-7.1196,2.1378,3.5108,-0.91874,-1.6884,0.17379
-0.99997,-6.9627,1.6083,3.0793,-0.2251,-1.908,0.56016
-0.99997,-6.7274,1.7848,2.432,0.3204,-2.087,0.64049
-0.99997,-6.8843,2.7459,1.6475,0.686,-2.262,0.44838
-0.99997,-7.1196,4.3345,0.86299,0.91141,-2.4557,0.54672
-0.99997,-7.4334,5.6486,0.39227,1.1173,-2.6799,0.62705
-0.99997,-7.6492,7.5315,0.52956,1.401,-2.8921,0.68203
-0.81189,-7.3354,9.179,1.3337,1.8042,-3.0882,0.63377
-0.37634,-7.4923,10.572,2.432,2.3439,-3.3091,0.54856
0.09552,-7.1392,11.395,2.7655,6.6154,0.84452,-1.5959
0.59018,-7.5707,12.16,3.0008,6.9306,0.73518,-1.4743
0.96323,-7.5903,11.748,2.9028,7.0176,0.62736,-1.3879
1,-7.2569,10.591,2.6282,6.8283,0.50702,-1.4817
1,-7.1196,9.0417,2.3536,6.3655,0.38576,-1.5128
1,-7.963,7.355,2.2751,5.6551,0.27275,-1.544
1,-8.7083,5.4721,2.0398,4.7385,0.15363,-1.5815
1,-10.022,3.8442,2.432,3.6292,0.024435,-1.6102
1,-9.7674,2.7459,2.942,2.3274,-0.076358,-0.27489
0.81168,-9.434,2.7459,3.6677,0.905,-0.1573,-0.18021
0.44238,-8.9829,3.8442,4.2365,-0.53359,-0.24038,-1.2562
0.084412,-9.5517,5.0995,5.1191,-1.9041,-0.30238,-1.0427
-0.20306,-9.9439,4.158,5.0995,-3.1001,-0.30238,-0.87781
-0.42633,-10.317,2.9616,3.9227,-4.0116,-0.27794,-0.70708
-0.60464,-10.552,2.334,2.589,-4.6203,-0.26848,-0.51588
-0.70575,-10.493,2.5105,1.726,-4.9795,-0.27825,-0.37171
-0.7485,-10.493,3.5892,1.216,-0.6463,3.0821,-2.8286
-0.72375,-9.689,5.0014,0.84337,-0.7364,3.2999,-2.7107
-0.59415,-9.0613,6.3743,0.8826,-0.77,3.5125,-2.9193
-0.41037,-8.5906,8.2964,1.2749,-0.72479,3.6942,-3.0363
-0.10223,-8.4337,9.2967,2.2555,-0.62308,3.8481,-3.1157
0.25388,-8.3945,9.4144,3.0597,-0.50946,4.0015,-3.124
0.63068,-8.6495,8.9241,3.2166,-0.46395,4.1142,-3.0623
0.9509,-8.6102,8.0611,2.5693,-0.55772,4.1582,-2.9554
1,-8.2376,7.2961,1.5298,-3.3158,-0.99938,0.16218
1,-7.5119,6.492,0.90221,-3.3353,-0.88575,-0.022602
1,-6.8254,5.884,0.64724,-3.2626,-0.7703,1.266
1,-6.4528,4.9622,0.33343,-3.0968,-0.66065,1.073
1,-5.6682,4.0011,0.21575,-2.8482,-0.55803,0.90713
1,-5.4721,3.4323,0,-2.5265,-0.46304,0.74159
1,-5.0798,2.7655,-0.15691,-2.1515,-0.36469,0.55894
1,-4.4718,2.4124,-0.37265,-1.7455,-0.25962,0.36011
1,-4.2561,2.6674,-0.47072,-1.3363,-0.15058,-1.2327
1,-4.1188,3.3735,-0.50995,-0.94715,-0.025351,-1.3845
0.87747,-4.4326,3.903,-0.2942,-0.5962,0.11973,-0.20036
0.68323,-4.7464,4.4914,-0.15691,-0.28772,0.281,-0.36408
0.51193,-5.2368,4.9426,0.019613,-0.007025,0.46151,-0.51893
0.36823,-5.9232,5.5506,0.23536,0.24465,0.66676,-0.68997
0.26187,-6.6489,5.7859,0.33343,0.44746,0.89156,-0.87842
0.17352,-7.61,5.8448,0.33343,0.59071,1.1203,-1.0672
0.082031,-8.1199,6.0605,0.31381,0.67012,1.3476,-2.7086
-0.006958,-9.2967,6.4135,0.49033,0.67775,1.5708,-2.8362
-0.094757,-10.395,6.4332,0.96105,0.61056,1.792,-1.5488
-0.19708,-11.023,6.4135,1.1964,0.4725,2.0076,-1.741
-0.3129,-12.199,6.5901,1.3337,0.28405,2.2138,-1.9517
-0.44205,-12.572,7.61,1.726,0.073915,2.4117,-2.1606
-0.56863,-13.102,8.2572,2.0398,-0.1292,2.616,-2.3589
-0.68137,-13.161,8.3749,2.7655,-0.31979,2.8475,-2.5415
-0.81006,-12.474,8.5318,2.5693,4.7965,-4.2388,2.989
-0.9129,-12.533,8.5318,2.8243,4.5821,-4.0329,2.9755
-0.99905,-10.944,7.7276,2.8047,4.3558,-3.8359,2.6832
-0.99997,-10.179,7.5707,3.1577,4.0998,-3.6747,2.8048
-0.99997,-9.2967,6.9431,3.4519,3.7648,-3.5235,2.8869
-0.99997,-8.5122,5.7075,4.0011,3.3304,-3.3488,2.9438
-0.99997,-7.6688,4.2953,4.2365,2.7611,-3.1362,2.988
-0.99997,-7.6688,3.2362,4.158,2.0039,-2.8995,2.999
-0.99997,-7.2961,3.0597,4.158,0.6127,-1.5369,0.22052
-0.99997,-7.1196,3.7658,4.7856,0.84208,-1.7504,0.24984
-0.99997,-6.6293,4.3934,5.1387,1.0211,-1.9594,0.22755
-0.99997,-6.0997,4.6287,5.0995,1.1668,-2.1576,0.2755
-0.99997,-6.0801,4.2757,4.8053,1.3152,-2.3488,0.28894
-0.99997,-6.3939,4.1188,4.7268,1.4948,-2.5369,0.27031
-0.99997,-6.6097,4.158,4.4914,1.7174,-2.7254,0.23305
-0.99997,-7.4923,4.5307,4.4914,1.9581,-2.9129,0.21166
-0.99997,-8.3553,4.6287,4.1384,2.1893,-3.0946,0.74495
-0.99997,-9.179,4.6091,3.8246,2.4093,-3.2773,0.86285
-0.99997,-10.003,4.9229,3.4127,2.6176,-3.4563,0.2868
-0.99997,-10.709,5.4329,3.197,2.8146,-3.6282,0.32895
-0.99997,-11.121,5.8448,2.589,3.0082,-3.7932,0.38454
-0.99997,-11.572,5.9624,2.3536,3.2077,-3.9474,0.45387
-0.95126,-11.886,5.9624,1.9025,3.4233,-4.0971,0.53878
-0.74402,-11.964,5.884,1.216,3.6566,-4.24,0.63988
-0.53192,-11.631,5.7075,0.39227,3.8988,-4.3784,2.3915
-0.31168,-11.199,6.5901,-1.0983,4.1383,-4.5177,2.5427
-0.08139,-10.728,7.4531,-1.6475,4.3933,-4.6395,1.0049
0.16858,-10.022,7.2961,-0.56879,4.6652,-4.722,1.1533
0.42789,-9.5517,6.9823,0.15691,4.9034,-4.7275,1.3155
0.72446,-9.689,7.0412,-0.23536,5.0399,-4.6472,1.5262
0.97021,-9.0613,7.1392,-1.3337,5.0479,-4.5354,1.8286
1,-8.3553,7.61,-1.3533,4.9608,-4.4062,2.16
1,-7.7669,7.5707,-1.0983,-1.6655,2.9416,-2.047
1,-7.5903,6.5312,-1.3533,-1.6215,3.1579,-2.0852
1,-6.6097,4.2953,-3.1774,-1.6011,3.3726,-1.7446
1,-5.374,2.3928,-4.6091,-1.6017,3.5784,-1.8045
1,-4.2757,1.5691,-4.6287,-1.6057,3.781,-1.8579
1,-3.9815,2.334,-3.6873,-1.6057,3.9813,-1.9166
1,-4.5895,4.0207,-2.8832,-1.5953,4.1743,-1.9682
1,-5.2368,5.0798,-2.589,-1.5773,4.3585,-2.0097
1,-5.374,5.5506,-2.3536,-1.5522,4.5253,-2.058
1,-5.5506,5.7271,-2.2359,-1.5195,4.6679,-1.9725
1,-5.7075,5.5702,-2.2555,-1.47,4.776,-2.1163
1,-6.1782,5.884,-2.0202,-1.3955,4.8408,-2.1356
1,-6.4724,6.0213,-1.8633,-1.3042,4.8558,-2.1509
1,-7.1392,6.4135,-1.6279,-1.2175,4.8124,-2.1564
1,-7.8845,6.7862,-1.2945,-1.1658,4.7131,-2.1536
0.99194,-9.0613,7.1392,-0.8826,-1.1958,4.5421,-2.1261
0.80502,-9.3359,7.2569,-0.82376,-1.8625,4.3124,-0.77794
0.53979,-10.317,7.2961,-0.66685,-2.1493,4.0684,-0.5678
0.29126,-11.023,7.1392,-0.15691,-2.3918,3.8197,-1.8521
0.086639,-11.827,7.0019,0.39227,-2.591,3.5464,-1.6991
-0.10434,-12.278,6.9627,0.86299,-2.7336,3.2501,-1.5531
-0.26837,-12.258,7.4138,1.8044,-2.7892,2.9398,-1.4087
-0.40512,-11.69,7.9826,2.589,-1.3344,2.6292,-1.2388
-0.52512,-11.258,8.218,3.0401,-1.5711,2.3335,-1.0183
-0.61426,-10.395,7.8453,2.8439,-2.3796,2.0565,0.46548
-0.70462,-9.689,7.2177,2.5301,-2.105,1.7932,0.49083
-0.81647,-9.0221,6.2174,2.3144,-1.8185,1.5458,-0.37751
-0.92068,-8.4337,5.3348,2.4124,-1.5623,1.3292,-0.18265
-0.99997,-7.7473,4.9229,2.5301,-1.3436,1.1533,0.017104
-0.99997,-7.9238,4.7856,2.6674,-1.1585,1.0143,0.19334
-0.99997,-7.963,4.7464,2.5693,-2.7413,0.89461,0.33078
-0.99997,-7.4138,4.9229,2.6674,-2.5983,0.77916,0.42211
-0.99997,-6.6293,4.9033,2.7655,1.4013,-3.9132,-0.64538
-0.99997,-7.7669,4.4718,2.9224,1.4471,-4.0036,-0.57391
-0.99997,-8.5318,3.805,3.295,1.5266,-4.0971,-0.41753
-0.99997,-8.9241,3.3735,3.5696,1.6545,-4.1878,-0.49327
-0.99997,-8.3749,3.8638,4.0992,1.8488,-4.2696,-0.56413
-0.99997,-7.4923,4.9229,4.9426,2.1032,-4.3481,-0.63652
-0.99997,-7.1785,6.6489,6.5312,2.3873,-4.4245,-0.67745
-0.99997,-7.5903,7.7669,7.61,2.6713,-4.5051,-0.68081
-0.99997,-8.1199,6.9039,7.2177,2.9386,-4.5891,0.19364
-0.99997,-8.1199,5.1583,5.9036,3.1854,-4.6667,0.34361
-0.99997,-7.8845,3.8442,5.8055,3.394,-4.7128,-0.48808
-0.99997,-8.3553,2.432,6.5312,3.5907,-4.7195,-0.37813
-0.99997,-8.7083,1.4906,7.1589,3.8338,-4.7,-0.25626
-0.99997,-9.3359,1.5691,7.2765,4.1316,-4.6496,-0.15241
-0.99997,-10.12,2.5693,7.0804,4.4663,-4.5757,-0.062614
-0.99997,-10.728,3.3931,7.2765,4.81,-4.4899,0.054367
-0.99997,-11.729,3.8246,7.0608,5.1343,-4.383,1.7883
-0.99997,-12.415,4.0796,6.845,5.3982,-4.24,1.7721
-0.99997,-12.611,4.1384,6.1978,5.561,-4.054,0.5116
-0.99997,-13.239,4.2757,5.5113,5.5952,-3.8335,0.71502
-0.99997,-13.219,4.7072,4.9229,5.4245,-3.5791,0.96517
-0.99997,-12.454,5.374,4.0403,4.9621,-3.2883,1.2217
-0.99997,-11.572,5.531,2.8439,4.2522,-2.9896,1.4615
-0.99997,-10.885,5.531,1.824,3.3857,-2.7156,1.6716
-0.99997,-9.9439,5.3937,1.0983,-1.3555,-2.5571,-0.24862
-0.94162,-9.0221,5.8055,0.54917,-0.77305,-2.803,-0.33781
-0.65469,-7.963,6.6293,-0.2942,-0.15974,-3.0345,0.14508
-0.31985,-6.8647,7.5903,-0.50995,0.40378,-3.2443,0.10324
0.058228,-6.0017,8.4533,-0.078453,0.8546,-3.43,0.059865
0.43924,-6.0801,8.8456,0.68647,1.16,-3.5888,0.013134
0.83478,-5.5113,8.4729,0.43149,1.3204,-3.7205,-0.057116
1,-4.9818,6.6489,-0.78453,1.3766,-3.8231,-0.14936
1,-3.9619,4.4914,-2.2555,-2.1744,4.5372,-0.3882
1,-2.9028,2.8243,-2.9812,-2.7104,4.2822,-0.14264
1,-2.2359,2.2555,-2.589,-3.2755,4.0128,-1.5198
1,-2.0986,3.0401,-2.0398,-3.8408,3.7125,-1.3931
1,-2.5497,4.5307,-1.4906,-4.3601,3.3894,-1.2153
1,-3.4912,5.5702,-1.0199,-4.7736,3.0864,-1.0165
1,-3.6677,5.7859,-0.84337,-5.0158,2.8167,-0.83078
1,-4.1972,5.8644,-0.35304,-5.0433,2.5412,-0.62919
1,-4.9229,5.8448,0.019613,-4.1982,2.2477,1.3964
1,-6.0213,5.5506,0.078453,-3.7916,1.9624,1.4227
1,-6.9235,5.3348,0.25497,-3.4037,1.6991,0.13256
1,-8.3553,5.7075,0.25497,-3.0705,1.4484,0.44288
1,-9.5517,5.884,0.41188,-2.7828,1.2028,0.71838
0.93271,-11.356,5.7271,0.52956,-2.5244,0.95692,0.96059
0.70822,-12.827,5.9036,0.47072,-4.8732,0.7083,1.1695
0.49719,-14.945,6.3743,1.1768,-4.572,0.47434,1.3146
0.29974,-15.808,6.8058,1.8044,-2.2944,0.27428,1.4184
0.13174,-15.867,7.2177,2.3144,-2.0751,0.11057,1.3934
-0.0050964,-15.279,7.8845,2.6674,-1.8805,-0.03879,1.3289
-0.10513,-14.965,8.5514,3.7854,-1.7107,-0.17013,1.2159
-0.17621,-13.514,9.0417,4.1384,-1.5458,-0.27397,1.0626
-0.21063,-11.788,9.3163,3.8246,-1.3653,-0.36285,0.89003
-0.23752,-9.3752,8.316,2.7655,-1.1582,-0.43982,0.70311
-0.27737,-8.2376,6.5116,2.2555,-0.9166,-0.50427,0.50121
-0.33823,-7.1785,5.3937,2.5693,-1.1435,5.251,-1.7257
-0.44574,-6.8647,5.021,3.5304,-1.0595,5.2959,-1.6273
-0.5925,-7.1785,5.2171,4.3345,-1.0437,5.3008,-2.0284
-0.76801,-7.5903,5.1583,4.8053,-1.0901,5.2641,-2.0036
-0.95572,-7.1196,4.8445,4.9229,-1.1668,5.1875,-1.978
-0.99997,-7.0216,4.6287,5.276,-1.2651,5.0751,-1.9322
-0.99997,-6.4135,4.1188,5.6682,-1.4291,4.9422,-1.8769
-0.99997,-5.3152,3.4519,5.6486,-1.7278,4.7675,-1.8127
-0.99997,-4.668,3.3735,5.7271,1.6823,-4.4648,0.74739
-0.99997,-4.3149,3.2754,5.6682,0.91813,-4.2871,0.66218
-0.99997,-4.1384,3.3343,5.5702,0.28008,-4.1017,1.8317
-0.99997,-4.7268,3.0401,5.2956,-0.13897,-3.8885,1.6698
-0.99997,-5.629,2.8832,4.9818,-0.35552,-3.6585,1.4484
-0.99997,-6.4724,3.0401,4.6091,-0.42699,-3.427,1.2223
-0.99997,-7.5903,3.2362,4.2953,-0.39034,-3.1887,1.0278
-0.99997,-7.9826,4.06,3.9227,-0.27397,-2.9483,0.86712
-0.99997,-8.7475,5.0798,3.7854,-0.11332,-2.718,-0.063225
-0.99997,-9.3752,6.0605,3.8638,0.07086,-2.4923,-0.16157
-0.99997,-10.219,7.7865,3.8246,0.27245,-2.2681,0.58154
-0.89145,-11.533,9.7282,4.9426,0.48808,-2.0372,0.47983
-0.63455,-12.513,10.572,6.1978,0.7199,-1.7834,0.37171
-0.38562,-14.141,10.101,5.884,0.9331,-1.4988,0.27031
-0.14349,-14.886,8.6102,4.2365,1.0605,-1.2016,0.15944
0.078857,-14.965,6.9039,2.6674,1.0806,-0.89614,0.042761
0.22192,-14.71,5.7075,2.0006,0.30421,-3.8842,0.7138
0.3194,-14.024,4.9426,1.3141,-0.11606,-4.0659,0.79443
0.34775,-13.455,5.1583,0.64724,-0.30482,-4.2858,0.60873
0.37827,-12.474,6.1978,-0.23536,-0.24954,-4.528,0.66554
0.41409,-11.003,7.5315,-0.05884,0.029016,-4.7553,0.69058
0.48611,-9.787,8.3945,1.0983,0.48075,-4.9642,0.68356
0.57806,-9.6301,9.0221,1.4122,1.0513,-5.1526,0.66951
0.67401,-9.4732,8.4729,0.96105,1.7043,-5.298,0.67714
0.78452,-8.2768,6.7274,0.15691,2.3876,-5.4107,2.0421
0.86542,-7.4531,5.2564,-0.37265,3.0449,-5.4914,1.9532
0.89328,-6.6097,4.2953,-0.8826,3.6108,-5.4892,0.90775
0.92303,-6.0017,3.7658,-1.5691,3.9981,-5.3939,1.0525
0.91452,-4.9229,3.6677,-2.1771,4.0726,-5.2327,1.2624
0.90738,-4.1188,3.55,-2.5497,3.7645,-5.0497,1.5171
0.91431,-3.6285,4.1188,-2.0986,3.1786,-4.8585,1.7804
0.91772,-3.4127,4.9229,-1.3141,2.4581,-4.6572,1.9908
0.9209,-3.6677,5.4917,-0.86299,-2.7052,1.3347,1.1109
0.94998,-3.903,5.3937,-1.1768,-2.7138,1.2755,0.88575
0.98154,-3.8246,4.9229,-1.6279,-2.6942,1.2049,1.825
1,-4.1384,5.0602,-1.4906,-2.6145,1.1249,1.751
1,-4.4522,5.7271,-1.0003,-2.4978,1.0467,1.6725
1,-5.0406,6.7274,-0.50995,-2.3894,0.99388,1.5821
1,-5.4133,6.7274,-0.19613,-2.6829,0.95539,1.4673
0.97736,-6.2959,6.3547,-0.078453,-2.6878,0.89522,1.3106
0.95792,-7.4138,5.7075,-0.41188,-1.2804,5.8301,-1.4673
0.92587,-9.179,5.5506,-0.60801,-1.5666,5.9199,-1.2669
0.87469,-11.493,5.6486,-0.37265,-1.8891,5.8658,-3.1774
0.81787,-13.769,6.492,0.72569,-2.2294,5.6936,-3.1215
0.76453,-15.965,8.5318,2.6674,-2.5082,5.4208,-2.9884
0.71304,-17.122,9.9439,3.8442,-2.854,5.0409,-2.6725
0.66614,-16.514,9.8655,4.3934,-3.335,4.682,-2.1945
0.62204,-16.24,9.8066,5.884,-3.7785,4.3405,-1.784
0.53268,-14.494,9.4536,5.9821,-3.9868,3.8964,0.894
0.44946,-14.043,7.2177,5.6682,-4.0116,3.4172,1.1475
0.29706,-11.435,6.0017,5.5702,-3.846,2.9548,-1.0409
0.082367,-9.0025,6.1586,6.4332,-3.5177,2.5513,-0.62217
-0.14557,-8.218,6.1782,6.4332,-3.2092,2.2837,-0.1573
-0.37076,-8.0807,6.6489,6.0213,-2.9911,2.1163,0.19181
-0.55038,-7.2765,6.5705,5.3544,-2.8204,1.9505,0.44471
-0.70212,-7.8061,5.7859,5.2368,-2.6933,1.7782,0.66096
-0.81622,-7.2569,5.374,5.4329,-2.613,1.6435,1.8631
-0.90512,-7.4923,4.7856,5.3544,-2.6622,1.5586,1.8711
-0.94409,-7.4334,4.158,5.4329,-2.6768,1.5226,1.3641
-0.96411,-7.4923,3.3539,5.2956,-2.6814,1.5033,1.5217
-0.95044,-7.1392,2.4517,4.8837,-2.693,1.474,1.6481
-0.91678,-7.1392,1.824,5.2368,-2.6918,1.4438,1.7346
-0.88022,-7.0804,1.4122,5.6094,-2.6118,1.4212,1.7681
-0.83218,-6.237,1.1376,6.0801,-2.5806,1.3839,1.8137
-0.80936,-6.0997,1.0787,5.8644,4.0195,-3.6148,0.32223
-0.79178,-6.492,0.50995,5.5702,4.2205,-3.9132,0.49938
-0.77869,-6.3547,0.76492,5.5702,4.4092,-4.1966,-0.80237
-0.82938,-7.355,1.1572,5.7467,4.5677,-4.4413,-0.62217
-0.90442,-8.5122,1.6475,5.7075,4.6911,-4.6398,-0.44257
-0.98633,-9.0613,2.4517,5.4525,4.7745,-4.8106,-0.2645
-0.99997,-9.9243,3.6481,5.4329,4.8155,-4.9669,-0.07025
-0.99997,-10.375,4.7072,5.276,4.8179,-5.0964,0.13347
-0.99997,-11.121,5.884,5.7467,4.7919,-5.1945,1.6909
-0.99997,-11.886,6.0213,6.1978,4.7651,-5.2647,1.7743
-0.99997,-12.572,5.7271,5.7663,4.725,-5.2956,0.6805
-0.99997,-12.768,5.6486,5.0995,4.6218,-5.2736,0.8546
-0.99915,-12.729,5.7075,4.4914,4.4361,-5.204,1.0504
-0.88339,-12.258,5.8448,4.413,4.2079,-5.0821,1.2782
-0.75439,-12.199,6.4135,4.4914,3.9618,-4.9104,1.4633
-0.58435,-12.141,6.5901,3.9227,3.7116,-4.6921,1.5895
-0.41168,-11.474,6.4135,2.942,3.4654,-4.4453,1.6081
-0.18875,-10.532,7.1981,2.1378,3.2015,-4.1814,1.4801
0.040283,-9.7478,7.4334,1.6475,2.8891,-3.9141,1.8384
0.28671,-8.5318,7.2765,1.726,2.5354,-3.6618,1.8873
0.55759,-7.9826,6.845,1.726,2.1838,-3.4263,1.9132
0.81485,-7.0804,6.5901,1.4906,1.8528,-3.1954,1.8851
0.9939,-6.6685,6.1586,1.6475,1.5412,-2.9774,1.8066
1,-6.0213,5.9624,1.3533,1.2581,-2.7749,1.7138
1,-5.6094,5.7859,0.86299,1.004,-2.5678,0.67348
1,-4.6287,5.1583,0.05884,0.76908,-2.3347,0.50793
1,-4.4522,4.1776,-0.76492,0.55711,-2.0922,1.3506
1,-3.5892,3.2362,-1.6475,0.39034,-1.8521,1.2434
1,-3.197,2.589,-2.1378,0.27825,-1.6081,1.1432
1,-2.334,2.2948,-2.6086,0.22388,-1.3656,1.0351
1,-2.4124,3.0401,-2.2751,0.23091,-1.1307,0.92363
1,-2.8047,4.2169,-1.824,0.31154,-0.88637,0.81123
1,-3.8834,5.3348,-1.3337,-3.0723,3.2055,0.43952
1,-4.7856,6.0213,-1.7064,-3.014,3.0342,0.49755
1,-6.0409,6.4135,-1.7848,-2.9352,2.8869,-0.30788
1,-7.3942,6.7274,-1.5495,-2.8292,2.7626,-0.099876
1,-9.1398,6.9823,-1.0983,-2.6918,2.6496,0.079107
1,-10.591,7.7669,-1.0003,-2.5171,2.5482,0.21197
1,-12.141,8.4141,-1.0395,-2.328,2.4532,0.29444
1,-12.886,8.5318,-0.78453,-2.1533,2.3744,0.36408
1,-12.788,8.3945,-0.47072,-1.919,2.3155,0.35308
1,-12.121,8.3749,-0.15691,-1.9535,2.2697,0.34025
1,-11.219,8.2376,0.078453,-2.0061,2.2287,0.51313
1,-10.317,7.355,0.56879,-2.0491,2.1875,0.48503
1,-9.9439,6.8058,0.84337,-2.0681,2.1338,0.44104
1,-9.9047,6.2763,0.96105,-2.0443,2.0675,0.41081
0.92313,-10.179,6.3155,1.0983,-2.0131,1.9832,0.37538
0.66849,-10.532,5.884,1.3141,-1.9319,1.8885,0.35552
0.40256,-11.023,5.7075,1.824,-1.6857,1.7917,0.39492
0.14172,-10.885,5.4721,1.9809,-1.503,1.6939,0.34819
-0.1218,-10.375,5.7271,2.2751,-1.3082,1.605,0.32956
-0.35626,-9.7086,6.0409,2.4713,-1.1185,1.5146,0.36011
-0.5574,-8.7083,6.3743,2.8439,-0.93585,1.4261,0.41233
-0.73059,-8.0611,6.4135,2.942,-0.75778,1.3457,0.42883
-0.8678,-7.1785,6.3547,3.0597,-1.9603,1.2627,0.41783
-0.97672,-6.6293,5.9036,2.8439,-1.8369,1.1707,0.41142
-0.99997,-5.9232,5.5898,2.8439,0.027184,1.0748,-0.28497
-0.99997,-5.7075,5.1583,3.0597,-0.55528,0.98074,-0.36133
-0.99997,-5.374,4.9426,3.4519,-0.4163,0.88026,0.27733
-0.99997,-5.5506,4.7856,3.7265,-0.29413,0.77519,0.18631
-0.99997,-5.5506,4.8445,4.0992,-0.18418,0.66859,0.082161
-0.99997,-5.8252,4.8641,4.3149,-0.092852,0.55436,-0.021075
-0.99997,-5.7271,5.2368,4.6484,-0.029932,0.42852,-0.11484
-0.99997,-5.7075,5.7075,5.021,0.007025,0.28772,-0.19914
-0.99997,-5.6879,5.9624,5.0406,2.521,-4.273,1.4762
-0.99997,-6.1586,6.3547,4.9622,2.6017,-4.3622,1.4368
-0.99997,-5.9232,6.3743,4.8249,2.6673,-4.4132,1.0162
-0.99997,-6.0017,6.2174,4.7268,2.5983,-4.415,1.0883
-0.99997,-6.6293,6.0017,4.4914,2.3463,-4.3817,1.2511
-0.99997,-6.9627,5.8448,4.0992,2.0165,-4.3213,1.4624
-0.99997,-7.355,5.9624,3.7265,1.7049,-4.2174,1.5672
-0.99997,-7.8845,6.492,3.6088,1.4383,-4.0827,1.5372
-0.96451,-8.1984,6.9823,3.3146,1.2288,-3.9599,1.0266
-0.88275,-8.3357,7.4138,3.0793,1.0916,-3.8613,1.0186
-0.77267,-8.8064,7.8845,3.0597,1.0379,-3.7587,1.3964
-0.65082,-9.434,7.9042,2.942,1.0611,-3.642,1.3179
-0.52548,-10.179,7.4727,2.6282,1.1328,-3.5134,1.2062
-0.37915,-10.728,7.1589,2.1378,1.1823,-3.365,1.0901
-0.24103,-10.885,7.1196,1.8437,1.1545,-3.1979,1.0165
-0.11484,-11.258,7.2765,1.8437,1.0427,-3.0073,1.0104
0.006897,-11.69,7.1392,1.9809,0.87354,-2.7874,0.31887
0.12476,-12.043,6.5116,1.8044,0.70463,-2.5262,0.15211
0.20071,-11.846,6.2763,1.0591,0.56291,-2.211,0.96272
0.27725,-11.807,7.2569,0.78453,0.45632,-1.8735,0.8601
0.33691,-12.16,7.2569,1.1768,0.38485,-1.5278,0.75503
0.37656,-11.533,6.6293,1.3729,0.35369,-1.1686,0.65149
0.43457,-11.435,6.0213,1.2553,0.34544,-0.80176,0.5397
0.46796,-10.219,5.1583,0.74531,0.31368,-0.43952,0.43433
0.50269,-8.4337,4.9622,0.25497,2.0779,-3.368,0.95723
0.52856,-6.5508,5.4721,-0.39227,2.2092,-3.5079,0.98197
0.53967,-5.4721,5.1779,-0.94144,2.3323,-3.6371,0.31032
0.57739,-4.2757,4.0207,-1.6475,2.4337,-3.7513,0.43188
0.59174,-3.3146,3.197,-1.6671,2.4923,-3.8515,0.55619
0.64465,-2.5693,3.5108,-1.1768,2.492,-3.9502,0.68936
0.69742,-2.0986,4.1776,-0.21575,2.4688,-4.0565,0.8152
0.74466,-1.7652,4.7856,0.15691,2.474,-4.1667,0.90958
0.79947,-2.4124,4.8445,0.11768,-1.1304,2.4141,0.22327
0.85483,-3.0989,4.7072,-0.098066,-0.8885,2.2541,0.22235
0.87515,-4.0403,4.7072,-0.23536,-0.63438,2.0895,-0.20128
0.88315,-4.9818,4.7856,-0.37265,-0.44043,1.9239,-0.12431
0.85831,-5.8448,5.0995,-0.21575,-0.3598,1.7749,-0.065363
0.81036,-6.9431,5.374,0.15691,-0.4218,1.6463,0.0036652
0.75504,-8.5122,5.9036,0.80415,-1.3567,1.5357,0.10324
0.66626,-9.2967,6.4135,1.3141,-1.2963,1.4371,0.18906
0.59146,-10.532,6.5116,1.6867,-1.2834,1.3363,0.089492
0.51651,-11.376,6.1782,1.9809,-1.6579,1.23,0.10599
0.44888,-12.278,5.9624,2.2948,-2.0229,1.1252,0.21808
0.37033,-12.886,5.374,2.2751,-2.332,1.0275,0.21289
0.25568,-13.239,5.021,2.1378,-2.558,0.93187,0.20861
0.14703,-13.219,4.5307,2.1378,-2.6878,0.82864,0.19334
0.011566,-13.141,4.6287,2.2948,-0.62889,0.71563,0.15272
-0.13675,-12.69,4.9033,2.7262,-0.93187,0.58521,0.10568
-0.27762,-12.533,5.3152,3.197,-2.5892,4.4389,-1.1756
-0.40656,-12.003,5.7271,3.5108,-2.5186,4.3799,-1.065
-0.53662,-11.748,5.9624,3.8834,-2.3708,4.3017,-1.6383
-0.62689,-10.807,6.0213,4.0992,-2.1438,4.2214,-1.6154
-0.71564,-10.415,5.3937,3.9227,-1.8628,4.1389,-1.569
-0.7926,-10.16,4.4522,3.9815,-1.5806,4.0455,-1.5052
-0.85522,-9.8655,3.4323,4.1384,-1.3427,3.9419,-1.416
-0.93808,-8.4926,3.5304,4.413,-1.1472,3.8295,-1.3024
-0.99899,-7.7669,4.2169,4.9622,-0.99602,3.7028,-0.38546
-0.99997,-7.2961,4.9229,5.4329,-0.90316,3.5647,-0.29383
-0.99997,-7.1196,5.6486,5.6682,-0.87506,3.4187,-0.96944
-0.99997,-7.1196,5.7075,5.4329,-0.90836,3.2571,-0.86499
-0.99997,-7.2569,5.1583,5.1779,-0.99205,3.0873,-0.75869
-0.99997,-7.4531,4.6287,5.1975,-1.1115,2.9202,-0.67042
-0.99997,-7.2765,4.5307,5.0995,-1.233,2.7498,-0.57818
-0.99997,-7.6688,4.2953,5.021,-1.3241,2.5794,-0.47709
-0.99997,-7.7669,4.1188,4.9426,0.86437,-2.9822,0.3372
-0.99997,-8.3945,3.6677,4.5699,1.0308,-2.8085,0.20464
-0.99997,-8.1787,3.3931,4.2365,1.1878,-2.6044,0.87537
-0.99997,-8.1199,3.8442,4.0011,1.3317,-2.3842,0.77397
-0.99997,-8.3945,4.5307,3.9423,1.4581,-2.1753,0.6744
-0.99997,-8.8456,4.9229,4.0992,1.5522,-1.9865,0.58979
-0.99997,-9.2379,5.2171,4.0011,1.5996,-1.8066,0.51832
-0.99997,-9.6497,5.1583,3.6873,1.591,-1.6081,0.4496
-0.99997,-9.8655,5.0995,3.3539,0.69242,-2.6985,-0.54489
-0.97836,-9.5517,5.0995,3.0989,1.015,-2.8286,-0.45051
-0.89047,-9.8459,5.2171,3.0008,1.3891,-2.9706,-0.84971
-0.78641,-10.12,5.2564,2.5301,1.8057,-3.1246,-0.85582
-0.67133,-11.199,5.374,1.9809,0.86224,-0.29963,-0.31918
-0.54999,-11.827,5.9036,1.3729,0.62247,-0.014661,-0.39828
-0.40567,-12.199,6.6489,0.78453,0.37263,0.26206,-0.47831
-0.2236,-12.454,7.2961,0.37265,0.1408,0.52565,-0.58765
-0.038086,-11.748,7.8453,-0.19613,3.8533,-3.8405,1.2501
0.18564,-9.8655,9.5125,-1.7064,4.1514,-3.9767,1.3561
0.42355,-8.8456,10.866,-1.6083,4.4046,-4.1108,-0.35277
0.67783,-7.7473,10.238,-0.54917,4.6001,-4.2244,-0.25076
0.92804,-7.7473,9.3163,0.098066,4.6621,-4.2669,-0.12156
1,-8.0218,8.2964,-0.45111,4.4947,-4.226,0.11668
1,-7.8845,6.5116,-1.0395,4.0897,-4.1508,0.51954
1,-6.9627,6.0017,-2.2751,3.5378,-4.0485,0.96364
1,-6.3155,5.7271,-2.2751,2.93,-3.8903,1.0259
1,-5.884,5.7075,-1.7848,2.314,-3.697,0.93615
1,-6.139,5.884,-1.726,1.7208,-3.5455,1.3977
1,-5.7075,6.0997,-1.8044,1.2162,-3.466,1.4578
1,-4.8445,6.3547,-2.1771,0.85491,-3.4205,1.5073
1,-4.3542,6.3547,-1.9221,0.65882,-3.3643,1.485
1,-4.0403,6.4135,-1.6279,0.62186,-3.2724,1.3738
1,-3.9815,6.6489,-1.5102,0.70983,-3.1386,1.1961
1,-4.1188,6.492,-1.4906,-0.32101,-0.054367,0.094684
1,-4.2757,6.0605,-1.4906,-0.11484,-0.19884,0.10507
1,-4.5111,5.9624,-1.4906,0.12523,-0.34911,0.18112
1,-5.374,6.0997,-1.0983,0.38851,-0.50549,0.14661
1,-5.9821,6.3351,-0.82376,0.66065,-0.66279,0.12278
1,-6.237,6.5901,-0.66685,0.94104,-0.81673,0.11087
1,-6.8843,6.8254,-0.68647,-0.62125,-0.97158,0.10171
1,-7.8061,6.9627,-0.70608,-0.48839,-1.1261,0.096822
1,-8.8064,6.9431,-0.35304,-2.5488,3.9331,-0.52168
1,-9.8066,7.0019,0.25497,-2.715,3.682,-0.31215
1,-10.63,7.0019,0.78453,-2.905,3.4254,-1.8607
0.96698,-11.258,6.6489,1.0199,-3.08,3.1924,-1.6732
0.87454,-11.729,6.5116,1.471,-3.2046,2.9755,-1.4746
0.80209,-11.376,7.0412,1.6867,-3.2635,2.7449,-1.2275
0.70102,-11.003,7.5707,1.9025,-3.2513,2.5042,-0.9612
0.59891,-10.179,7.7276,1.6279,-3.1359,2.2721,-0.73121
0.48608,-9.5909,7.61,1.6475,-2.8961,2.0507,0.45968
0.34723,-9.0025,6.9627,1.7848,-2.5504,1.8387,0.46365
0.1886,-8.5122,6.0997,1.8044,-2.1622,1.6515,-0.11148
0.0068665,-7.8845,5.6486,1.8829,-1.7938,1.4951,0.067501
-0.16946,-7.1196,5.7859,2.1378,-1.4823,1.3576,0.21747
-0.35269,-6.9627,6.1586,2.7655,-1.2565,1.2358,0.3317
-0.49814,-6.237,6.3547,3.0597,-1.1222,1.124,0.40836
-0.60471,-6.0997,6.2763,3.2362,-1.0626,1.0223,0.44624
-0.69128,-6.3351,5.884,3.3146,-1.0733,0.92454,0.22999
-0.75656,-5.8644,5.4721,3.2558,-1.0611,0.82192,0.21105
-0.80157,-5.8644,5.3152,3.2558,-1.0131,0.71532,0.44532
-0.83896,-5.8448,5.2564,3.3735,-0.93126,0.60353,0.40042
-0.85321,-6.3351,4.9229,3.1577,-0.83475,0.48472,0.35094
-0.85083,-6.6293,4.7856,3.0597,-0.73487,0.36011,0.31124
-0.85507,-7.1196,4.7072,2.9028,-1.0547,0.22877,0.27794
-0.80905,-7.4138,4.8445,2.942,-1.0644,0.088575,0.24862
-0.76126,-7.8845,4.9229,3.0008,-0.48136,-3.6395,1.4484
-0.68222,-7.5903,5.2171,3.1577,-0.19731,-3.5583,1.336
-0.58957,-7.7473,5.5702,3.4716,0.087659,-3.4541,1.5501
-0.50406,-11.807,5.8644,4.158,0.32284,-3.3265,1.5522
-0.43964,-15.965,6.1782,4.5503,0.47464,-3.1753,1.587
-0.35065,-14.651,7.5903,5.1975,0.5174,-2.9975,1.6011
-0.26959,-11.023,9.2379,6.0409,0.44227,-2.8063,1.5782
-0.194,-9.5517,9.4928,5.5702,0.28008,-2.6179,1.5305
-0.086487,-8.5122,8.8848,4.8249,0.07422,-2.4322,0.62644
-0.0051575,-7.7473,8.1003,3.8638,-0.13622,-2.2468,0.55619
0.075653,-7.1785,7.5707,2.9224,-0.31765,-2.0537,1.2101
0.10397,-6.6293,6.6293,2.5301,-0.44899,-1.8607,1.0724
0.083435,-6.4528,5.6486,2.432,-0.52565,-1.6729,0.93982
0.060791,-6.7274,5.2564,2.2948,-0.56597,-1.4908,0.83505
0.016602,-7.0412,5.5898,2.2948,-0.59865,-1.3182,0.7532
-0.019775,-6.9235,6.4135,2.2555,-0.6182,-1.1576,0.68417
-0.030792,-7.0804,7.1589,2.2163,-0.61025,-1.0116,-0.38485
-0.017548,-6.9431,7.4334,2.0398,-0.56597,-0.86285,-0.50946
-0.00088501,-6.3547,7.0019,1.6475,-0.44807,-0.70769,0.45448
0.025208,-5.9821,6.4724,1.1572,-0.23152,-0.53267,0.32009
0.069641,-5.1975,6.0017,0.54917,0.069639,-0.33414,0.17471
0.11447,-4.6091,5.6486,0,0.41753,-0.11973,0.025351
0.14987,-3.6873,4.8053,-0.78453,0.77,0.10537,-0.12004
0.20993,-3.197,4.0796,-1.1376,1.087,0.34117,-0.25534
0.25565,-2.9028,3.9815,-1.2945,1.3347,0.59254,-1.6301
0.31372,-3.0989,4.5307,-1.0003,1.4985,0.85277,-1.7782
0.38419,-3.6285,5.5506,-0.72569,1.5556,1.1292,-0.63194
0.45355,-4.1188,6.4135,-0.23536,1.478,1.4206,-0.77549
0.52399,-4.9818,7.2177,0.23536,1.2703,1.7193,-0.94684
0.61215,-5.7271,7.6688,0.86299,0.95051,2.0201,-1.1277
0.66425,-6.4528,7.7276,1.3337,0.54184,2.314,-1.3042
0.72116,-7.1196,7.355,1.4122,0.082772,2.5928,-1.4713
0.7518,-8.0415,6.6489,1.1964,-0.54795,0.90652,0.17807
0.7363,-9.0025,6.0997,1.0199,-0.47098,0.80756,0.11729
0.69684,-10.003,6.0213,1.2749,-0.4047,0.72296,0.60812
0.57703,-10.866,6.0605,1.5298,-0.36682,0.63927,0.58002
0.46811,-12.141,6.2763,2.4124,-0.36805,0.55619,0.53329
0.34912,-12.435,6.3547,3.1577,-0.38118,0.46365,0.44104
0.23691,-12.67,6.5312,3.9423,-0.36224,0.34636,0.3375
0.15216,-12.513,7.1,4.6091,-0.28253,0.208,0.25198
0.081329,-11.984,7.4334,4.8641,0.35247,0.043066,0.059559
0.012299,-10.807,7.355,4.8249,0.62736,-0.16524,0.1127
-0.059235,-10.219,6.6489,4.158,0.85491,-0.41417,0.072082
-0.1647,-9.787,5.7075,3.6088,1.0272,-0.68967,0.036346
-0.29807,-9.9047,4.8641,3.6873,1.1454,-0.97891,0.018021
-0.45105,-9.3752,4.8445,4.4718,1.2236,-1.2679,0.018021
-0.64352,-8.6691,5.3348,4.8249,-0.13531,-1.547,0.023824
-0.7941,-8.1787,5.5506,5.276,0.080023,-1.8057,0.034208
-0.96295,-7.3942,5.3937,5.1975,1.357,-2.0452,0.88087
-0.99997,-6.5508,5.6879,5.4917,1.4154,-2.2739,1.0354
-0.99997,-6.0409,5.6879,5.7075,1.5058,-2.4975,0.19456
-0.99997,-6.0017,5.0995,6.0213,1.6255,-2.7129,0.29688
-0.99997,-7.1196,4.5503,6.1978,1.7669,-2.9218,0.40867
-0.99997,-8.2964,4.6287,6.0605,1.9086,-3.1295,0.5226
-0.99997,-9.0613,5.276,5.7663,1.2804,-3.3326,0.63133
-0.99997,-8.6691,6.1586,5.4917,1.3204,-3.5274,0.74067
-0.99997,-7.9042,6.6685,5.3544,-2.6502,2.4206,0.71593
-0.99997,-7.8061,6.9039,4.7856,-2.368,2.1518,0.66432
-0.99997,-7.9042,6.7274,4.3345,-2.0259,1.8897,-0.21136
-0.98236,-8.4926,6.1586,3.7854,-1.6664,1.6414,0.034819
-0.85263,-9.0221,6.0997,3.2362,-1.325,1.43,0.24954
-0.71915,-9.6301,6.2566,2.9812,-1.0302,1.2672,0.44807
-0.55746,-10.572,6.6489,2.8439,-0.80115,1.1396,0.60751
-0.39542,-11.493,6.7274,2.4713,-0.64477,1.0198,0.69944
-0.2236,-11.513,7.1,1.9613,-0.1854,1.5757,-2.1704
-0.010101,-11.886,8.1591,1.0591,-0.46334,1.8439,-2.273
0.1781,-11.16,8.6102,0.72569,-0.7254,2.1066,-1.2517
0.36063,-10.63,8.8652,0.78453,-0.92485,2.3634,-1.4087
0.52847,-10.062,9.2379,0.5884,-1.0763,2.6139,-1.5626
0.67169,-9.2967,9.5517,-0.078453,-1.2,2.8842,-1.7572
0.81476,-8.3553,8.9437,-0.86299,-1.2947,3.1493,-1.9471
0.92371,-7.4334,7.9434,-1.6083,-1.3576,3.3906,-2.0666
1,-7.0412,7.1,-1.9613,-1.3995,3.6524,-2.6521
1,-6.5508,6.5901,-2.0986,-1.4251,3.9218,-2.6127
1,-5.8448,6.0409,-2.3536,-1.4218,4.1731,-2.354
1,-5.3937,5.7859,-2.589,-1.365,4.4114,-2.4407
1,-4.7464,5.6879,-2.6674,-1.2471,4.6465,-2.5394
1,-4.4718,5.7271,-2.4909,-1.0818,4.8527,-2.6224
1,-3.6873,5.5898,-2.7066,-0.90408,5.0036,-2.6603
1,-3.3146,5.6879,-2.334,-0.74984,5.0949,-2.6631
1,-3.0989,6.0605,-1.9613,-3.043,5.1249,-1.6017
1,-3.2558,6.3743,-1.6083,-0.68783,5.0766,-1.3656
1,-3.2754,6.3743,-1.2356,-0.78282,4.9425,-2.5369
1,-3.5304,6.5116,-1.0003,-0.99052,4.7379,-2.438
1,-4.0011,6.4135,-1.0003,-1.2758,4.4828,-2.346
1,-4.4522,6.3155,-0.82376,-1.6304,4.1915,-2.2526
1,-5.0798,6.3547,-0.78453,-2.058,3.8671,-2.1038
1,-6.4135,6.9627,-0.56879,-2.5513,3.5375,-1.8668
1,-7.4923,7.1392,-0.37265,1.0363,-0.58613,-0.85491
1,-8.8456,6.9627,-0.098066,1.066,-0.31765,-1.0571
0.8848,-10.63,7.0019,0.17652,1.0348,-0.040928,0.3653
0.67416,-12.278,7.8453,1.3533,0.94165,0.23793,0.16646
0.48712,-13.102,9.0417,2.589,0.79321,0.51282,-0.022297
0.34201,-12.827,9.7674,3.2362,0.5959,0.78527,-0.21441
0.22174,-11.807,9.8655,3.7069,0.35613,1.0531,-0.42822
0.11642,-10.885,9.8066,3.9227,0.09163,1.3146,-0.64874
0.047028,-9.9439,9.2967,3.6088,1.5965,-3.3414,1.4685
-0.020203,-10.258,8.1984,3.0989,1.6609,-3.5342,1.6078
-0.10052,-9.7478,7.2177,2.7262,1.6725,-3.7003,0.65088
-0.21405,-9.6301,6.492,2.687,1.6347,-3.843,0.832
-0.34726,-9.2379,5.3937,2.9028,1.5592,-3.9639,1.0079
-0.48001,-8.826,4.4522,3.0793,1.4737,-4.0659,1.1432
-0.6431,-8.5122,3.7658,3.0401,1.3757,-4.1426,1.2483
-0.79681,-8.6102,3.5108,3.295,1.4902,-4.2006,1.3485
-0.95059,-8.1395,3.2754,3.6873,1.2663,-4.248,2.1896
-0.99997,-7.2765,3.4519,4.5111,1.1842,-4.2834,2.2208
-0.99997,-6.7666,3.8442,5.1191,1.0583,-4.3029,1.7144
-0.99997,-6.8843,3.5108,5.2956,0.92852,-4.2977,1.7706
-0.99997,-6.6685,2.2751,5.3544,0.82406,-4.2867,1.8488
-0.99997,-6.2959,1.6083,5.4329,0.76969,-4.2596,1.978
-0.99997,-6.6097,1.9417,5.6682,1.3891,-4.1826,2.0873
-0.99997,-7.7669,2.5105,5.9821,1.3182,-4.0726,2.1493
-0.99997,-9.0025,3.1774,6.492,0.64935,0.036652,-0.59101
-0.99997,-9.2771,4.2169,6.747,0.98594,-0.087965,-0.49847
-0.99997,-9.5517,5.5702,6.6685,1.3088,-0.21655,-0.42791
-0.99997,-9.787,6.3351,6.5116,1.5916,-0.36194,-0.46212
-0.99997,-10.709,6.1782,6.1978,1.835,-0.53267,-0.49236
-0.99997,-11.023,5.6879,5.8055,2.0543,-0.73731,-0.52718
-0.97415,-11.258,5.5506,4.7268,2.2529,-0.97494,-0.56719
-0.8678,-11.533,6.1782,3.9423,2.3949,-1.23,-0.60201
-0.74033,-12.199,6.6685,3.6873,2.4444,-1.4908,0.35522
-0.62589,-12.454,7.1,3.9227,2.3812,-1.7477,0.49633
-0.5,-12.611,7.5119,3.9227,2.2083,-1.9878,-0.3598
-0.37122,-12.69,7.6884,3.3735,1.9566,-2.2095,-0.23549
-0.23627,-12.278,8.1591,2.2948,1.6942,-2.4309,-0.1292
-0.1069,-11.317,7.9826,1.6867,1.4768,-2.6588,-0.025351
0.034821,-10.317,7.4334,1.3729,1.3421,-2.8931,0.089797
0.1767,-9.3359,6.1782,0.78453,1.3127,-3.1246,0.21869
0.34537,-8.218,4.7464,-0.15691,-3.3387,3.7113,0.2755
0.55148,-6.8647,4.2169,-1.3337,-2.4865,3.4242,0.27581
0.78784,-5.0995,5.5506,-1.1964,-1.6506,3.1985,0.22113
0.97549,-4.2757,7.8453,0.11768,-0.91813,3.0128,0.27611
1,-4.2169,9.1006,1.0591,-0.35949,2.8549,0.3149
1,-4.158,8.5122,0.78453,-0.037568,2.74,0.3259
1,-3.8246,6.8254,0.019613,0.043066,2.6594,0.30727
1,-3.0597,5.3348,-1.0003,-0.078802,2.6023,0.28405
1,-2.4124,4.2169,-1.726,-0.93004,2.2232,-0.82925
1,-2.2359,3.8442,-1.6279,-0.86132,2.5119,-0.97708
1,-2.0986,3.8442,-1.4906,-0.84116,2.8014,0.09896
1,-2.2359,3.8442,-1.0003,-0.85857,3.0937,-0.037568
1,-2.687,3.8442,-0.47072,-0.90439,3.39,-0.17868
1,-3.4127,3.8442,0.078453,-0.9728,3.6893,-0.3317
1,-4.4522,3.9227,0.56879,-1.069,3.989,-0.50335
1,-5.7859,4.2169,1.3337,-1.204,4.2907,-0.67684
1,-7.7473,5.021,2.3144,-1.4114,4.5934,-1.5052
0.96417,-9.6105,6.0605,3.2362,-1.7083,4.8921,-1.2908
0.78714,-11.258,6.0997,3.5304,-2.0614,5.1737,-1.1387
0.53482,-12.945,6.492,4.413,-2.4001,5.4294,-1.2981
0.27393,-14.396,7.61,5.276,-2.6799,5.6664,-1.4667
0.0020447,-14.788,7.9826,5.5702,-2.9147,5.8878,-1.6399
-0.25623,-14.043,7.0412,4.9622,-3.1554,6.0448,-1.7431
-0.50409,-13.161,5.1583,4.0207,-3.4456,6.1035,-1.6921
-0.75189,-13.2,3.3735,3.7658,-3.8094,6.0537,-0.0039706
-0.96344,-13.631,2.4909,4.668,-4.2364,5.9095,0.13195
-0.99997,-12.454,3.3735,5.2564,-4.6618,5.6832,-1.1371
-0.99997,-11.317,5.7075,5.6682,-4.9752,5.3851,-0.98807
-0.99997,-9.2379,7.7865,5.7467,-5.0968,5.0393,-0.77274
-0.99997,-7.8845,9.179,5.7075,-4.9975,4.6945,-0.51618
-0.99997,-6.3351,9.1986,5.3348,-4.6603,4.3677,-0.30727
-0.99997,-5.8644,8.7868,5.2564,-4.0931,4.04,-0.15547
-0.99997,-5.6094,7.8845,5.0995,0.99754,-0.57299,-0.1573
-0.99997,-6.0017,6.5116,5.0406,0.97983,-0.84483,-0.095906
-0.99997,-5.9232,5.0995,5.1191,0.93921,-1.1127,-0.50793
-0.99997,-5.7859,4.158,5.5702,0.87262,-1.3809,-0.42364
-0.99997,-5.531,3.8442,6.1978,0.79474,-1.6475,-0.34514
-0.99997,-5.374,3.7461,6.5312,0.76969,-1.9108,-0.27733
-0.99997,-5.2368,4.2169,6.8254,0.84238,-2.1808,-0.22755
-0.99997,-5.531,5.021,7.1589,0.99785,-2.456,-0.19578
-0.99997,-6.0409,5.3348,7.2765,1.1823,-2.7229,0.3656
-0.99997,-6.237,5.5898,7.3746,1.3457,-2.9731,0.46945
-0.99997,-6.5116,5.9036,7.4531,1.4679,-3.2107,-0.024435
-0.99997,-6.5508,6.4135,7.4334,1.5589,-3.4404,0.049786
-0.99997,-7.1785,6.7274,7.3746,1.6338,-3.6624,0.11454
-0.99997,-7.6492,6.2763,6.9235,1.7132,-3.8848,0.1689
-0.99997,-8.4926,5.7467,6.6097,1.8118,-4.1191,0.22663
-0.99997,-9.4732,5.8448,6.2959,1.9163,-4.3659,0.29077
-0.98776,-9.9243,6.2763,6.0605,1.9991,-4.6206,1.5162
-0.87332,-10.846,6.4724,5.884,1.8876,-4.886,1.5559
-0.74695,-11.219,6.3547,5.884,1.7349,-5.1413,0.59956
-0.60156,-11.356,6.5116,5.7271,1.5889,-5.3671,0.75808
-0.48941,-11.199,6.845,5.4917,1.4755,-5.5564,0.9389
-0.37424,-11.258,7.2177,5.2564,1.4334,-5.6914,1.1164
-0.26614,-11.886,6.9823,4.7072,1.9951,-5.7382,1.2727
-0.14383,-14.494,6.5312,4.158,2.029,-5.6765,1.4102
-0.061523,-15.887,5.8644,3.9227,2.2266,-5.557,1.401
0.018463,-14.239,6.5116,4.5503,2.6728,-5.4227,1.3509
0.080597,-11.807,8.0611,4.8053,2.9392,-5.2357,1.5287
0.22406,-9.6301,8.2572,3.3931,2.9725,-4.9795,1.4829
0.44012,-7.2569,7.5315,1.5102,2.8491,-4.7095,1.4578
0.72348,-5.374,7.0412,0.33343,2.6395,-4.4783,1.4673
0.97961,-3.6285,5.884,-0.8826,1.518,-4.2791,1.4783
1,-2.3144,4.4326,-1.3141,1.7917,-4.0732,1.4511
1,-1.5298,3.2166,-2.0986,-1.4334,5.3628,-2.3457
1,-2.0986,2.8635,-2.2751,-1.5788,5.7162,-2.1759
1,-2.7066,3.5108,-1.8633,-1.759,6.0393,-1.9633
1,-3.0204,4.3345,-1.6475,-1.9755,6.3078,-1.9578
1,-3.3343,5.4721,-1.5495,-2.2352,6.5088,-1.9713
1,-3.7854,6.5116,-1.0983,-2.4871,6.6227,-2.0766
1,-3.9815,6.9823,-0.78453,-2.6686,6.6331,-2.2416
1,-4.2757,6.8058,-0.47072,-2.7718,6.517,-2.3604
1,-4.413,6.5705,-0.47072,-2.8149,6.2718,-0.37049
1,-4.9229,6.0997,-0.52956,-2.8069,5.9333,-0.075747
1,-5.3544,5.9036,-0.70608,-2.737,5.5378,-1.9453
1,-5.7075,6.4724,-1.5495,-2.5244,5.0815,-1.726
1,-6.6489,7.2177,-1.9613,-2.1108,4.5549,-1.5229
1,-7.963,6.9627,-0.82376,-1.5455,3.9981,-1.295
1,-9.7674,7.2961,1.1768,-0.94623,3.4685,-1.014
0.99527,-12.611,8.6887,2.7459,-0.40897,2.9942,-0.69119
0.87244,-14.494,9.4144,3.7854,-0.0094684,2.5739,0.70799
0.74014,-15.612,8.6691,4.0992,0.19273,2.2055,0.66676
0.56183,-15.887,7.2961,4.0992,0.1912,1.9157,0.18082
0.39609,-15.749,5.629,4.158,0.0281,1.7123,0.41356
0.18991,-15.122,4.2365,4.6091,-0.23305,1.5702,0.58551
-0.049194,-13.71,4.0011,5.4133,-0.5061,1.4713,0.65393
-0.30731,-11.65,4.8053,5.7467,-0.71441,1.3967,0.67195
-0.55469,-10.101,6.1586,5.4917,-0.83261,1.336,0.69333
-0.76022,-8.8456,6.7862,5.0995,-0.86071,1.2908,-0.55283
-0.89117,-8.4337,6.3547,4.7856,-0.81276,1.2538,-0.76786
-0.97903,-8.5122,5.4721,4.413,-0.72235,1.2208,0.55436
-0.99997,-9.1398,4.766,4.2365,-0.5959,1.1909,0.40684
-0.99997,-8.6887,4.3149,4.413,-0.44532,1.1613,0.26084
-0.99997,-7.2765,4.766,4.9229,-0.35675,1.1344,0.1069
-0.99997,-6.0017,6.1782,4.9426,-0.40592,1.109,-0.096211
-0.99997,-5.374,7.0019,4.5503,-0.57452,1.0705,-0.32651
-0.99997,-4.8445,7.2765,4.3149,3.0647,-4.9138,2.3188
-0.99997,-4.5895,7.2765,4.413,2.7523,-4.9062,2.2675
-0.99997,-4.4522,6.9431,5.021,2.3534,-4.8622,2.2373
-0.99997,-4.9229,6.3351,5.6682,1.9261,-4.802,2.3665
-0.99997,-5.7859,5.7075,5.884,1.554,-4.747,2.4404
-0.99997,-6.5508,5.4329,5.9036,1.2822,-4.7037,2.4713
-0.99997,-7.1196,5.7075,5.8055,1.1115,-4.6569,2.448
-0.99997,-8.0611,6.6293,6.1978,1.0241,-4.5824,2.3851
-0.99997,-8.6887,7.5903,6.5312,0.82894,-4.4862,1.9453
-0.99997,-9.6105,8.1003,6.1782,0.63438,-4.3805,1.9765
-0.99997,-10.552,7.9826,5.276,0.38943,-4.2602,2.2129
-0.99997,-11.591,7.6688,4.3149,0.14233,-4.1328,2.1725
-0.91571,-12.16,7.2961,3.3931,-0.11118,-4.0076,2.1499
-0.7511,-12.592,6.8058,2.7655,-0.45571,-3.8784,2.0959
-0.5834,-12.749,6.9627,1.9809,0.9841,-3.7403,2.0244
-0.39609,-13.239,7.1392,1.8044,0.9389,-3.6017,1.9691
-0.19128,-13.141,7.9826,1.1768,-2.4086,-3.4774,0.11851
0.018951,-13.161,8.6102,1.1768,-3.1099,-3.3692,-0.013134
0.23663,-12.945,8.5318,1.6475,-3.4899,-3.2755,1.9933
0.45691,-13.062,7.7669,1.726,-3.4083,-3.1985,1.8864
0.65289,-12.513,6.845,1.0983,-2.8769,-3.0916,1.6448
0.81985,-11.886,6.4135,0.72569,-2.0159,-2.9435,1.2556
0.94473,-10.807,6.845,0.78453,-0.96547,-2.7694,0.78893
1,-9.9243,7.2961,1.0983,-1.6325,-2.5681,0.37935
1,-9.0613,7.2177,1.0983,1.8366,-3.8775,1.7779
1,-8.5122,7.8453,1.726,2.1246,-4.1053,2.0333
1,-8.5318,9.1594,2.1378,2.4477,-4.3115,0.60353
1,-7.963,8.8848,1.4122,2.7556,-4.4917,0.73579
1,-6.7274,5.5506,-1.1376,2.9868,-4.6539,0.92332
0.91287,-5.0602,1.9417,-2.8243,3.1505,-4.7822,1.1567
0.74158,-3.0989,0.23536,-2.9812,3.2516,-4.86,1.3561
0.57697,-1.9221,1.0199,-2.432,3.2394,-4.8961,1.5394
0.44678,-1.4318,3.0401,-1.9613,-2.3637,2.4932,1.3635
0.38388,-1.471,4.9229,-1.5102,-2.5873,2.2898,1.4963
0.38824,-1.8437,5.7271,-0.82376,-2.6573,2.1118,0.29138
0.45151,-2.4124,5.6486,-0.78453,-2.6249,1.9548,0.44838
0.54642,-2.7066,5.3937,-0.47072,-2.5195,1.8152,0.60995
0.68799,-3.4716,6.0997,0.11768,-2.3851,1.6942,0.78343
0.83612,-4.5699,6.9627,0.8826,-2.3045,1.6002,0.956
0.96719,-5.6094,8.0807,2.2163,-2.3359,1.5339,1.1594
1,-6.3351,9.4732,3.0793,-2.474,1.4954,1.5614
1,-6.7666,10.905,3.6873,-2.635,1.4719,1.5033
1,-7.2373,10.493,3.0597,-2.7309,1.4407,1.5385
0.99612,-7.8649,8.4729,1.9809,-2.7303,1.3919,1.5412
0.78296,-9.7478,6.7274,2.432,-2.645,1.3445,1.5522
0.43015,-11.533,5.2564,3.1381,-2.5033,1.3115,1.5809
-0.001709,-12.906,5.1191,4.6091,-2.3289,1.2886,1.6057
-0.41821,-13.062,6.8058,6.237,-2.1438,1.2825,1.5959
-0.79282,-13.376,8.8652,7.3746,-4.506,5.1893,-0.85277
-0.99384,-12.415,10.022,8.0022,-4.2788,5.3961,-0.66401
-0.99997,-11.474,10.336,7.6492,-3.8133,5.4834,-2.8466
-0.99997,-11.023,9.7086,7.0019,-3.1606,5.4281,-2.606
-0.99997,-10.63,8.3749,6.492,-2.3488,5.2815,-2.2138
-0.99997,-9.689,6.9627,5.7467,-1.4462,5.1007,-1.8017
-0.99997,-9.3752,6.0997,5.5702,-0.55986,4.9049,-1.4267
-0.99997,-8.5318,6.5116,5.276,0.15302,4.6777,-1.1014
-0.99997,-8.218,7.1589,5.0798,0.58643,4.4227,-0.047953
-0.99997,-7.7669,6.3743,4.668,0.72632,4.1612,0.11179
-0.99997,-7.4334,5.2171,4.1972,0.59346,3.905,-0.52321
-0.99997,-6.7862,4.5307,4.0207,0.22633,3.6563,-0.42364
-0.99997,-6.1782,4.1384,3.8638,-0.30085,3.404,-0.34758
-0.99997,-6.3155,4.0011,3.9423,-0.89125,3.1533,-0.27061
-0.99997,-7.0804,4.766,3.6088,-1.4569,2.9273,-0.20708
-0.93292,-7.4923,5.8448,3.1577,-1.9655,2.7125,-0.14569
-0.81537,-6.6097,5.629,2.7655,2.3072,-4.0424,0.95417
-0.65414,-5.531,4.9229,2.589,2.1393,-3.9984,1.0901
-0.52066,-4.9426,4.4718,2.4124,2.1093,-3.9444,0.37568
-0.37875,-4.3149,4.4718,2.2948,2.23,-3.901,0.48564
-0.28802,-4.2169,4.8445,2.5105,2.4572,-3.882,0.60201
-0.21863,-4.2169,5.7075,3.3931,2.7416,-3.8927,0.71624
-0.16727,-4.2169,6.5116,4.6091,2.7376,-3.9349,0.79871
-0.1572,-3.903,6.3547,5.5702,2.5281,-3.9853,0.86743
-0.16785,-4.1188,5.5898,6.2959,2.8552,-4.0012,2.1829
-0.25305,-5.2564,5.374,7.0019,3.062,-3.9914,2.2516
-0.3703,-6.5508,4.9033,7.61,3.1979,-3.9722,1.3033
-0.55307,-7.5903,4.1188,7.8649,3.2248,-3.9196,1.5293
-0.74994,-8.1395,3.197,7.6296,3.1887,-3.8075,1.6952
-0.94592,-8.6887,2.8047,7.0608,3.1273,-3.6621,1.8179
-0.99997,-8.9241,3.1774,6.9823,3.0534,-3.5094,1.9453
-0.99997,-9.6105,3.8442,7.1785,2.9706,-3.3472,2.0779
-0.99997,-9.5321,4.9622,7.1589,0.97861,-0.84666,-0.83383
-0.99997,-9.6301,6.0409,6.8058,1.4279,-1.2104,-0.75747
-0.99997,-9.9047,6.5116,6.1978,1.8103,-1.5684,-1.3332
-0.99997,-10.179,6.4332,5.6682,2.1252,-1.912,-1.303
-0.99997,-10.748,6.4724,5.1779,2.3757,-2.2413,-1.2486
-0.99997,-11.023,6.7274,4.413,2.5418,-2.5326,-1.1481
-0.88217,-10.866,8.1591,3.6873,2.613,-2.7761,-1.0296
-0.67245,-10.807,8.8652,3.3931,2.6282,-2.9911,-0.92271
-0.41629,-10.866,8.6887,3.6873,2.7061,-3.1893,0.049175
-0.1489,-11.18,7.9826,3.4519,2.7999,-3.3677,0.23915
0.076447,-11.493,7.1196,2.4713,2.9282,-3.529,-0.68203
0.30688,-11.219,6.9627,1.0591,3.0256,-3.6881,-0.60262
0.52869,-10.434,7.9042,0.019613,3.0189,-3.8433,-0.52504
0.78143,-9.5517,8.0415,-0.15691,2.9077,-3.9651,-0.44593
0.98499,-8.3945,7.7669,0.078453,2.6371,-4.0366,-0.34208
1,-7.5903,7.2961,0.11768,2.6597,-4.0598,-0.16707
1,-6.9627,7.0412,0.15691,-2.605,2.7413,0.41753
1,-6.6097,6.8058,0.019613,-2.9951,2.4893,0.59162
1,-5.6094,6.6881,0,-3.2248,2.2596,-0.89308
1,-5.374,6.3547,-0.23536,-3.258,2.0589,-0.62583
1,-4.9426,6.0017,-0.39227,-3.0895,1.8793,-0.39309
1,-4.5699,6.0017,-0.56879,-2.7358,1.7174,-0.16921
1,-4.6091,6.1978,-0.86299,-2.2535,1.5766,0.04948
1,-4.4522,5.7075,-1.3337,-1.741,1.4624,0.23885
1,-4.2953,4.8445,-1.7848,-0.74037,2.4508,-1.9813
1,-3.9815,4.6287,-2.079,-0.67806,2.6573,-2.1276
1,-3.8246,5.0798,-2.1967,-0.60018,2.8726,-1.2452
1,-3.903,5.7075,-1.9221,-0.52809,3.0968,-1.31
1,-4.2561,6.0213,-1.7848,-0.47006,3.3197,-1.408
1,-4.766,6.1978,-1.6083,-0.41233,3.5455,-1.5321
1,-5.4721,6.3155,-1.1768,-0.35125,3.7758,-1.6793
1,-6.237,6.5705,-0.86299,-0.28924,4.0027,-1.8317
1,-7.1196,6.9823,-0.47072,-0.22694,4.2208,-2.7257
1,-8.1984,7.2569,-0.23536,-0.14997,4.4205,-2.6857
0.99969,-9.434,7.5315,-0.21575,-0.027489,4.6169,-2.2767
0.86905,-10.944,7.61,-0.05884,0.14416,4.8081,-2.4166
0.70187,-12.749,7.7669,0.37265,0.35339,4.9526,-2.5299
0.55969,-13.925,8.3749,1.0199,0.59101,5.0442,-2.6111
0.45142,-14.455,9.2379,1.6475,0.81703,5.0864,-2.6701
0.37479,-13.984,10.277,2.6086,0.97128,5.0549,-2.7135
0.36719,-12.572,10.905,3.7069,1.0299,4.9431,-1.4636
0.39291,-10.944,11.278,3.5304,0.95875,4.7644,-1.1771
0.44531,-9.9439,11.062,2.6674,0.74067,4.5177,-2.605
0.48279,-9.3359,9.787,2.432,0.3766,4.2196,-2.4758
0.47226,-8.4141,8.2964,2.5105,-0.13378,3.904,-2.3133
0.3775,-7.4334,7.0412,2.6282,-0.7648,3.5882,-2.1588
0.20792,-6.7077,7.2569,2.7655,-1.4444,3.2849,-1.9868
0.00097656,-6.1978,8.1395,3.3146,-2.0815,3.0033,-1.7492
-0.20886,-5.9232,8.8456,4.3149,1.6237,-1.7776,0.25779
-0.36694,-5.7075,9.0221,4.6484,1.7388,-1.883,0.33414
-0.48788,-5.3937,8.6102,4.6484,1.7865,-1.974,-0.042455
-0.59482,-5.2368,7.7865,4.4914,1.7379,-2.0421,-0.054978
-0.69067,-5.531,7.1392,4.3542,1.5925,-2.1148,-0.031765
-0.78006,-5.1387,6.4135,4.1972,1.3824,-2.2107,0.027794
-0.87207,-5.6094,5.884,4.0796,1.1432,-2.3314,0.11454
-0.95105,-5.8644,5.884,4.158,0.89828,-2.4847,0.19823
-0.99997,-6.3547,5.9428,4.0403,0.67806,-2.6628,0.72724
-0.99997,-6.4528,5.3937,4.3149,0.5284,-2.8558,0.81886
-0.99997,-6.7862,4.7856,4.7856,0.47709,-3.0769,0.43891
-0.99997,-7.4334,4.5895,4.9426,0.52993,-3.3112,0.52382
-0.99997,-7.9826,4.9229,4.8641,0.68814,-3.5348,0.56474
-0.99997,-8.7475,5.8644,4.7856,0.93035,-3.7373,0.58643
-0.99472,-9.6105,6.492,5.4525,1.2126,-3.9242,0.61575
-0.92871,-10.807,6.5116,6.2959,1.46,-4.1093,0.66065
-0.8548,-11.435,6.0997,6.8254,1.5143,-4.2971,0.89736
-0.77234,-11.886,4.9229,5.9232,1.394,-4.4944,0.87445
-0.69174,-12.729,3.903,5.4917,1.2773,-4.7006,0.91569
-0.62964,-12.827,3.0401,5.5702,1.1774,-4.9016,0.96578
-0.59784,-13.494,3.5108,6.6685,1.0742,-5.0916,0.94776
-0.57373,-13.847,4.4522,7.2373,0.95539,-5.2605,0.91049
-0.56348,-14.632,4.9622,7.2765,1.5947,-5.4095,0.88484
-0.53336,-14.337,4.9229,6.5508,1.5977,-5.5405,0.88881
-0.51431,-14.337,5.4721,6.6489,0.90622,-5.6584,0.91172
-0.49411,-14.259,5.5702,6.5116,1.0815,-5.7647,0.95539
-0.49326,-13.945,5.1191,6.1978,1.2999,-5.8536,0.8152
-0.49338,-13.141,5.0602,5.4917,1.4991,-5.9257,0.76511
-0.49576,-12.749,5.7271,5.0995,1.6548,-5.9779,0.76053
-0.49057,-11.944,6.1782,4.5111,1.759,-6.0036,0.77946
-0.46579,-11.023,6.492,4.158,0.8546,-6.0121,0.81703
-0.40979,-9.4732,6.2763,3.197,0.82772,-6.0137,0.86712
-0.33124,-8.218,6.0017,1.9417,-0.5006,1.6087,-2.4911
-0.17599,-6.9235,5.2368,0.52956,-0.70769,1.9227,-2.4438
0.022156,-5.4133,5.1191,0.05884,-0.95478,2.248,-2.2229
0.21408,-4.668,5.6879,0.078453,-1.2401,2.5858,-2.2999
0.42603,-3.9815,5.9624,-0.078453,-1.555,2.9325,-2.3741
0.66156,-3.4912,6.0213,-0.2942,-1.8891,3.2904,-2.445
0.88443,-2.9616,6.0997,-0.2942,-2.2263,3.6545,-2.4948
1,-2.5497,6.2763,-0.41188,-2.5394,4.014,-2.5131
1,-2.4124,6.1782,-0.86299,-2.7959,4.372,-1.4936
1,-2.1182,5.6879,-1.6475,-2.9813,4.7253,-1.4025
1,-2.0202,5.4721,-2.2359,-3.109,5.0723,-2.3943
1,-2.0594,5.6486,-2.4909,-3.1945,5.3985,-2.3359
1,-2.0594,6.0605,-2.432,-3.2608,5.6939,-2.2382
1,-2.2555,6.5116,-2.0398,-3.3335,5.9272,-2.0922
1,-2.432,6.9823,-1.4906,-3.4114,6.0747,-1.9044
1,-2.5693,7.5707,-0.86299,-3.4828,6.1481,-1.6814
1,-3.0204,8.0807,-0.2942,-3.5409,6.156,-0.66737
1,-3.6677,8.5122,0.098066,-3.5687,6.0952,-0.47678
1,-4.7856,8.826,0.78453,-3.5577,5.9651,-1.3689
0.91223,-5.8448,8.826,0.8826,-3.5079,5.7797,-1.3118
0.70306,-6.6489,8.218,0.72569,-3.4395,5.5543,-1.1939
0.4884,-8.2964,7.5707,1.1768,-3.3894,5.3026,-1.0427
0.26096,-10.689,7.4334,2.1378,-3.3763,5.0323,-0.91447
0.050415,-12.847,7.7473,3.0597,-3.3543,4.7385,-0.80359
-0.16324,-14.396,7.4138,3.3931,-2.9535,4.4529,-0.29108
-0.35471,-15.455,7.2177,3.9227,-2.8647,4.1951,-0.024129
-0.5311,-15.651,7.61,4.6484,-2.7284,3.9563,0.22816
-0.68918,-14.651,8.1984,4.9622,-2.5635,3.7348,0.48075
-0.8381,-13.376,8.3749,4.766,-3.2868,3.5363,0.71166
-0.97919,-12.278,8.3553,4.9426,-3.1994,3.3766,0.91355
-0.99997,-11.572,8.218,5.4917,-3.1059,3.2477,1.1035
-0.99997,-11.356,7.9238,5.7271,-3.0226,3.1169,1.2471
-0.99997,-11.886,7.7865,6.1978,0.43249,-0.38698,-1.4245
-0.99997,-10.866,8.6102,7.1196,0.49847,-0.51526,-1.4517
-0.99997,-9.5909,9.2379,7.4531,0.52229,-0.64935,-1.0776
-0.99997,-7.8845,8.7083,6.845,0.53176,-0.78496,-1.1637
-0.99997,-6.9627,7.61,6.0409,0.53726,-0.92057,-1.2239
-0.99997,-6.1782,6.4135,5.3937,0.5339,-1.0534,-1.274
-0.99997,-5.8448,5.3348,5.0406,0.15302,-1.1793,-1.332
-0.99997,-5.2564,4.3345,5.1975,0.31062,-1.3054,-1.3897
-0.99997,-4.7464,3.8246,5.3544,0.48655,-1.4361,-1.7184
-0.99997,-4.4522,3.8442,5.5506,0.52504,-1.5718,-1.7452
-0.99997,-4.1972,3.903,5.7271,0.60842,-1.715,-1.4896
-0.99997,-3.8834,4.2169,5.9036,0.71593,-1.8647,-1.5287
-0.99997,-3.197,4.4522,5.9821,0.83566,-2.0201,-1.5638
-0.99997,-2.687,4.3345,6.4332,0.96731,-2.1887,-1.6054
-0.99997,-2.6478,4.2169,6.6097,0.5174,-2.3665,-1.6496
-0.99997,-2.2163,3.903,6.5312,0.49358,-2.5519,-1.6875
-0.99997,-2.1182,3.7069,6.3547,1.4392,-2.7345,-2.0333
-0.99997,-2.2555,3.903,6.4332,1.6524,-2.9144,-2.0436
-0.99997,-2.8832,4.2169,6.4332,1.8561,-3.091,-1.777
-0.99997,-3.4716,4.9229,6.6881,2.029,-3.2639,-1.8323
-0.99997,-3.903,5.5506,7.0019,2.1808,-3.4389,-1.883
-0.99997,-4.5111,5.6879,7.0216,2.3518,-3.6331,-1.9169
-0.99997,-5.3937,6.0997,7.0608,1.0986,-3.8313,-1.9548
-0.99997,-6.0997,6.4135,7.1785,1.248,-4.0122,-2.0012
-0.99997,-6.9823,6.4135,7.4334,-0.74587,0.1686,-0.80543
-0.99997,-7.4923,6.3547,7.2765,-0.73731,0.146,-0.95387
-0.99997,-8.218,6.4724,7.0608,-0.70311,0.1179,0.34422
-0.99997,-8.5122,6.3547,7.0216,-0.6295,0.068722,0.11881
-0.99997,-8.7475,6.1782,7.3158,-0.51282,0.00030543,-0.093157
-0.99756,-9.4732,6.4135,7.5511,-0.36163,-0.080023,-0.29444
-0.92041,-10.101,6.6489,7.4531,-0.1967,-0.16921,-0.4777
-0.81973,-10.395,6.845,6.8254,-0.022602,-0.27,-0.64477
-0.71872,-11.042,6.7274,6.5312,-0.37538,2.1426,-0.90194
-0.60611,-12.141,6.6685,6.2959,-0.75931,2.339,-0.7535
-0.46756,-11.278,8.5318,5.0995,-1.1973,2.5589,-1.3635
-0.30093,-10.944,10.728,4.3149,-1.6411,2.7975,-1.3564
-0.074982,-9.4928,10.552,3.9423,-2.04,3.0278,-1.3302
0.16342,-8.826,9.3359,3.9227,-2.3527,3.2263,-1.2694
0.38705,-8.6495,8.6691,3.0989,-2.5656,3.3805,-1.1759
0.62262,-7.9238,7.9042,1.7848,-2.6738,3.4929,-1.0473
0.84167,-7.0216,7.1392,0.86299,-2.6789,3.5653,0.45082
0.99918,-5.9821,6.5901,0.52956,-2.5708,3.5928,0.53726
1,-4.6091,6.1586,0.21575,-2.3387,3.5885,-0.57727
1,-3.2166,6.0605,0.098066,-2.0061,3.5937,-0.36896
1,-2.1575,5.7467,-0.098066,-1.6408,3.6359,-0.17562
1,-1.7652,5.2564,-0.098066,-1.3234,3.7058,-0.0094684
1,-1.4906,5.1191,0.11768,-1.1298,3.7767,0.15058
1,-1.7848,5.4721,0.15691,-1.0931,3.8298,0.31215
1,-1.7064,5.374,0.078453,0.39981,-1.974,-0.4893
1,-1.5298,5.021,0.019613,0.29719,-1.6784,-0.69669
1,-1.6475,5.2171,0.5884,0.22602,-1.3879,0.20403
1,-2.2359,6.3351,1.5102,0.15821,-1.1026,0.092241
1,-2.8832,7.9434,2.589,0.072388,-0.8262,-0.016188
1,-3.6873,9.4732,3.4716,-0.032681,-0.56169,-0.098655
1,-3.6677,10.14,3.6285,-0.13836,-0.30207,-0.17532
1,-3.8246,9.9439,3.7854,-0.20708,-0.043982,-0.30116
0.96951,-4.6091,9.5517,4.158,-0.20831,0.21441,-1.3457
0.76825,-6.0017,8.7083,4.413,-0.14203,0.47617,-1.3592
0.51636,-6.7077,7.5315,4.3345,-0.036957,0.74251,-0.87568
0.25946,-7.2569,6.3547,3.6677,0.074831,1.004,-1.0091
0.015564,-7.4334,6.0997,4.2365,0.15149,1.2541,-1.0977
-0.19357,-8.4337,7.1392,5.1975,0.16066,1.4942,-1.16
-0.35001,-8.8456,8.3945,6.139,0.086437,1.7211,-1.233
-0.46164,-9.3163,8.3553,5.8055,-0.089492,1.938,-1.3051
-0.50238,-9.434,7.355,5.2368,1.4294,-1.5079,-1.8604
-0.50446,-10.003,6.5901,4.9426,1.5986,-1.6976,-1.8934
-0.49896,-9.9439,6.2566,4.8641,1.7535,-1.9035,-1.5907
-0.49826,-10.415,6.6489,5.3544,1.883,-2.1276,-1.6619
-0.49612,-10.63,6.8254,5.8055,1.9945,-2.354,-1.7065
-0.49573,-10.885,6.9627,5.8644,2.1154,-2.5757,-1.7397
-0.51035,-10.728,6.8254,5.9624,1.1115,-2.7874,-1.7727
-0.53723,-10.336,6.3743,6.1782,1.2639,-2.9981,-1.8161
-0.58887,-9.7674,5.6879,6.3547,-1.7904,2.6255,1.0443
-0.65778,-9.2379,5.2171,6.5312,-1.8534,2.499,0.86285
-0.70242,-8.7671,5.3348,6.7077,-1.9138,2.361,1.6435
-0.78043,-7.4334,5.276,6.6489,-1.9594,2.2232,1.5739
-0.82172,-6.6685,4.9622,6.5312,-1.9887,2.1023,1.5036
-0.86191,-5.7663,4.5895,6.7077,-1.9981,1.9804,1.4245
-0.89102,-4.766,4.2757,6.8058,-1.9676,1.843,1.3207
-0.92789,-4.8445,3.6677,6.747,-1.8747,1.6964,1.197
-0.96735,-4.6091,3.0204,6.6097,-1.7144,1.5391,-0.4777
-0.99997,-4.4522,2.589,6.6881,-1.4908,1.3784,-0.64477
-0.99997,-4.0403,2.6086,6.8647,-1.2272,1.2034,0.67867
-0.99997,-4.3149,2.8832,7.0608,-0.95417,0.99693,0.49602
-0.99997,-4.668,3.5304,7.1392,-0.67195,0.79596,0.30207
-0.99997,-4.7464,4.2169,7.1392,-0.38637,0.6295,0.099266
-0.99997,-4.9229,4.6484,6.9627,-0.11698,0.44929,-0.10415
-0.99997,-5.3937,4.9229,7.0019,0.13256,0.2419,-0.29932
-0.99997,-5.9821,5.0602,6.9627,0.5568,0.0054978,-1.4343
-0.99997,-6.7666,5.1583,7.0804,0.62461,-0.21441,-1.5082
-0.99997,-7.355,5.5898,6.9235,0.68722,-0.41692,-0.80237
-0.99997,-8.0218,6.1978,6.8058,0.76297,-0.61972,-0.94348
-0.99625,-8.6102,6.492,6.3547,0.85827,-0.80756,-1.0715
-0.91177,-9.434,6.4724,5.884,0.97464,-0.98105,-1.1723
-0.79184,-9.7674,6.6489,5.1779,0.32376,-1.1533,-1.2617
-0.66846,-10.493,7.1981,4.6484,0.46059,-1.3277,-1.3528
-0.50348,-10.807,8.0611,4.158,-0.89247,2.3512,-0.40836
-0.28009,-10.866,10.042,3.6873,-1.3796,2.361,-0.34514
-0.029785,-9.8655,10.611,3.5304,-1.2776,2.3485,-1.0302
0.23279,-9.2967,9.9439,3.6873,-1.1741,2.3393,-0.91966
0.46808,-9.7674,8.8652,3.3931,-1.0635,2.3466,-0.821
0.67636,-10.003,8.1984,3.197,-0.95997,2.3543,-0.72754
0.88104,-9.689,8.5514,2.3144,-0.88973,2.3476,-0.62339
1,-9.1398,9.3359,2.0398,-0.85979,2.332,-0.5061
1,-8.6495,9.0221,1.6867,0.96089,-2.1826,-0.29627
1,-8.1787,8.1984,1.4906,0.8995,-2.0155,-0.44166
1,-7.8061,7.0412,0.86299,0.84452,-1.8286,0.32162
1,-6.9823,6.6685,0.33343,0.78832,-1.6105,0.2303
1,-6.237,6.5116,-0.25497,0.71227,-1.3708,0.13011
1,-5.3152,6.6489,-0.37265,0.59926,-1.1197,0.034208
1,-4.9033,6.492,-0.70608,0.44196,-0.85368,-0.054672
1,-4.2757,6.1586,-0.84337,0.24343,-0.57574,-0.16218
1,-3.7854,5.9624,-0.78453,0.019242,-0.29352,-1.1658
1,-3.4127,6.1782,-0.23536,-0.19609,-0.012217,-1.222
1,-3.1774,6.492,0.27459,-0.36774,0.26145,-0.59498
1,-2.6478,6.6489,0.70608,-0.48961,0.52687,-0.75228
1,-2.5301,6.5116,0.64724,-0.56169,0.78649,-0.90439
1,-2.3928,6.2763,0.72569,-0.58613,1.0363,-1.0281
1,-2.6282,6.3547,1.3729,-0.58643,1.2663,-1.1099
1,-3.1577,7.4531,2.4517,-0.57971,1.4569,-1.1512
1,-4.2169,8.0611,3.2166,-0.61728,1.6576,-1.1839
0.88718,-4.5699,8.5122,4.0207,-0.77488,1.8439,-1.1212
0.69528,-5.0798,8.1591,4.0207,-0.95326,1.9703,-1.2077
0.46368,-5.3937,7.6688,4.3149,-1.1209,2.0763,-1.1179
0.21573,-5.9232,7.61,4.7856,-1.3011,2.1808,-1.0876
-0.028137,-5.884,7.5903,5.4525,-1.4529,2.2581,-1.117
-0.2894,-5.9428,7.6296,6.2959,-1.5134,2.3045,-1.1591
-0.5285,-6.1978,8.0611,7.0804,-1.4884,2.332,-1.1918
-0.74878,-6.4135,8.2572,7.708,-1.1054,0.84269,0.64385
-0.91953,-6.492,7.9826,7.708,-1.0583,0.78038,0.62705
-0.99902,-6.6293,7.1392,7.5511,-0.978,0.72876,0.69944
-0.99997,-6.3351,6.5312,7.6296,-0.87415,0.67806,0.70066
-0.99997,-6.1782,6.5116,7.7865,-0.77152,0.63713,0.69303
-0.99997,-5.9232,6.7862,7.7865,-0.66981,0.60201,0.68386
-0.99997,-5.7075,6.7274,7.6492,-0.58979,0.57757,0.67531
-0.99997,-5.7075,6.6293,7.7669,-0.54489,0.56505,0.65851
-0.99997,-5.7075,6.5116,7.963,-0.52595,0.55589,0.43127
-0.99997,-5.8448,5.884,7.6492,-0.52534,0.55283,0.39584
-0.99997,-5.7075,6.0213,7.6492,-0.54459,0.55864,0.60018
-0.99997,-5.7859,5.6486,7.3354,-0.57941,0.5678,0.5733
-0.99997,-5.3937,5.4329,7.1589,-0.62125,0.58215,0.54734
-0.99997,-5.531,5.0995,6.8254,-0.67012,0.59926,0.52046
-0.99997,-5.3937,4.8445,6.6881,-0.72265,0.61697,0.49205
-0.99997,-5.2956,4.6484,6.5312,-0.78038,0.63072,0.46456
-0.99997,-4.9818,4.7072,6.3351,-0.97005,0.63927,0.29108
-0.93616,-5.0602,4.9229,6.3351,-1.0134,0.64263,0.30452
-0.82529,-5.1583,4.9622,6.1978,-1.0235,0.63897,0.37202
-0.71509,-5.3937,5.2564,6.1978,-0.99724,0.62553,0.35094
-0.60449,-5.6682,5.4721,6.1782,-0.94867,0.60323,0.32529
-0.49286,-5.7075,5.5898,6.1978,-0.90347,0.57941,0.30849
-0.38782,-5.9232,5.8644,6.1193,-0.8433,0.55772,0.29749
-0.29095,-6.0017,5.884,5.9232,-0.90897,0.53756,0.29016
-0.18665,-6.0213,5.7075,5.7467,-0.92638,0.5229,0.38607
-0.10974,-5.9232,5.629,5.5702,-0.95906,0.51588,0.38912
-0.034973,-6.0997,6.0213,5.6682,-0.9615,0.5171,0.3317
0.010132,-6.0801,6.4135,5.5506,-0.92393,0.53145,0.35613
0.062347,-6.4724,6.6489,5.7075,-0.86163,0.55467,0.36652
0.098236,-6.8647,6.5312,5.5702,-0.80726,0.58338,0.37293
0.11292,-7.9042,7.0412,5.7663,-0.88148,0.61606,0.37843
0.14566,-8.3749,7.7276,5.9036,-0.89034,0.63805,0.38423
0.18509,-7.8845,7.8453,5.1975,-0.45479,2.6496,-0.058338
0.28653,-7.1785,6.9627,2.8439,-0.51191,2.4887,-0.027184
0.34143,-5.9821,6.5116,1.1572,-0.47281,2.3115,-0.30391
0.42444,-6.0017,6.3155,0.05884,-0.33628,2.1249,-0.29902
0.50412,-5.3544,5.7075,-0.54917,-0.12675,1.9288,-0.27214
0.57153,-5.1387,6.0997,-0.2942,0.12095,1.7297,-0.22297
0.65045,-5.2564,7.1,-0.078453,0.3653,1.5266,-0.16005
0.74368,-6.0213,8.3945,0.15691,0.57666,1.3182,-0.1011
0.84494,-6.237,8.6887,0.23536,0.72235,1.1109,-0.039095
0.93265,-6.7274,8.4141,0.33343,0.78527,0.9166,-0.048564
1,-6.5705,7.5119,0.23536,0.75564,0.73121,-0.0085521
1,-6.492,6.6489,0.41188,0.65973,0.55405,-0.0054978
1,-6.492,6.1782,1.0003,0.54184,0.39156,-0.0076358
1,-6.8647,6.845,2.2163,0.42791,0.2416,-0.018021
0.99298,-7.1196,8.0415,3.6873,0.34606,0.1011,-0.024129
0.92563,-7.2569,8.6102,4.4718,0.30727,-0.034208,-0.028711
0.85571,-7.1785,8.1591,4.3345,0.31398,-0.16799,0.0064141
0.74115,-7.2569,7.1392,4.3345,0.36163,-0.30299,0.039706
0.62466,-6.7666,6.3547,4.3345,0.43158,-0.43097,-0.058338
0.47433,-6.5508,6.0997,4.5111,0.50793,-0.56291,-0.066279
0.33829,-6.1782,6.2763,4.766,0.5901,-0.71838,-0.066584
0.21216,-5.7075,6.7862,4.7268,0.67562,-0.89247,-0.054978
0.11038,-5.374,7.0019,4.5111,0.74648,-1.0739,-0.035125
0.058441,-5.6094,6.9627,4.1776,0.80726,-1.2544,-0.013744
0.02002,-5.7271,6.5705,3.8246,-0.54856,3.113,-0.21686
0.022339,-6.0997,6.2566,3.4716,-0.2416,3.134,-0.27367
0.033905,-6.3155,5.9624,3.2362,0.016188,3.1395,-0.040623
0.074036,-6.6685,6.0605,3.197,0.15913,3.1212,-0.06353
0.11865,-6.9431,6.1782,3.2362,0.16005,3.0727,-0.074526
0.18704,-7.1,6.2763,3.1577,0.042761,3.0018,-0.075442
0.26163,-6.5508,6.2763,3.1381,-0.14691,2.9031,-0.092546
0.32837,-5.9428,6.1978,3.8442,-0.33201,2.7834,-0.14936
0.40964,-5.0602,6.2763,5.0995,0.20525,-1.941,-0.51771
0.44791,-5.1975,6.6489,6.3939,0.085827,-1.7055,-0.68692
0.47272,-5.4133,6.2763,6.3547,-0.025351,-1.4746,0.45509
0.4805,-6.1586,5.9428,6.6097,-0.12553,-1.2465,0.29169
0.46649,-7.5903,6.4724,7.1196,-0.2193,-1.0198,0.13347
0.45551,-9.689,6.9431,7.1392,-0.30421,-0.79015,-0.018326
0.43494,-11.023,6.9627,6.9627,0.46151,-0.55222,-0.17654
0.44186,-12.121,6.8058,6.237,0.3317,-0.30849,-0.34636
0.45853,-12.278,6.9823,5.4133,-0.5116,-0.053451,-1.5351
0.5054,-12.474,7.2961,4.5503,-0.60231,0.22633,-1.6292
0.58057,-13.004,8.5318,3.7854,-0.72693,0.53176,-0.84666
0.69019,-12.435,8.6102,3.2362,-0.89767,0.8375,-0.98471
0.83151,-11.376,7.6688,2.7459,-1.1115,1.138,-1.1173
0.96454,-11.003,6.5116,1.9809,-1.3381,1.445,-1.2398
1,-10.16,5.7075,1.4122,-0.37782,1.7572,-1.3387
1,-9.6105,5.2368,0.96105,-0.44196,2.0736,-1.4325
1,-8.9633,4.8053,0.78453,2.3375,-4.7003,1.6683
1,-8.0415,4.5307,0.49033,2.0632,-4.7027,1.5855
1,-7.4138,4.4326,0.31381,1.7623,-4.631,1.4032
1,-6.9627,4.4326,0.23536,1.4691,-4.5002,1.507
1,-6.4528,4.4914,0.21575,1.2333,-4.3628,1.6063
1,-6.237,4.5307,-0.23536,1.0999,-4.2281,1.7028
1,-5.8644,4.6484,-0.47072,1.0449,-4.0778,1.7538
1,-5.4525,4.7464,-0.56879,1.0275,-3.9004,1.7361
1,-4.9033,4.9033,-0.47072,1.0214,-3.7061,0.75686
1,-4.6091,5.3937,-0.2942,1.011,-3.518,0.6127
1,-4.6091,6.1782,0.41188,0.98136,-3.3301,1.492
1,-4.9229,7.1,0.96105,0.92516,-3.1224,1.3763
