-0.0060425,1.3337,-3.4127,8.1003,-0.017715,0.023824,0.01741
0.0068359,1.118,-3.4519,8.2768,-0.009163,0.024435,0.014661
0.027191,1.3729,-3.55,8.218,0.00030543,0.024129,-0.018021
0.026733,1.3533,-3.6873,8.1787,0.0045815,0.021686,-0.013744
0.020905,1.3337,-3.6873,8.1591,-0.0012217,0.018937,-0.0079412
0.025269,1.5298,-3.7658,8.1199,-0.013439,0.012828,-0.00061087
0.025604,1.3533,-3.6873,8.316,-0.027489,0.0024435,0.0082467
0.020294,1.5495,-3.6873,8.2572,-0.040623,-0.0064141,0.015577
0.015686,1.4906,-3.5304,8.1787,-0.044899,-0.011301,0.0039706
0.018982,1.216,-3.5304,8.3357,-0.043371,-0.01405,0.0015272
0.0099792,1.3337,-3.4716,8.4141,-0.036041,-0.0097738,0.010996
0.0029297,1.3925,-3.5696,8.2572,-0.023213,-0.0012217,0.0082467
-0.00067139,1.3337,-3.5304,8.0807,-0.012523,0.0094684,0.0051924
0.0032349,1.4318,-3.55,8.0807,-0.0027489,0.018631,0.0033598
0.013458,1.6083,-3.8638,8.1787,-0.010385,0.018326,0.0030543
0.0061646,1.5298,-3.7854,8.2572,-0.032987,0.023213,0.0048869
0.0067139,1.3533,-3.7265,8.1199,-0.031765,-0.007025,-0.002138
0.013672,1.3729,-3.4519,8.2572,-0.036041,-0.0048869,-0.0058032
0.013092,1.2945,-3.5304,8.316,-0.038485,0.0024435,-0.0058032
0.010651,1.2356,-3.5304,8.2572,-0.047342,0.0088575,-0.0058032
0.0073242,1.118,-3.6285,8.316,-0.055283,0.011912,0.0015272
-0.0035706,1.0199,-3.5696,8.2572,-0.052534,0.010996,0.0042761
-0.012726,1.216,-3.6285,8.218,-0.043982,0.014661,0.0030543
-0.020447,1.1964,-3.5108,8.1787,-0.028711,0.023213,0.002138
-0.029541,1.3925,-3.6285,8.1787,-0.011912,0.03146,-0.018326
-0.043884,1.3925,-3.7658,8.2572,0.0015272,0.034514,-0.020464
-0.048035,1.5298,-3.6285,8.2572,0.0048869,0.041539,-0.0067195
-0.042389,1.2356,-3.5108,8.1591,-0.0042761,0.045204,-0.0048869
-0.048584,1.3533,-3.5304,8.2376,-0.01405,0.043982,-0.002138
-0.044464,1.5102,-3.6285,8.2572,-0.022297,0.038179,-0.0039706
-0.05304,1.118,-3.55,8.316,-0.028405,0.030849,-0.0076358
-0.053009,1.3729,-3.9423,8.2572,-0.025656,0.026267,-0.012828
-0.051025,1.3337,-3.7658,8.2572,0.0009163,0.010385,-0.014966
-0.029724,1.3729,-3.5696,8.218,0.0033598,0.009163,-0.011606
-0.0081787,1.3533,-3.6677,8.218,0.0051924,0.011912,-0.018021
-0,1.2945,-3.4519,8.2768,0.00061087,0.014966,-0.019853
0.0012207,1.118,-3.5304,8.316,-0.009163,0.014966,-0.020769
0.0036621,1.4318,-3.5696,8.1787,-0.0058032,0.010996,-0.019548
0.024872,1.5298,-3.8638,8.1787,-0.0061087,0.0061087,-0.020464
0.0090942,1.5298,-3.6677,8.1787,-0.0036652,0.007025,-0.019853
0.012329,1.4318,-3.6873,8.1199,0.0033598,0.01069,-0.010385
0.011292,1.5298,-3.6285,8.218,0.0042761,0.013744,-0.012828
0.0159,1.3533,-3.5304,8.2376,-0.0042761,0.013439,-0.015577
0.019348,1.2945,-3.5696,8.0807,-0.010996,0.013439,-0.014355
0.023438,1.4906,-3.4127,8.2376,-0.0088575,0.013744,-0.010385
0.011719,1.118,-3.55,8.2768,-0.0033598,0.014966,-0.012523
0.016998,1.2945,-3.8442,8.1199,0.0048869,0.020159,-0.013134
0.021851,1.4514,-3.7069,8.1787,0.015882,0.025045,-0.01069
0.026581,1.1768,-3.6088,8.2572,-0.021686,0.002138,-0.010079
0.034027,1.4318,-3.6873,8.1787,0.0018326,0.0054978,-0.010079
0.029633,1.4906,-3.5304,8.2376,0.016493,0.01405,-0.025656
0.023346,1.3925,-3.6873,8.218,0.016799,0.01741,-0.021075
0.024872,1.3729,-3.7658,8.2572,0.0076358,0.011912,-0.019242
0.025116,1.5887,-3.6873,8.1003,-0.007025,0.0027489,-0.019548
0.010651,1.4318,-3.6285,8.1787,-0.020159,-0.0061087,-0.018326
-0.00097656,1.4906,-3.6873,8.1787,-0.026878,-0.012828,-0.013439
-0.0041199,1.3533,-3.6873,8.2572,-0.014966,-0.013134,-0.012828
-0.014832,1.4514,-3.5108,8.2376,-0.0054978,-0.007025,-0.015577
-0.01889,1.216,-3.6285,8.316,0.00061087,-0.0045815,-0.0067195
-0.024872,1.2945,-3.7069,8.2572,0.0051924,0,-0.0054978
-0.029236,1.3533,-3.6088,8.1591,0.002138,0.0079412,-0.0054978
-0.026093,1.4318,-3.6677,8.1787,-0.0033598,0.013744,-0.0045815
-0.037079,1.4906,-3.6873,8.2572,-0.029016,0.014966,-0.007025
-0.026917,1.2945,-3.5696,8.1591,-0.025351,0.011301,-0.010996
-0.036285,1.4318,-3.6088,8.2572,0.28039,0.086437,0.024435
-0.018036,1.1768,-3.7265,8.2768,0.33842,0.11942,0.025962
-0.0093994,1.3337,-3.5108,8.0218,0.32529,0.13775,-0.0030543
0.0072937,1.5495,-3.5696,8.2376,0.24221,0.12828,0.010385
0.0036316,1.6083,-3.7658,8.218,0.11301,0.1014,0.016188
0.0049133,1.3337,-3.7265,8.2572,-0.048869,0.067501,0.0064141
0.0085754,1.5298,-3.5304,8.2768,-0.20953,0.021686,0.011912
0.015717,1.1964,-3.5108,8.4141,-0.343,-0.029627,0.02138
0.020508,1.216,-3.5696,8.1199,-0.10293,0.024129,0.0054978
0.029022,1.2945,-3.6285,8.1003,-0.11637,0.019242,0.016188
0.037048,1.1964,-3.55,8.2376,-0.1295,0.015272,0.015272
0.038818,1.3729,-3.4519,8.218,-0.11484,0.0042761,0.011606
0.036011,1.3925,-3.4519,8.218,0.0039706,0.011301,-0.0015272
0.037506,1.5887,-3.3931,8.1984,0.18295,0.061392,-0.036957
0.028534,1.2945,-3.6088,8.1787,0.30329,0.11515,-0.057421
-0.017212,1.0983,-3.9423,8.2572,0.31093,0.13256,-0.026878
-0.12689,1.6867,-4.4522,7.7865,0.12492,0.10507,0.015272
-0.30499,1.2945,-3.6873,8.4729,-0.017715,0.052229,0.020159
-0.4971,1.2945,-3.1577,8.6495,-0.11912,-0.0082467,0.015577
-0.68564,1.2945,-3.0989,8.5318,-0.11148,-0.057727,0.0097738
-0.83051,1.3337,-4.0207,7.9434,-0.023518,-0.06353,-0.0067195
-0.93323,1.6475,-3.7854,8.2572,0.080023,-0.015882,-0.036041
-0.99997,1.1964,-3.3539,8.5514,0.14355,0.035736,-0.05284
-0.99997,1.4318,-3.0008,8.3945,0.12889,0.049786,-0.025351
-0.99997,1.4318,-3.197,8.1003,0.054062,0.025351,0.00030543
-0.99997,1.3729,-3.7069,7.6884,-0.043066,-0.014661,-0.0039706
-0.99997,1.3925,-3.8442,7.7865,-0.12339,-0.045815,0.020769
-0.99997,1.3337,-3.6873,8.0807,-0.15577,-0.060781,0.033292
-0.99997,1.3337,-3.3735,8.5514,-0.12462,-0.066279,0.038179
-0.99997,1.216,-3.0793,8.7475,-0.043066,-0.050396,0.027489
-0.99396,1.1964,-3.0793,8.8652,0.066279,-0.0067195,0.012217
-0.89856,1.3533,-3.1381,8.8456,0.18204,0.044593,0
-0.76401,1.3925,-3.5304,8.316,0.076358,0.0073304,-0.08094
-0.62201,1.4906,-4.0403,8.0807,0.03543,-0.0079412,-0.094379
-0.47192,1.5298,-4.2561,8.0807,-0.0036652,-0.022602,-0.025962
-0.32944,1.3533,-4.0011,8.218,-0.04612,-0.042455,-0.019242
-0.18909,1.2945,-3.5696,8.3749,-0.070555,-0.070555,-0.01741
-0.072998,1.4906,-3.4519,8.4141,-0.05681,-0.093462,-0.025656
0.045441,1.4514,-3.4127,8.2572,-0.017104,-0.10079,-0.040928
0.11627,1.5298,-3.6873,8.0807,0.032376,-0.095295,-0.062614
0.17825,1.6475,-4.0207,8.0022,-0.29932,-0.077885,-0.42516
0.23755,1.3533,-3.9423,8.0611,-0.38301,-0.082772,-0.45479
0.26474,1.5298,-3.8638,8.0022,-0.39523,-0.14783,-0.12034
0.28433,1.6083,-3.7658,8.1003,-0.37232,-0.17715,-0.19303
0.31174,1.6083,-3.4519,8.218,-0.32895,-0.16799,-0.26603
0.30533,1.6083,-3.5108,8.2572,-0.27367,-0.14264,-0.29963
0.29147,1.5298,-3.8246,8.3749,0.047342,-0.12431,-0.34758
0.302,1.6867,-4.1384,8.5514,-0.091324,-0.1179,-0.3934
0.29874,1.6475,-4.3345,8.4141,-0.22694,-0.095295,-0.89736
0.30301,2.1182,-4.3934,8.4337,-0.31918,-0.071471,-0.99938
0.31531,2.2163,-4.4522,7.963,-0.46059,-0.056505,-0.48655
0.31894,2.3928,-4.8053,7.9434,-0.62064,-0.053451,-0.51191
0.32993,2.4517,-5.021,7.7865,-0.77213,-0.065363,-0.54611
0.3638,2.7851,-4.8053,7.5511,-0.88728,-0.07758,-0.6127
0.41809,2.8635,-4.6091,7.3942,-0.22969,-0.066584,-0.70158
0.4747,3.1774,-5.021,7.4531,-0.20403,-0.03146,-0.79993
0.53586,3.4716,-5.5898,7.2373,-0.92974,0.027184,-1.7724
0.61288,4.06,-5.9624,6.6685,-0.85307,0.10996,-1.8433
0.68777,4.1972,-6.139,6.0605,-0.76694,0.21564,-1.1136
0.76031,4.4326,-6.139,5.8055,-0.72357,0.33659,-1.2306
0.84402,4.5895,-5.884,6.2174,-0.76419,0.45723,-1.3503
0.93088,4.6484,-5.4525,6.8254,-0.87965,0.55803,-1.4734
1,4.7464,-5.1975,7.0216,-0.9557,0.62797,-1.5876
1,4.6876,-5.021,6.7077,-0.96822,0.67501,-1.6878
1,4.668,-5.1191,6.6097,-1.0495,0.09896,0.93218
1,4.3542,-5.5898,6.1978,-0.78038,0.040623,0.98471
1,4.1188,-5.1191,6.3547,-0.35583,0.027184,0.24526
1,3.5696,-4.8837,6.9235,0.13744,0.076664,0.30727
1,3.1577,-4.1972,7.5315,0.5339,0.14661,0.3879
1,2.9616,-3.6088,7.6884,0.72937,0.18631,0.52015
1,2.9224,-3.6088,7.5511,0.74006,0.15791,0.67775
1,2.8047,-3.6285,7.4531,0.63255,0.08094,0.82436
0.98514,2.6086,-3.9227,7.5511,0.3259,0.030543,1.0101
0.8233,2.6282,-3.7069,7.61,0.1463,0.009163,0.98685
0.6308,2.3732,-3.6285,7.9434,0.015272,-0.0036652,1.0143
0.44867,2.687,-3.2166,7.7865,-0.028711,0.018021,1.0443
0.28571,2.7459,-2.7851,7.6492,0.010996,0.062614,1.0504
0.12955,2.7851,-2.7459,7.6296,0.075442,0.11057,1.0507
-0.02771,3.1774,-2.1967,7.5511,0.14447,0.15211,1.0605
-0.20212,2.8635,-2.2751,7.1589,0.24618,0.20097,1.0473
-0.37518,2.1575,-3.8834,6.845,0.37385,0.28008,0.62919
-0.53998,2.0202,-5.0798,7.6884,0.4777,0.39737,0.60934
-0.6962,1.1768,-4.8641,8.8064,0.53054,0.52595,0.99082
-0.83563,0.11768,-4.0207,8.9437,0.53298,0.63652,0.99815
-0.97791,0.23536,-3.5108,8.0807,0.52473,0.7141,0.97158
-0.99997,-0.13729,-3.6873,7.0216,0.55589,0.759,0.905
-0.99997,-0.27459,-3.8834,6.6489,0.64171,0.8207,0.81581
-0.99997,-0.35304,-5.1191,6.9039,0.79077,0.91691,0.70921
-0.99997,-0.49033,-5.9624,6.6685,-0.54703,0.43524,0.060781
-0.99997,0.098066,-5.7075,6.6685,-0.66065,0.39554,0.16096
-0.99997,0.49033,-4.7856,6.8058,-0.79962,0.34086,-0.55589
-0.99997,-0.05884,-4.7268,6.5508,-0.93646,0.26756,-0.46334
-0.99997,0.13729,-4.7856,6.1193,-1.0528,0.20922,-0.37354
-0.99997,-0.13729,-4.7072,6.9235,-1.1365,0.17929,-0.29352
-0.99997,-0.60801,-4.8053,7.7669,-1.1787,0.16952,-0.19364
-0.99997,-0.98067,-5.6486,8.0807,-1.1637,0.14416,-0.065363
-0.99997,-0.68647,-5.884,8.2768,-0.0094684,-1.5278,0.39401
-0.99997,-1.3141,-5.7663,8.5318,0.11942,-1.4303,0.50702
-0.99997,-0.5884,-5.6094,8.1003,0.17654,-1.2886,-0.70341
-0.99997,0.039227,-4.9818,8.2572,0.17226,-1.1298,-0.54306
-0.99997,0.25497,-4.158,8.6887,0.13286,-0.97677,-0.35797
-0.99997,0.39227,-4.0207,8.4141,0.11698,-0.85032,-0.1631
-0.99997,0.56879,-3.5696,8.218,-0.35552,-0.74067,0.045509
-0.99997,0.56879,-3.2362,8.0611,-0.18173,-0.64171,0.23671
-0.99997,0.27459,-3.295,8.2768,0.2981,-0.51832,1.4297
-0.99997,-0.64724,-3.3735,9.0417,0.35339,-0.3543,1.5165
-0.99997,-2.1771,-4.0796,9.434,0.35339,-0.21197,0.59682
-0.99997,-2.9028,-4.7072,9.434,0.32651,-0.097433,0.72601
-0.99997,-3.805,-4.7072,9.9636,0.27611,-0.015577,0.89461
-0.99997,-4.7856,-5.1975,10.591,0.2303,0.01741,1.0562
-0.99997,-4.8445,-5.3348,10.16,0.15119,0.023824,1.1936
-0.99997,-4.5699,-5.4133,8.8456,0.21502,0.034819,1.3219
-0.99997,-2.4713,-5.3544,7.3158,0.10171,0.068111,1.7501
-0.99997,-0.74531,-4.1972,6.845,0.20647,0.10415,1.7645
-0.99997,-0.49033,-3.5304,7.0019,0.20586,0.11698,1.5962
-0.99997,0.13729,-2.6086,6.6097,0.20372,0.09896,1.6732
-0.99997,1.1964,-1.1572,5.9232,0.17135,0.043982,1.7297
-0.99997,1.6083,-0.43149,6.0409,0.1066,-0.025351,1.7504
-0.99997,2.1771,-0.80415,6.6097,0.042761,-0.08094,1.7443
-0.99997,2.1575,-1.5691,6.9627,0.031154,-0.096211,1.7391
-0.99997,2.5301,-1.5691,6.9627,-0.96731,-1.4303,-0.93218
-0.99997,2.1378,-2.1967,7.1589,-1.2605,-1.6759,-0.82742
-0.99997,2.4713,-3.3735,7.8061,-1.4435,-1.8864,-0.86804
-0.99997,3.2166,-4.6091,8.316,-1.482,-1.9939,-0.99449
-0.99997,3.4127,-4.668,8.4926,-1.3644,-1.9838,-1.0724
-0.99997,3.5696,-4.0796,8.6299,-1.1286,-1.8885,-1.1047
-0.99997,3.6873,-4.3345,8.0807,-0.83353,-1.7657,-1.0953
-0.92975,4.0403,-5.021,7.61,-0.56016,-1.6347,-1.0305
-0.82053,4.3149,-5.0995,7.2961,0.025656,0.7199,-0.79779
-0.66806,4.3542,-5.4133,7.2373,0.011912,0.69914,-0.71868
-0.52203,4.0403,-4.6091,7.4334,0.029016,0.68783,-1.3256
-0.38199,3.4716,-4.3345,7.5903,0.055894,0.68906,-1.2651
-0.25418,3.3146,-4.158,7.7865,0.067806,0.69028,-1.1823
-0.14328,3.4912,-4.3345,7.8649,0.054367,0.68325,-1.0852
-0.041382,3.4127,-4.3345,7.7669,0.011301,0.65454,-0.98044
0.038757,3.3735,-4.158,7.6884,-0.01741,0.59498,-0.87965
0.097351,2.9616,-4.5699,7.7865,-0.0051924,0.52351,-0.36652
0.13937,2.687,-5.4329,7.8061,0.039706,0.46517,-0.35247
0.16046,3.1577,-6.3939,7.9042,0.11362,0.41569,-0.64171
0.17065,2.942,-6.492,8.316,0.21105,0.36988,-0.57421
0.17056,3.0989,-6.0409,8.3945,0.30757,0.32376,-0.51068
0.13596,2.9224,-5.0406,8.1787,0.39981,0.27855,-0.45876
0.072235,2.5497,-4.8837,8.1003,0.48625,0.23182,-0.42241
0.006897,2.6282,-4.9426,7.7865,0.57421,0.19456,-0.39126
-0.055054,2.687,-4.5111,7.5511,0.34392,0.17959,-1.2352
-0.10651,2.2359,-3.8246,7.61,0.28436,0.20189,-1.317
-0.15424,1.7456,-3.2362,7.9434,0.20372,0.20372,-0.29352
-0.19458,1.3337,-2.8243,7.7669,0.12889,0.21075,-0.4893
-0.24854,0.98067,-2.4713,7.7669,0.093462,0.2419,-0.68234
-0.24771,0.66685,-2.4713,7.9042,0.11912,0.2981,-0.85674
-0.25909,0.35304,-2.5105,8.2572,0.18662,0.37538,-1.0076
-0.28107,0.098066,-2.0006,8.4141,0.2642,0.45418,-1.1338
-0.29489,-0.39227,-1.9417,8.6299,0.34728,0.51557,-1.42
-0.30258,-0.98067,-1.8829,9.2575,0.34361,0.5565,-1.3744
-0.311,-1.1376,-2.2948,9.3752,0.31582,0.59132,-1.3821
-0.32632,-1.1572,-2.432,9.6694,0.28466,0.62766,-1.4297
-0.34332,-1.1376,-2.6086,10.101,0.24221,0.66309,-1.4618
-0.35117,-1.0787,-2.5105,10.297,0.18479,0.69394,-1.4746
-0.37885,-0.82376,-2.432,10.199,0.12126,0.71227,-1.4716
-0.41446,-0.43149,-2.3536,10.101,0.064141,0.72326,-1.4536
-0.43384,-0.05884,-2.1575,10.003,-0.87781,-0.38026,0.21747
-0.44598,0.098066,-2.6086,9.8459,-1.2046,-0.4383,0.23976
-0.45728,0.56879,-2.5693,9.8066,-1.5485,-0.53512,0.094684
-0.4993,0.41188,-2.0594,9.8066,-1.8616,-0.67317,0.13439
-0.53616,0.098066,-1.7456,9.9047,-2.1017,-0.81856,0.16096
-0.57266,0.2942,-1.6475,9.434,-2.2437,-0.93921,0.17074
-0.62354,0.49033,-1.6475,8.8652,-0.38087,-1.0223,0.17807
-0.66147,0.27459,-1.5691,8.5514,-0.60018,-1.0647,0.19364
-0.71173,0.19613,-1.2553,8.7083,0.61789,-0.082772,-0.16952
-0.75116,0.27459,-1.0199,8.5514,0.54214,-0.084605,-0.15363
-0.79175,0.27459,-0.70608,8.4141,0.4948,-0.072693,-0.27733
-0.83182,0.41188,-0.68647,8.3749,0.46914,-0.062919,-0.25809
-0.8743,0.70608,-0.94144,8.4926,0.44929,-0.060781,-0.23793
-0.91693,0.70608,-0.62763,8.8456,0.42608,-0.060781,-0.21716
-0.97391,0.56879,-0.54917,9.1202,0.39615,-0.066279,-0.19487
-0.99997,0.5884,-0.49033,9.3359,0.36224,-0.071471,-0.17959
-0.99997,0.54917,-0.23536,9.2575,0.24648,-0.073915,-0.11057
-0.99997,0.43149,-0.11768,9.4144,0.20342,-0.081551,-0.10568
-0.99997,0.54917,-0.49033,9.179,0.16432,-0.097433,-0.13714
-0.99997,0.54917,-0.5884,9.179,0.13683,-0.11026,-0.12339
-0.99997,0.5884,-0.31381,9.3359,0.13775,-0.11851,-0.11301
-0.99997,0.49033,-0.098066,9.6694,0.1573,-0.12523,-0.10782
-0.99997,0.8826,-0.17652,9.434,0.32803,-0.12859,-0.1066
-0.99997,0.90221,0,9.179,0.28802,-0.13042,-0.10904
-0.99997,0.96105,0.039227,9.179,0.10873,-0.13989,0.019853
-0.99997,0.90221,0.31381,9.2183,0.058338,-0.16677,0.057116
-0.99078,0.70608,0.37265,9.1986,0.0039706,-0.20342,-0.097433
-0.93561,0.41188,0.039227,8.9044,-0.052534,-0.23976,-0.090103
-0.83035,0.86299,-0.68647,8.3357,-0.12339,-0.27336,-0.079107
-0.68198,1.0591,-1.3141,8.0022,-0.22663,-0.29993,-0.061697
-0.48483,1.5495,-1.6279,8.0807,0.16554,-0.32009,-0.040928
-0.26071,1.7456,-1.5298,8.5514,0.14966,-0.34392,-0.014355
-0.03537,1.5298,-1.6867,8.3945,-0.088881,0.1463,-0.33109
0.24445,2.1182,-2.9224,8.1787,-0.2025,0.14019,-0.31704
0.49042,2.3732,-3.4519,7.9434,-0.30879,0.12675,-0.29627
0.74539,2.2948,-4.3345,7.8649,-0.38851,0.11118,-0.3091
0.957,2.7459,-5.4133,7.7669,-0.42883,0.10324,-0.32132
1,2.7066,-5.8252,7.6884,-0.42974,0.10843,-0.32895
1,3.0793,-5.9036,7.61,-0.41508,0.1292,-0.33445
1,3.0008,-5.5113,7.4727,-0.4163,0.15363,-0.33659
1,2.7851,-4.9426,7.7473,-0.44654,0.1741,-0.37782
1,2.6282,-4.4914,7.8649,-0.52657,0.18265,-0.42883
1,2.8047,-4.3345,7.9238,-0.67714,0.17013,-0.30268
1,2.687,-4.1972,7.8061,-0.89461,0.14447,-0.29474
1,2.8047,-4.3345,7.61,-1.1609,0.099876,-0.29138
1,2.7655,-4.766,7.3354,-1.4392,0.020769,-0.28894
1,2.8047,-4.9426,7.3158,-1.6591,-0.075747,-0.29138
1,2.7066,-4.9229,7.1196,-1.7584,-0.14569,-0.31857
1,2.6086,-4.5111,7.3158,-1.5974,-0.17196,-0.40409
1,2.8439,-4.4914,7.3746,-1.3833,-0.14142,-0.47128
1,2.6478,-5.3544,6.9823,-1.1872,-0.068417,-0.44654
1,3.0597,-6.0213,6.1978,-1.0886,0.023213,-0.43341
1,3.3146,-6.5312,5.5898,-1.1325,0.098655,-0.40836
1,3.5892,-6.2763,5.7467,-1.2963,0.1237,-0.38454
1,3.4127,-5.5113,6.0409,-1.4847,0.092546,-0.36957
1,3.4912,-5.5702,5.9036,-1.5977,0.032987,-0.3708
1,3.7854,-6.3743,5.2368,-1.5718,-0.015272,-0.52595
1,4.2561,-6.845,4.9622,-1.4068,-0.007025,-0.51801
1,4.1972,-7.0019,5.2368,-1.1484,0.068722,-0.54642
1,4.0011,-6.4528,5.4525,-0.84086,0.17074,-0.59132
1,4.1972,-6.4528,5.9232,-0.52687,0.25595,-0.5846
1,4.3149,-6.5312,6.3351,-0.21869,0.31887,-0.55619
1,3.8638,-6.3743,6.5312,0.087354,0.35522,-0.54336
1,4.1972,-6.5116,6.5116,0.37141,0.36133,-0.53665
0.97748,5.1387,-6.1193,6.9039,1.7556,1.1839,0.047037
0.81555,4.9622,-5.0798,7.2961,1.4322,1.0828,0.059254
0.51758,4.9622,-4.158,7.2177,1.0314,0.95326,-0.04948
0.12747,5.0014,-3.3735,6.492,0.61636,0.81734,-0.04215
-0.30551,4.5895,-2.8243,6.1978,0.24862,0.69272,-0.023824
-0.73291,3.8638,-2.4713,6.5312,0.0073304,0.58643,-0.00030543
-0.99115,3.1774,-2.7459,6.845,-0.065668,0.50916,0.013134
-0.99997,2.7459,-3.7265,7.2961,-0.0076358,0.45601,0.028711
-0.99997,2.0006,-5.1779,7.2373,0.21289,0.43494,0.28558
-0.99997,2.0006,-5.4525,6.9627,0.08094,0.42822,0.30177
-0.99997,1.6867,-4.8249,6.8254,-0.10049,0.39828,0.089492
-0.99997,0.98067,-4.2953,7.0019,-0.2419,0.33506,0.1463
-0.99997,0.70608,-3.3735,7.0804,-0.28894,0.24587,0.20708
-0.99844,-0.19613,-1.9417,7.9434,-0.25198,0.15149,0.25107
-0.99997,-0.5884,-1.2553,8.6887,0.12156,0.073915,0.27306
-0.99997,-0.13729,-1.1768,9.1594,0.22419,0.019853,0.27764
-0.99997,0.039227,-1.9809,9.0417,-0.16188,-0.020464,0.41417
-0.99997,-0.039227,-2.7459,9.0417,-0.22358,-0.065057,0.40775
-0.99997,0.039227,-2.6282,9.1202,-0.30757,-0.1179,0.32742
-0.99997,0.039227,-1.5887,9.5125,-0.37782,-0.18326,0.3598
-0.99997,-0.019613,-1.0199,9.2575,-0.41569,-0.2532,0.38698
-0.99997,-0.21575,-1.3337,8.8652,-0.41661,-0.30329,0.40103
-0.99997,0.11768,-1.6867,9.4144,-0.1854,-0.33628,0.40623
-0.99997,0.17652,-1.7456,10.16,-0.14447,-0.36041,0.41294
-0.99997,0.41188,-1.7456,10.513,-0.23488,-0.36713,0.37324
-0.99997,1.1964,-2.0986,9.9047,-0.20128,-0.35522,0.34147
-0.99997,1.4318,-1.9417,9.5125,-0.22235,-0.33201,0.40836
-0.99997,1.7456,-2.1967,9.2183,-0.29322,-0.30757,0.41844
-0.99997,1.6867,-2.2751,9.179,-0.37171,-0.29932,0.43005
-0.99997,1.8437,-2.1967,9.3752,-0.41875,-0.31032,0.43799
-0.99997,1.6083,-2.589,9.1202,-0.37751,-0.32895,0.43402
-0.99997,1.824,-2.8243,8.8848,-0.30452,-0.34056,0.40836
-0.99997,1.7456,-2.9224,8.6887,-0.67042,-0.1909,-0.032681
-0.99997,1.8437,-3.197,8.6887,-0.44257,-0.04948,-0.052229
-0.99997,2.0006,-2.4517,8.4337,-0.31612,0.018326,-0.028711
-0.99997,2.0006,-2.3732,8.5514,-0.34758,0.036652,0.027794
-0.91684,1.824,-3.2166,7.963,-0.44471,0.0045815,0.040623
-0.79245,2.2163,-3.7265,7.8453,-0.49511,-0.067501,0.047342
-0.65457,2.2948,-3.5304,7.8061,-0.50549,-0.12095,0.052534
-0.54446,1.9809,-3.2362,8.0807,-0.47861,-0.14172,0.015882
-0.44745,1.8044,-3.2166,8.1199,-0.41417,-0.15272,-0.14172
-0.37549,1.7064,-3.6285,8.4141,-0.3427,-0.14019,-0.15699
-0.31363,1.7652,-4.0207,8.0022,-0.27947,-0.1066,-0.069639
-0.27112,1.9221,-3.9423,7.9434,-0.21594,-0.081856,-0.088575
-0.24847,1.9221,-3.8246,7.963,-0.12126,-0.079412,-0.085521
-0.22659,1.9025,-4.0207,7.61,0.013439,-0.086132,-0.082161
-0.20111,2.4517,-4.8249,6.9627,0.19731,-0.096211,-0.10171
-0.18314,2.687,-5.9624,5.6682,0.40531,-0.079718,-0.12095
-0.13745,3.0008,-6.2174,5.2564,0.56474,-0.011606,-0.11209
-0.10754,3.0597,-6.0213,5.5702,0.64232,0.062308,-0.086132
-0.090393,2.6478,-5.3348,6.2763,0.61453,0.10873,-0.13958
-0.11176,2.7655,-4.7856,6.6685,0.50213,0.11393,-0.11942
-0.15829,2.2359,-5.4133,6.7666,0.354,0.080329,-0.12523
-0.20758,2.1378,-6.0605,6.8647,0.208,0.032987,-0.12584
-0.2424,2.6086,-6.5312,6.9235,0.068722,-0.0012217,-0.11912
-0.25964,2.3732,-6.3743,7.0019,-0.072693,-0.027184,-0.12004
-0.27539,2.0202,-6.0213,7.1589,-1.3317,-0.25779,-0.17013
-0.28787,1.8437,-6.237,6.6489,-1.5724,-0.31826,-0.11179
-0.3215,1.6083,-5.8644,6.7666,-1.8592,-0.39615,0.13408
-0.3558,1.4318,-5.4133,7.3158,-2.1096,-0.47617,0.098044
-0.41788,1.1964,-4.668,7.5511,-2.1783,-0.53817,0.040928
-0.4707,1.3729,-4.1776,7.5903,-2.0323,-0.53512,-0.037263
-0.51642,1.6083,-3.8246,7.3942,-1.7342,-0.4777,-0.12553
-0.54538,1.824,-4.4914,6.6685,-1.3216,-0.36499,-0.17929
-0.54364,2.8635,-4.8837,6.1193,0.025045,-0.18601,0.77916
-0.51074,3.3146,-4.3345,6.4332,-0.13378,-0.018021,0.69914
-0.47742,3.1185,-3.3931,6.5312,-0.34972,0.12767,0.83444
-0.43069,2.9224,-3.3931,6.4332,-0.52198,0.16005,0.91721
-0.38419,2.432,-4.2953,6.2959,-0.59926,0.071166,0.95264
-0.32474,2.6086,-5.2956,6.1782,-0.59254,-0.041844,0.93187
-0.25357,2.1575,-6.1978,6.1193,0.27825,-0.11362,0.88453
-0.18756,1.9221,-7.0804,6.1193,0.13806,-0.15333,0.83505
-0.1214,0.76492,-7.8453,6.8647,-0.22266,-0.17043,0.0562
-0.080322,-0.92183,-9.179,8.3749,-0.015882,-0.15608,0.012217
-0.077332,-1.7456,-8.1591,9.0417,0.12095,-0.099876,0.60812
-0.12259,-1.216,-5.9624,9.179,0.20159,-0.025656,0.53573
-0.22458,-0.5884,-4.5111,8.8652,0.26237,0.033598,0.45632
-0.36285,0.66685,-4.0796,8.5514,0.32467,0.084299,0.35155
-0.51547,1.7456,-3.6285,7.9238,-0.53512,0.14203,0.24526
-0.66833,2.1771,-2.687,7.6296,-0.41692,0.20189,0.1408
-0.83017,2.5301,-1.824,7.61,1.3473,0.045509,-0.45998
-0.97586,4.1188,0.078453,8.0611,1.2031,-0.10721,-0.26481
-0.99997,4.9622,1.3141,8.7083,1.0168,-0.28008,-0.63286
-0.99997,5.2564,0.82376,8.1199,0.82345,-0.4496,-0.72937
-0.99997,5.4525,-0.17652,7.0019,0.68417,-0.57727,-0.78863
-0.99997,4.3345,-0.21575,7.4923,0.65088,-0.65699,-0.78771
-0.99997,2.7851,-1.824,8.6299,0.69425,-0.68325,-0.72235
-0.99997,2.1575,-4.3934,9.1006,0.79993,-0.67775,-0.61209
-0.99997,2.2751,-5.9036,8.9044,0.97128,-0.66157,0.7254
-0.99997,2.687,-6.2959,8.0022,1.1698,-0.6017,0.76664
-0.99997,2.7459,-5.7663,7.4531,1.3283,-0.50366,-0.07422
-0.99997,2.6282,-5.1387,7.1196,1.3509,-0.41386,0.090103
-0.99997,2.589,-4.3345,6.9823,1.2007,-0.37171,0.2419
-0.99997,2.2359,-3.6285,7.3746,0.94257,-0.35858,0.39095
-0.99997,2.2359,-3.0793,7.61,0.67623,-0.34086,0.53054
-0.99997,2.2948,-3.197,7.9434,0.45601,-0.2978,0.65027
-0.99997,1.9809,-3.3735,8.1003,-0.16402,-0.050702,-0.0076358
-0.99997,1.4318,-3.9227,9.1202,-0.087965,-0.042761,0.0042761
-0.99997,1.824,-3.3931,9.0417,0.044593,-0.025962,0.028405
-0.99997,2.2359,-3.197,8.316,0.18937,0.00030543,0.029627
-0.99997,1.8437,-3.197,7.9434,0.28314,0.025962,0.026878
-0.99997,2.0006,-2.6086,8.1787,0.34667,0.017104,0.020769
-0.99997,2.1378,-2.5105,8.0022,0.37751,-0.0012217,0.0094684
-0.99997,1.9613,-1.9809,8.6299,0.35369,-0.023518,-0.0082467
-0.99997,1.7064,-2.7459,8.8652,-0.0015272,-0.036957,-0.075442
-0.99997,1.6867,-3.7069,8.4141,0.33048,-0.034514,-0.085827
-0.99997,1.4318,-3.5108,9.2575,0.26542,-0.029932,0.019548
-0.99997,1.824,-3.0401,9.2183,0.16524,-0.034819,0.022297
-0.99997,1.7456,-2.8243,9.0221,0.044288,-0.03207,0.0088575
-0.99997,1.5298,-2.5105,9.1986,-0.045204,0.013744,-0.021075
-0.99997,1.7456,-2.5301,8.7475,-0.047647,0.074831,-0.052534
-0.99997,1.8437,-2.6282,8.5318,-0.012523,0.11668,-0.062308
-0.99997,1.824,-2.9028,8.316,-0.17013,-0.022297,0.065668
-0.99997,1.7456,-2.8243,8.1787,-0.26573,-0.051924,0.073609
-0.99997,2.1575,-3.0793,8.2376,-0.30604,-0.053756,0.023213
-0.99997,2.0006,-3.7658,8.5514,-0.29413,-0.03207,0.019853
-0.99997,1.9809,-3.6873,8.9437,-0.26481,-0.0051924,0.036957
-0.95953,1.6867,-2.9028,9.1594,-0.23182,0.021075,0.043371
-0.86444,1.6867,-2.4713,8.8652,-0.20464,0.043982,0.047647
-0.77875,1.7456,-2.9028,8.316,-0.17104,0.061697,0.055589
-0.69086,1.8633,-3.3539,8.3749,-0.073304,0.07422,0.062919
-0.62476,1.6867,-4.0207,9.0417,0.010385,0.078496,0.04612
-0.54282,1.7456,-3.6873,9.3555,0.082772,0.085216,0.065973
-0.46088,1.8044,-2.687,9.0613,0.12004,0.09163,0.047647
-0.39468,1.9221,-1.8829,8.316,0.095295,0.087354,0.036041
-0.34033,1.6671,-1.9809,8.0022,0.0073304,0.064446,0.036957
-0.29056,1.5495,-2.6086,7.4923,-0.097128,0.020464,0.046731
-0.26834,1.3533,-3.0008,7.8061,-0.16585,-0.027184,0.058643
-0.25775,1.3729,-2.7459,8.1787,-0.096211,-0.18143,-0.6747
-0.2421,1.2945,-2.4713,8.5514,-0.029016,-0.18754,-0.67073
-0.23376,1.1768,-2.1967,8.6887,0.020464,-0.1799,0.0045815
-0.23257,1.2945,-2.432,8.2572,0.059254,-0.18723,-0.13714
-0.20566,1.3729,-3.55,8.0807,0.10079,-0.20128,-0.28833
-0.17786,1.6867,-4.1776,8.2572,0.15058,-0.20708,-0.4331
-0.12494,2.0594,-3.6677,8.8064,-0.32987,-0.20036,-0.55222
-0.061676,1.8437,-2.9028,9.0221,-0.19609,-0.19456,-0.63561
0.012604,2.0006,-2.6282,9.179,0.15027,0.11545,0.17959
0.080536,2.1575,-2.6086,8.5514,0.12645,0.11912,0.24068
0.14365,1.824,-2.687,8.8456,0.057116,0.096822,-0.063835
0.18842,1.8633,-2.9028,8.8848,0.022297,0.061392,-0.034514
0.21301,1.7456,-2.942,8.8456,0.076358,0.048258,-0.0054978
0.23282,2.0594,-2.2751,9.0613,0.13928,0.062308,0.029322
0.25278,2.0594,-1.6867,9.4144,0.15394,0.071471,0.084605
0.26135,2.079,-1.6475,8.8456,0.1347,0.057727,0.12859
0.26685,2.1182,-1.3533,8.9437,0.054978,0.027184,0.54214
0.27853,1.9809,-1.0983,9.0417,0.032987,-0.0030543,0.58613
0.27515,1.9809,-1.216,9.1202,0.00030543,-0.025656,0.30421
0.27017,1.8633,-1.8829,8.7868,0.0027489,-0.026267,0.35522
0.27448,1.9221,-2.6086,7.963,0.067806,-0.019853,0.39126
0.29349,2.0202,-2.4517,7.7865,0.17349,0.0064141,0.42028
0.31616,1.5102,-2.4713,8.2768,0.10721,0.064141,0.44899
0.34579,0.90221,-2.942,8.7083,0.080023,0.12889,0.49297
0.38785,0.49033,-4.3934,9.3359,0.14203,0.19181,0.26634
0.43521,-0.13729,-6.0213,9.2575,0.025656,0.22571,0.13256
0.5011,-0.05884,-6.7666,8.8652,-0.12645,0.20617,0.60598
0.58429,-0.27459,-6.3939,8.7475,-0.28253,0.14355,0.62369
0.63693,0.098066,-5.4329,7.8061,-0.40042,0.067195,0.6353
0.71582,1.0395,-4.158,7.8649,-0.42119,-0.0079412,0.61422
0.78802,1.3925,-3.2362,8.1787,0.2529,-0.079718,0.54703
0.84872,1.1964,-2.4713,8.8652,0.23121,-0.14142,0.41844
0.89023,1.1768,-1.3533,9.1986,1.5345,1.2284,-0.10476
0.94733,1.6083,-1.118,8.8652,1.6512,1.19,-0.049786
0.98923,2.6086,-1.1768,7.3158,1.7935,1.2303,-0.76144
1,2.9028,-1.4318,6.9039,2.0021,1.492,-0.68997
1,3.6285,-3.197,6.9235,1.9563,1.7718,-0.68814
1,4.8053,-5.2368,6.6097,1.4276,1.5565,-0.5901
1,3.8638,-6.3351,6.9235,0.63958,0.8998,-0.35797
1,2.1575,-4.0207,7.9238,-0.10018,0.11545,-0.17318
1,1.5298,-0.70608,8.4141,-1.1991,-0.5507,0.29505
1,1.1964,1.1572,7.9434,-1.6729,-1.0388,0.13836
1,-0.05884,-0.17652,8.9044,-1.9881,-1.2798,0.029322
1,-1.7064,-2.0594,11.16,-2.2324,-1.2718,0.12706
1,-1.5298,-1.0199,9.8066,-2.5779,-1.1277,0.24954
1,-0.74531,1.3533,4.766,-3.061,-1.0492,0.38943
1,-2.0202,4.9229,8.4926,-3.4456,-1.1854,0.47098
1,-7.2569,4.0796,16.338,-3.4389,-1.3525,0.44043
1,-4.6876,2.2751,17.279,-3.04,-1.3274,0.2926
0.85495,0.13729,1.3337,11.768,-2.4477,-1.0953,0.27122
0.61066,1.824,0.84337,7.1785,-1.8228,-0.75961,0.076664
0.52209,0.41188,0.35304,8.218,-1.2171,-0.43707,0.11057
0.60406,0.96105,-1.9809,7.6296,-0.63561,-0.20769,0.19426
0.86197,3.1774,-3.0989,6.2763,-0.10476,-0.054978,0.29505
1,3.2754,-2.9028,7.0019,0.37935,0.054978,0.3485
1,1.9221,-2.8243,7.3158,0.81001,0.16341,0.32773
1,1.118,-3.0989,8.0807,1.1377,0.3259,0.2135
1,0.90221,-3.6285,8.0611,1.3161,0.49541,0.23793
1,0.11768,-3.0597,9.179,1.3479,0.59376,0.27917
1,-0.39227,-1.9417,9.7478,1.2761,0.61025,0.28619
1,-0.49033,0.56879,9.434,1.138,0.60873,0.25626
1,-1.1572,1.0395,9.179,0.94776,0.64782,0.2022
1,-0.84337,-0.31381,9.1594,0.67042,0.6524,0.17287
1,-0.2942,-2.3732,8.8064,0.29474,0.54367,0.18631
1,0.56879,-3.1381,8.218,-0.18418,-0.10354,-0.18906
1,0.66685,-2.3144,9.179,-0.26023,-0.10568,-0.15669
1,0.078453,-1.1964,9.6301,-0.3317,-0.11118,-0.15119
1,0.23536,-0.21575,9.7478,-0.33017,-0.098655,-0.17074
1,-0.27459,-0.49033,9.5125,-0.22449,-0.048564,-0.18479
1,0.039227,-1.4906,9.2575,-0.052534,0.037568,-0.20708
1,0.27459,-2.9028,8.7475,0.13011,0.13195,-0.22419
1,0.54917,-3.0008,8.4926,0.28283,0.20281,-0.21716
1,0.39227,-1.8044,9.0417,0.37935,0.24771,-0.1014
1,-0.50995,-0.37265,9.5321,0.21319,0.25992,-0.050396
1,-0.86299,-0.21575,10.062,0.04948,0.22663,-0.11423
1,-0.70608,-1.0591,9.434,-0.010079,0.14355,-0.078802
1,-0.45111,-2.1182,9.9439,0.019242,0.050091,-0.088881
1,-0.33343,-2.0986,9.3359,0.10873,0.026573,-0.12798
1,-0.23536,-1.6475,9.1202,0.3937,0.065668,-0.15302
1,-0.37265,-1.1572,8.8652,0.44013,0.1124,-0.13744
1,-0.17652,-1.0983,8.4926,0.093768,0.13622,0.071777
1,-0.078453,-1.5102,8.3749,-0.024129,0.13256,0.10446
1,-0.05884,-1.4318,8.4337,-0.11973,0.10293,0.0064141
1,-0.05884,-0.80415,8.9437,-0.17898,0.054062,0.039401
1,-0.84337,-0.098066,9.5713,-0.20036,0.017715,0.053145
1,-1.0591,-0.25497,10.101,-0.14325,0.0024435,0.060476
1,-0.50995,-0.52956,9.434,0.17898,-0.0079412,0.062614
1,-0.37265,-0.49033,9.0417,0.17165,-0.0027489,0.065668
1,-0.35304,0.039227,9.3752,-0.33964,0.054978,-0.09896
1,-0.54917,-0.15691,9.6694,-0.49083,-0.05284,-0.12278
1,-0.33343,-0.54917,9.9047,-0.54092,-0.14447,-0.0015272
0.95047,-0.35304,-0.86299,9.434,-0.55131,-0.21777,-0.016493
0.86053,-0.039227,-0.80415,9.3555,-0.47281,-0.23152,-0.032376
0.78192,-0.37265,-1.0199,9.9636,-0.33048,-0.19975,-0.071166
0.681,-0.13729,-1.3533,9.9439,-0.38546,-0.13806,0.071471
0.58295,-0.039227,-1.5102,9.2183,-0.43921,-0.065363,0.057421
0.4841,0.078453,-1.0003,8.0022,-0.42608,-0.22541,0.045204
0.43393,-0.64724,-1.7456,7.2373,-0.34575,-0.22266,0.025656
0.48508,0.41188,-2.2948,8.2572,-0.15516,-0.14875,-0.02474
0.58984,-0.23536,-2.6282,9.1202,0.022297,-0.051007,-0.010385
0.70822,-0.64724,-2.0594,9.6694,0.10537,0.029932,0.029322
0.80469,-0.45111,-1.0199,9.8066,0.098044,0.081245,0.066584
0.86069,-0.17652,-0.80415,9.434,0.048869,0.1066,0.086437
0.86505,-0.17652,-1.2553,9.1986,-0.019548,0.11332,0.073609
0.82852,0.098066,-1.3533,9.8851,-0.081551,0.10721,0.034514
0.69836,-0.05884,-1.3729,9.8066,-0.13775,0.095295,0.040623
0.45984,0.2942,-1.0395,9.179,-0.19914,0.075136,0.019548
0.16333,-0.19613,-0.41188,8.316,-0.26389,0.040012,0.022297
-0.10516,-0.68647,0.52956,8.9633,-0.31215,-0.013134,0.023518
-0.30167,-1.4514,-0.52956,9.5125,-0.31673,-0.059559,0.020769
-0.35941,-0.50995,-2.4124,9.3163,-0.29658,-0.080023,0.015882
-0.2663,0.35304,-2.3732,9.6694,-0.30116,-0.075136,0.018326
-0.091339,0.17652,-0.74531,9.7282,-0.32498,-0.042455,0.019548
0.079102,0.11768,0.15691,9.3555,-0.31826,-0.037568,0.027794
0.17471,0.039227,-0.62763,9.0221,-0.21777,-0.072388,0.018937
0.20743,0.35304,-1.2553,8.8456,-0.040623,-0.079412,-0.0024435
0.23569,0.078453,-1.216,9.0221,0.10079,-0.032987,-0.00061087
0.24847,0.11768,-1.1964,8.9044,0.15149,0.03207,0.0064141
0.24527,-0.039227,-1.5691,8.9437,0.12889,0.066279,-0.0033598
0.18039,-0.17652,-1.2553,9.179,0.06017,0.057727,0.00061087
0.089813,-0.45111,-1.118,9.434,-0.57941,-0.31124,0.019548
-0.028564,-0.39227,-1.118,9.3359,-0.29474,-0.31185,-0.0094684
-0.15698,-0.21575,-1.118,9.1006,0.17898,-0.18692,-0.17837
-0.23688,-0.13729,-1.3533,8.4337,0.59498,-0.050702,-0.15272
-0.24796,-0.27459,-1.7456,8.6299,0.75411,0.029016,-0.072998
-0.21005,0.098066,-2.1378,9.2575,0.60628,0.01741,0.020464
-0.13214,0.2942,-1.3729,9.6694,0.26176,-0.058338,0.065973
-0.039429,-0.019613,-0.90221,9.3359,-0.10385,-0.15699,0.051924
0.048492,0.11768,-0.8826,9.179,-0.0094684,0.039706,-0.010996
0.14719,0.039227,-1.2553,8.9437,-0.0058032,0.018326,-0.027489
0.23856,0.39227,-1.824,8.9044,-0.00061087,0.0076358,0.021686
0.33447,0.2942,-2.0006,8.7868,-0.0067195,0.011912,0.018937
0.41257,-0.05884,-1.4122,9.1006,-0.017104,0.019548,0.018326
0.44266,-0.05884,-1.1964,9.3359,-0.0082467,0.027489,0.0097738
0.46585,-0.13729,-1.1768,9.179,0.025656,0.027489,-0.0015272
0.46024,-0.039227,-1.6475,9.179,0.0012217,0.020464,-0.0058032
0.46225,0.25497,-2.432,9.0417,0.054978,0.021075,-0.051007
0.44763,-0.13729,-1.9809,9.2183,0.076969,0.04215,-0.046731
0.41919,-0.21575,-1.3141,9.3163,0.086437,0.061697,-0.04948
0.38684,-0.13729,-0.96105,9.5125,0.068722,0.06353,-0.058948
0.32663,0.17652,-1.1768,9.4928,0.031154,0.05284,-0.052229
0.25839,0.098066,-1.5102,9.1986,0.0067195,0.030849,-0.053756
0.1965,0.33343,-1.5102,8.9437,0.0082467,-0.0012217,-0.059254
0.13544,0.11768,-1.4318,9.0025,0.028711,-0.023213,-0.055589
0.087372,0.039227,-1.0199,9.1006,-0.10568,-0.095906,-0.071777
0.015015,-0.039227,-1.0395,9.2575,-0.10751,-0.093462,-0.050396
-0.062744,-0.039227,-1.2749,8.8848,-0.07758,-0.080023,-0.10293
-0.14734,0.078453,-1.4122,8.8064,-0.03879,-0.064446,-0.10904
-0.24075,0.17652,-1.216,8.8652,0.0009163,-0.047953,-0.10843
-0.32065,-0.27459,-1.216,9.1006,0.050091,-0.032987,-0.10568
-0.36392,-0.19613,-1.471,9.2575,0.10018,-0.022602,-0.099571
-0.38449,-0.23536,-1.726,9.0221,0.13195,-0.018326,-0.091324
-0.38455,0.098066,-1.5691,9.0417,0.13164,-0.019853,0.0054978
-0.36426,-0.17652,-1.6475,9.1006,0.096211,-0.025962,0.018021
-0.35117,0.35304,-1.6475,9.1594,0.04948,-0.023213,-0.047647
-0.32132,0.25497,-1.4318,9.1202,0.017104,-0.0097738,-0.047037
-0.27698,0.13729,-1.1768,9.434,0.0079412,0.0061087,-0.037568
-0.23349,0.27459,-1.0591,9.434,0.021075,0.026573,-0.030238
-0.19495,0.41188,-1.216,9.2183,0.037568,0.048564,-0.027794
-0.16675,0.35304,-1.3533,9.1202,0.039095,0.054978,-0.014661
-0.12729,0.2942,-1.0395,9.0417,-0.16738,-0.036346,0.027489
-0.10294,0.17652,-1.4318,9.2183,-0.1408,-0.023518,0.0015272
-0.063263,0.098066,-1.3729,9.0613,-0.13347,0.027489,-0.0097738
-0.025635,0.098066,-1.5298,9.179,-0.16952,0.051313,-0.010385
0.01413,0.098066,-1.5691,9.2575,-0.20525,0.0036652,0.019242
0.049438,-0.019613,-1.4318,9.179,-0.2248,-0.05284,0.035125
0.10205,0.078453,-1.2553,9.3359,-0.23243,-0.075442,0.031154
0.13016,0.098066,-1.1964,9.0417,-0.21228,-0.07758,0.0281
0.15674,-0.13729,-1.3141,9.0417,-0.23182,0.018021,-0.027794
0.18118,0.039227,-1.2553,8.9437,-0.23518,0.023824,-0.036346
0.20398,0.098066,-1.1768,9.1202,-0.20281,0.031154,0.020159
0.23184,0.019613,-1.471,9.0025,-0.13561,0.037874,0.0076358
0.26208,0.17652,-1.6279,8.9437,-0.055283,0.047342,0.0009163
0.2879,0.11768,-1.8829,9.0613,0.0094684,0.057116,-0.0058032
0.31638,0.078453,-1.9417,9.3359,0.046426,0.066584,-0.011606
0.33374,0.039227,-1.6867,9.179,0.045815,0.081856,-0.018326
0.32129,-0.13729,-1.2749,9.179,0.011606,0.086132,-0.017104
0.29077,0.098066,-1.3533,9.179,-0.034514,0.064446,-0.011606
0.25537,0.23536,-1.7456,9.0025,-0.087048,0.022907,-0.038179
0.18906,0.17652,-1.6279,9.0417,-0.14355,-0.0079412,-0.031765
0.13553,0.098066,-1.5102,9.0417,-0.18754,-0.015272,-0.02138
0.08606,-0.13729,-1.5298,9.179,-0.20281,-0.012217,-0.014966
0.031616,-0.05884,-1.5298,9.3163,-0.18784,-0.0039706,-0.023518
0.014221,-0.05884,-1.471,9.3163,-0.15058,0.0064141,-0.028405
-0.021881,0.039227,-1.5691,9.3359,-0.093768,0.020769,0.027184
-0.056732,0.17652,-1.5887,8.8456,-0.088881,0.031765,0.018937
-0.086609,-0.13729,-1.2553,9.1202,-0.10629,0.0281,-0.0094684
-0.10916,-0.27459,-1.5298,9.1202,-0.11973,0.010079,-0.0058032
-0.11908,0.35304,-1.9809,9.2575,-0.11637,-0.0094684,-0.013744
-0.1264,0.5884,-2.432,8.8652,-0.1011,-0.017715,-0.018937
-0.16769,0.66685,-2.1378,9.0417,-0.10904,-0.012828,-0.01405
-0.23114,0.56879,-1.8044,9.3752,-0.15027,-0.018326,0.0033598
-0.33301,0.92183,-1.8829,9.2771,-0.092546,0.17074,0.048869
-0.40802,0.90221,-2.7262,8.7279,-0.10812,0.2361,0.052229
-0.47614,0.90221,-3.0597,8.8652,-0.018326,0.24801,0.020769
-0.53772,0.74531,-2.7851,8.8064,-0.0033598,0.2138,0.014661
-0.603,0.2942,-1.824,8.6887,-0.027794,0.17226,0.01069
-0.64966,0.27459,-1.4318,8.4337,-0.044288,0.14508,0.0094684
-0.68393,0.50995,-1.216,8.4141,-0.055589,0.1347,0.029016
-0.69666,0.039227,-0.94144,8.6495,-0.067195,0.11301,0.043371
-0.68555,-0.21575,-0.62763,8.9633,0.22755,0.083994,-0.13897
-0.66623,-0.2942,-0.70608,9.179,0.24099,0.31124,-0.076053
-0.66815,-0.33343,-1.0199,8.4729,0.20586,0.38301,0.07025
-0.64594,-0.078453,-1.1768,8.4926,-0.078191,0.075747,0.11484
-0.62326,-0.82376,-1.3337,10.12,-0.39004,-0.34361,0.15302
-0.67493,-1.5298,-1.824,11.317,-0.66432,-0.6747,0.002138
-0.81912,-0.50995,-1.7456,9.179,-0.64416,-0.71319,-0.13989
-0.99606,0.35304,0.13729,5.1387,-0.42699,-0.55405,-0.20708
-0.99997,-3.6677,-0.11768,12.572,-0.6918,-0.42028,-0.086743
-0.99997,-1.8044,-2.6674,13.337,-0.77061,-0.43707,-0.054367
-0.99997,0.27459,-2.5105,7.9434,-0.61331,-0.53176,-0.05284
-0.99997,-0.68647,0.098066,8.3945,-0.32681,-0.58918,-0.034819
-0.99997,-0.82376,-0.019613,8.1787,-0.06689,-0.53878,-0.05681
-0.99997,0.098066,-1.6671,7.5903,0.055894,-0.40134,-0.11148
-0.99997,1.1376,-2.3536,8.0807,-0.32926,-0.24832,-0.14325
-0.99997,1.1964,-1.9809,8.8652,-0.45907,-0.13225,-0.12431
-0.99997,1.0395,-1.1964,9.3752,-0.28527,-0.062003,0.021075
-0.99997,0.90221,-1.4906,9.2575,-0.43952,-0.039706,0.023518
-0.99997,1.6083,-1.8044,8.0807,-0.49755,-0.065363,-0.023518
-0.96573,1.4318,-2.1182,7.2961,-0.4612,-0.12248,0.0088575
-0.7713,1.118,-2.1967,7.7865,-0.37507,-0.15974,0.028405
-0.54886,0.72569,-2.4517,9.2575,-0.26512,-0.11729,0.032376
-0.32581,0.41188,-2.5693,9.8066,0.021991,-0.020159,0.027489
-0.11523,0.27459,-2.1575,9.8263,-0.10751,0.081856,0.024129
0.071991,-0.27459,-1.8829,9.434,0.18662,0.15669,-0.0079412
0.24252,-0.45111,-2.0594,9.3555,0.18662,0.13653,-0.065973
0.35147,0.039227,-1.8829,9.1006,0.20311,0.10537,-0.012828
0.41046,-0.05884,-2.1182,9.2575,0.25229,0.064141,0.059865
0.44409,0.17652,-2.1575,9.1202,0.26634,0.07758,0.1014
0.46445,0.39227,-1.9613,9.3359,0.22571,0.14752,0.088881
0.47696,0.56879,-1.3141,9.1594,0.16952,0.24526,0.069944
0.46521,0.5884,-1.7848,8.7279,0.15913,0.3094,0.039706
0.43329,0.41188,-2.432,8.9633,0.62827,0.34147,-0.29535
0.41983,0.60801,-2.8832,9.0613,0.77122,0.22174,-0.20892
0.38806,0.74531,-2.5301,8.5514,0.60048,-0.062614,-0.13286
0.3175,0.56879,-1.8437,8.316,0.26756,-0.39737,-0.15485
0.21857,0.098066,-1.6279,8.2572,0.010079,-0.70524,-0.1912
0.10779,0.13729,-1.7848,9.179,-0.086437,-0.84177,-0.38301
0.019348,-0.35304,-1.6279,10.317,-0.22846,-0.81062,-0.46609
-0.062134,0.23536,-2.432,9.4928,-0.53451,-0.76144,-0.40714
-0.14032,1.4318,-2.3732,7.4334,-0.82833,-0.80237,-0.09499
-0.20352,0.86299,-2.4124,7.4334,-0.92638,-0.87568,-0.093768
-0.21893,-2.0986,-3.7069,12.415,-0.81459,-0.85338,-0.17593
-0.21469,-1.8437,-4.1384,15.475,-0.57605,-0.7477,-0.18448
-0.24835,0.66685,-2.432,10.905,-0.34453,-0.57513,-0.21472
-0.37918,0.66685,0.21575,8.2572,-0.19364,-0.38882,-0.20067
-0.63382,-0.078453,0.72569,7.0608,-0.1518,-0.23305,-0.15211
-0.92673,0.11768,-1.1572,6.6097,-0.1854,-0.13622,-0.11484
-0.99997,1.2749,-2.5105,7.0019,-0.2248,-0.10079,0.075747
-0.99997,1.3729,-2.5105,7.4531,-0.26634,-0.091324,0.037263
-0.99997,0.90221,-1.7848,8.2572,-0.33048,-0.083383,-0.06689
-0.99997,0.8826,-0.84337,8.4729,-0.42119,-0.07422,-0.019548
-0.99997,0.66685,-0.56879,8.2376,-0.50305,-0.053145,0.018326
-0.99966,0.98067,-0.8826,7.3746,-0.48869,-0.012828,0.060781
-0.86829,1.0395,-1.9809,7.4334,-0.32803,0.049786,0.098655
-0.73257,0.8826,-3.0989,8.316,-0.12034,0.12859,0.10415
-0.53314,0.90221,-3.5696,9.2575,-0.46242,-0.075136,-0.073304
-0.3717,1.1768,-3.3146,9.0221,-0.16341,0.0058032,-0.07758
-0.26047,0.74531,-2.2751,9.0221,0.093157,0.087048,-0.03146
-0.19562,0.039227,-2.0594,9.6301,0.19181,0.11729,-0.029322
-0.15143,0.098066,-1.7456,10.199,0.13989,0.095295,-0.018937
-0.1214,0.27459,-1.8044,10.258,0.0018326,0.059254,-0.021686
-0.085876,0.41188,-1.3337,10.12,-0.12248,0.014966,-0.043066
-0.064178,0.56879,-0.72569,9.8263,-0.17257,-0.013744,-0.064141
-0.050995,0.8826,-0.56879,9.0417,0.091019,-0.017715,0.021686
-0.050476,0.72569,-1.3533,8.8652,0.1518,0.0054978,0.027489
-0.024689,0.92183,-2.432,8.6887,0.12614,0.053756,-0.084605
0.011475,1.3337,-2.7459,8.7083,0.075136,0.093157,-0.078496
0.050323,0.98067,-1.9417,8.9437,0.026878,0.10476,-0.051313
0.077209,0.80415,-1.3533,8.9437,-0.018326,0.099571,-0.039095
0.10678,0.66685,-1.0591,8.8652,-0.13867,0.078191,-0.032987
0.1087,0.80415,-2.0398,8.6495,-0.03543,0.055589,-0.0009163
0.1456,0.86299,-3.2166,8.7083,0.061087,0.035736,0.029932
0.22183,0.98067,-3.2558,9.179,0.10996,0.025351,0.019853
0.30515,1.0395,-2.1967,9.6301,0.11942,0.031154,0.037874
0.35648,0.98067,-1.4318,9.2575,0.067501,0.040928,0.052534
0.3624,0.92183,-1.4906,8.7868,-0.016188,0.053145,0.062614
0.35751,0.86299,-2.0986,8.8456,-0.09163,0.05284,0.062614
0.3443,0.90221,-2.0986,9.179,-0.035125,0.033903,0.05681
0.31674,0.74531,-1.8044,9.1202,0.0015272,0.027489,0.047647
0.2702,0.49033,-1.6475,9.3163,0.090713,-0.018631,0.03207
0.23645,0.25497,-1.9417,9.0417,0.09896,0.011606,-0.0082467
0.19327,0.17652,-2.0986,8.8456,0.015272,0.015272,0.14661
0.15988,-0.05884,-2.0594,9.1594,-0.14416,0.0024435,0.15058
0.13895,-0.05884,-1.7848,9.0417,-0.32651,-0.027794,0.13653
0.10635,0.35304,-1.8437,8.8456,-0.48594,-0.06689,0.11759
0.063629,0.41188,-1.726,8.7083,-0.60537,-0.092241,0.09896
0.036346,0.56879,-1.9613,8.8456,-0.62797,-0.10385,0.07025
0.013855,0.49033,-2.4713,9.179,0.95509,0.39615,0.16341
0.0075989,0.39227,-2.9812,9.5713,1.2049,0.65729,0.1628
0.011047,0.80415,-2.0594,9.1202,1.4817,0.83261,-0.19303
-0.0059204,0.80415,-1.7456,8.6299,1.4532,0.80817,-0.15669
-0.052246,1.0395,-2.0398,8.5514,1.0574,0.62827,-0.055283
-0.08606,1.118,-2.3732,8.2376,0.33506,0.28375,-0.04948
-0.068481,0.70608,-1.5691,8.8652,-0.4273,-0.14539,-0.025045
-0.091858,0.23536,-1.3533,9.3555,-0.99785,-0.52901,0.11362
-0.13086,0.60801,-1.5102,8.4337,-1.2932,-0.77274,0.21747
-0.13641,0.8826,-1.6867,7.7669,-1.4056,-0.85368,0.22174
-0.10666,0.49033,-1.6475,9.0417,-1.3412,-0.8543,0.14294
-0.067535,-0.54917,-1.8437,10.591,-1.0742,-0.81489,0.12156
-0.037994,-0.68647,-1.824,8.3749,-0.65393,-0.71716,0.10507
-0.021088,-0.35304,-1.8829,8.7083,-0.26084,-0.5339,0.10476
-0.047729,-0.49033,-0.84337,12.317,-0.092241,-0.31246,0.11454
-0.1347,0.64724,0.72569,10.925,-0.18173,-0.1854,0.16127
-0.30997,0.41188,1.9417,8.1787,0.28191,0.34056,-0.19059
-0.53836,-0.19613,0.54917,7.2373,0.18967,0.25809,-0.24099
-0.79126,0.70608,-4.3934,7.9238,0.2022,0.19242,-0.026878
-0.94498,2.7655,-6.2174,8.0022,0.43433,0.20403,-0.020769
-0.97244,2.4517,-3.7658,7.1589,0.73304,0.24374,0.034514
-0.9957,-0.23536,-0.62763,9.9636,1.0046,0.33262,0.0058032
-0.99997,-1.3925,1.4514,13.259,0.99724,0.32284,-0.16157
-0.99997,-1.4514,0.68647,13.612,0.57605,0.16005,-0.15638
-0.99997,0.039227,-0.39227,9.6694,-0.2306,0.017104,-0.1741
-0.99997,0.80415,-1.4318,7.2373,-0.57177,-0.054978,-0.21441
-0.99997,0.70608,-2.9028,7.2373,-0.90164,-0.082161,-0.13775
-0.99997,0.80415,-2.4124,7.963,-1.1707,-0.15852,-0.034514
-0.99997,-0.019613,-1.2553,9.1202,-1.1359,-0.30604,0.067806
-0.99997,0.17652,-1.5102,8.8652,-0.64355,-0.3934,0.13195
-0.99997,0.82376,-1.8437,8.6887,0.069028,-0.21747,0.082772
-0.96857,2.079,-1.9613,7.8649,0.64141,0.093768,-0.056505
-0.741,2.3732,-1.9613,7.6492,-0.065363,0.081551,0.032681
-0.47778,1.1964,-1.3533,8.316,-0.07086,0.028711,0.038179
-0.25916,0.098066,-0.72569,10.12,-0.051618,-0.028711,0.043371
-0.13214,-0.05884,-0.49033,10.768,-0.021686,-0.058643,0.044288
-0.054047,0.49033,-0.90221,10.199,-0.016493,-0.049175,0.029627
-0.009552,0.66685,-1.471,9.5713,-0.047647,-0.014355,0.011912
0.040985,0.41188,-1.3729,9.434,-0.019853,0.0048869,0.011606
0.11661,0.66685,-1.5102,9.4144,-0.041539,0.00061087,0.025045
0.25797,0.82376,-1.3337,9.5125,-0.12553,-0.0079412,0.089797
0.44009,0.66685,-1.6475,9.0417,-0.12462,-0.012523,0.067195
0.60815,0.56879,-2.1182,8.0807,-0.12095,-0.014966,0.051007
0.78394,-0.05884,-2.4713,8.4141,-0.13378,-0.0024435,0.06353
0.91586,-0.17652,-1.6475,9.3359,-0.15424,0.018937,0.064752
0.9957,-0.50995,-1.824,9.3752,-0.17807,0.025045,0.075442
1,-0.17652,-2.3144,8.8652,-0.089797,0.015577,0.090103
1,0.11768,-2.1575,8.5514,-0.11515,-0.013744,0.096211
1,0.49033,-1.824,8.9044,-0.21838,-0.14508,-0.09896
0.97101,0.49033,-1.118,9.0221,-0.2697,-0.17318,-0.064446
0.87997,0.45111,-0.64724,8.9437,-0.23732,-0.16341,-0.075747
0.77087,0.35304,-0.62763,9.0613,-0.16005,-0.13622,-0.13867
0.69025,0.56879,-1.118,8.8652,-0.081856,-0.11301,-0.16218
0.62457,0.11768,-1.3337,9.0613,-0.011912,-0.08827,-0.15852
0.58804,0.27459,-1.0983,9.4928,0.057727,-0.055894,-0.1518
0.5697,0.17652,-1.1768,9.8459,0.12095,-0.021075,-0.13317
0.55295,0.45111,-1.5102,9.6694,-0.041844,0.0042761,-0.010079
0.53738,0.74531,-1.5102,9.2575,-0.14203,0.012828,0.015882
0.5137,0.80415,-1.3337,9.1986,-0.18265,0.015577,-0.047953
0.49747,0.64724,-1.3141,9.1594,-0.15211,0.038179,-0.047342
0.46866,0.70608,-1.5102,9.0417,-0.09163,0.065973,-0.055589
0.44431,0.70608,-1.6279,9.0613,-0.036957,0.080023,-0.060476
0.42523,0.27459,-1.726,9.2575,0.12828,0.096517,-0.044288
0.41257,-0.37265,-2.5105,8.9437,0.062919,0.10415,-0.023518
0.41769,-0.23536,-2.0594,9.1986,-0.14997,-0.0048869,-0.0058032
0.43723,-0.33343,-1.1768,9.9636,-0.15027,0.041539,-0.058643
0.4566,0.078453,-0.56879,9.7478,-0.23763,0.10782,-0.057116
0.43179,0.66685,-1.1572,9.0417,-0.40867,0.15608,-0.065057
0.40552,1.0591,-1.7456,8.4926,-0.55497,0.15577,-0.062919
0.36731,1.0199,-2.6086,8.0022,-0.62156,0.11973,-0.050091
0.33643,1.1768,-2.3732,8.4141,-0.53512,0.086743,-0.016799
0.3269,0.66685,-1.8437,9.1594,-0.28222,0.079107,0.016188
0.32489,0.8826,-1.8437,8.8848,0.28222,0.2926,-0.030543
0.32065,1.1768,-1.9809,8.1787,0.30452,0.30635,-0.09163
0.3118,1.2356,-1.9809,8.0022,0.27336,0.30207,-0.068722
0.30975,1.216,-2.0594,8.2572,0.18051,0.2868,-0.053756
0.31345,0.8826,-2.1575,8.7475,0.020159,0.2529,-0.026267
0.30084,0.70608,-1.8044,9.179,-0.1631,0.19609,0.0018326
0.27707,0.41188,-0.74531,9.6497,-0.28253,0.14203,0.024129
0.23819,0.098066,-0.49033,9.5713,-0.25626,0.11209,0.019853
0.18338,0.039227,-1.6671,9.5321,0.14508,0.11942,-0.25565
0.16187,0.35304,-2.6282,9.787,0.4609,0.135,-0.25809
0.20325,0.23536,-2.3732,10.768,0.72815,0.14722,-0.099876
0.19333,-0.039227,-1.5691,11.866,0.83261,0.12675,-0.091935
0.10849,0.80415,-0.72569,11.67,0.71349,0.03207,-0.1292
-0.032349,1.1964,-0.23536,9.5713,0.42913,-0.12126,-0.12767
-0.24329,1.2749,-0.21575,8.3945,0.12859,-0.26695,-0.15333
-0.44418,1.118,-0.8826,7.6884,-0.099571,-0.3543,-0.21838
-0.59396,0.76492,-1.1572,7.7865,-0.25962,-0.37965,-0.041539
-0.68829,0.50995,-1.4906,8.2376,-0.33842,-0.36927,-0.05284
-0.72531,0.45111,-1.7456,8.9437,-0.34544,-0.35277,-0.22174
-0.68848,0.90221,-1.6475,8.7083,-0.29658,-0.31215,-0.1741
-0.59668,0.54917,-0.94144,8.5514,-0.21258,-0.22846,-0.14019
-0.49591,-0.27459,-1.4906,7.8453,-0.18021,-0.14813,-0.11332
-0.37439,-0.21575,-2.6086,7.9434,-0.17104,-0.096211,-0.059559
-0.23883,-0.078453,-2.2751,9.4732,-0.16524,-0.04948,-0.025656
-0.086609,0.078453,-1.5102,9.9636,0.28802,0.20128,0.083689
0.048096,-0.56879,-1.3533,9.6694,0.42974,0.31734,0.020464
0.20285,-0.27459,-1.216,9.5713,0.77641,0.47586,-0.051924
0.33817,0.23536,-1.6475,9.4144,1.1081,0.6072,-0.12584
0.43112,0.98067,-1.5691,9.0025,1.1594,0.58765,-0.12065
0.50833,0.2942,-1.824,8.8064,0.87873,0.41997,-0.044899
0.56726,-0.66685,-3.5108,9.2183,0.41203,0.18784,0.018937
0.6181,-1.0787,-3.6873,9.8066,-0.11484,-0.044593,0.076969
0.61694,0.35304,-2.5105,9.5713,-0.57971,-0.20586,-0.25168
0.57767,1.7064,-1.1768,9.0221,-0.89034,-0.2755,-0.19975
0.47104,2.6086,-0.43149,8.218,-0.99663,-0.29841,-0.063225
0.32736,3.1774,-0.23536,6.8647,-0.88484,-0.27825,-0.135
0.1821,1.5495,-2.0398,7.3942,-0.55894,-0.16127,-0.20831
0.035645,0.8826,-1.2553,9.9636,-0.19426,0.017715,-0.27
-0.12088,0.70608,-0.15691,11.984,0.093157,0.20128,-0.28191
-0.30014,0.90221,-1.0199,11.69,0.26664,0.35705,-0.27947
-0.4689,1.3533,-1.8044,9.8851,0.62675,0.43158,0.32223
-0.63205,1.6083,-2.5105,8.7279,0.59895,0.44471,0.30268
-0.74979,2.2359,-3.1381,7.2765,0.50244,0.44532,-0.12034
-0.80865,2.5497,-2.7655,6.9235,0.44685,0.42547,-0.066279
-0.79282,1.2945,-1.5102,8.1591,0.38912,0.40897,-0.06017
-0.77164,-0.13729,-1.3141,9.1202,0.36469,0.45112,-0.016493
-0.74823,0.098066,-1.1768,9.1006,0.36499,0.57482,0.11057
-0.79138,-0.27459,-0.41188,8.316,0.50274,0.6524,0.23518
-0.91125,-2.2359,0.86299,7.1589,-0.56047,0.39615,-0.018937
-0.99997,-4.5307,-1.1768,13.023,-0.49724,-0.035736,-0.029322
-0.99997,-0.98067,-2.5105,10.532,-0.36835,-0.32956,0.18387
-0.99997,-0.17652,-2.1575,8.2572,-0.30085,-0.36652,0.12339
-0.99997,0.039227,-1.0199,8.2376,-0.23793,-0.28527,0.064752
-0.99997,0.90221,-1.118,8.4926,-0.19273,-0.21105,0.053451
-0.99997,1.6867,-1.6475,8.9437,0.11576,-0.16157,0.029016
-0.99997,1.8437,-1.6475,8.6495,-0.32712,-0.11881,-0.0073304
-0.89404,1.2356,-1.824,9.3752,-0.029932,-0.07086,-0.23488
-0.68771,1.3533,-2.1967,9.179,0.17287,-0.10629,-0.24862
-0.51303,1.216,-0.86299,8.9044,0.17165,-0.13683,-0.073609
-0.38959,0.098066,-0.80415,9.1986,-0.1909,-0.28802,-0.059559
-0.28491,-0.019613,-1.4906,9.5713,-0.86101,-0.56536,0.0064141
-0.17093,-0.039227,-2.0986,10.454,-1.4832,-0.86376,0.022602
-0.051575,-0.21575,-1.471,10.375,-1.7031,-1.0244,-0.017104
0.032074,-0.039227,-0.78453,8.9437,-1.4465,-0.956,-0.12065
-0.010986,0.35304,-0.74531,7.0019,-0.30788,-0.71319,-0.075747
-0.092102,-0.90221,-1.5691,8.316,0.21594,-0.4383,-0.14142
-0.16699,-1.7064,-1.8829,11.454,0.35339,-0.21625,-0.14111
-0.24695,-0.5884,-1.2553,11.552,0.15363,-0.12339,-0.017104
-0.32626,-0.05884,-0.84337,9.3555,-0.19548,-0.15333,0.070555
-0.40421,0.2942,-0.05884,7.3942,-0.46304,-0.23366,0.12737
-0.45145,-0.54917,-0.72569,8.1787,-0.50183,-0.28619,0.10324
-0.39655,-1.3337,-2.7851,11.376,-0.30085,-0.24923,0.018326
-0.13327,-1.0787,-1.1572,13.278,0.040623,-0.13256,0.22541
0.198,-0.82376,-0.019613,11.062,0.3598,0.032376,0.21319
0.43591,0.90221,-2.589,6.8647,0.53634,0.19334,-0.1408
0.60217,1.4906,-3.3931,5.7271,0.50244,0.28558,-0.087965
0.71021,1.1768,-1.5102,7.5511,0.26237,0.29688,-0.016493
0.77466,0.74531,-0.86299,8.8848,-0.067501,0.22297,0.07086
0.80334,1.0395,-2.2555,8.5318,-0.35736,0.08094,0.15547
0.83911,1.4318,-3.0793,7.7865,-0.50641,-0.071777,0.20861
0.86844,1.6475,-1.824,7.8649,0.43035,-0.17807,-0.033292
0.87793,1.3337,0.039227,8.4337,-0.5174,-0.20464,-0.02474
0.87381,0.66685,0.62763,9.8066,-0.44685,-0.16005,0.17226
0.86343,0.019613,-0.72569,10.689,-0.33567,-0.094379,0.12614
0.86707,0.35304,-2.6086,9.7478,-0.24251,-0.044899,0.09499
0.89459,1.2356,-2.7459,8.8652,-0.15821,-0.0082467,0.064141
0.94388,1.1768,-2.7851,8.4337,-0.016493,0.0562,0.025656
0.96933,1.3925,-3.0597,8.5514,0.20678,0.14722,-0.012217
1,1.118,-2.2751,8.9437,-0.059254,0.024129,-0.0045815
1,0.90221,-1.5102,9.3555,-0.040928,0.028711,0.014355
1,0.41188,-1.6475,9.0613,-0.026878,0.026878,-0.0009163
1,0.27459,-2.1967,9.3555,-0.021686,0.022907,-0.010079
0.9743,0.66685,-2.3732,9.5125,-0.0045815,0.019853,-0.013744
0.93869,0.80415,-2.0594,8.8652,0.021991,0.019548,-0.009163
0.89459,0.56879,-1.7456,8.7083,0.029322,0.017715,-0.0048869
0.85892,0.49033,-1.5102,8.7083,0.00061087,0.0018326,-0.007025
0.83044,0.76492,-1.6475,9.0025,-0.15211,-0.024129,-0.011606
0.79251,0.8826,-1.9809,8.8064,-0.14905,-0.041233,-0.013134
0.77917,0.8826,-1.8829,8.7083,-0.12217,-0.065363,0.030543
0.76477,1.0395,-1.5691,8.8064,-0.082772,-0.094073,0.034819
0.75513,0.74531,-1.6279,8.8456,-0.040623,-0.11912,0.029016
0.75171,0.49033,-2.2751,9.1594,-0.010385,-0.13042,0.021075
0.75574,0.70608,-2.8243,9.5125,-0.052229,-0.12553,0.0088575
0.77701,0.76492,-2.3732,9.4732,-0.1127,-0.10873,-0.0073304
0.78491,1.0395,-1.6475,8.9437,-0.056505,-0.072082,-0.057727
0.75931,0.98067,-1.2553,8.4926,-0.086437,-0.025656,-0.059254
0.72049,0.70608,-1.4906,8.8652,-0.081856,0.025962,-0.014355
0.67087,0.43149,-1.824,9.689,-0.017104,0.083994,-0.020464
0.64487,0.56879,-2.3144,9.4928,0.05681,0.13439,-0.034819
0.61768,0.49033,-1.9809,9.0221,0.091324,0.16005,-0.045815
0.60129,0.54917,-1.5298,8.8456,-0.0012217,0.16127,-0.048564
0.56006,0.5884,-1.5691,8.6495,-0.020769,0.13408,-0.051007
0.53668,0.35304,-1.9809,9.179,-0.20525,-0.012217,-0.020159
0.5206,0.66685,-2.1967,9.0417,-0.093157,0.0033598,-0.0067195
0.5202,1.1964,-2.2555,8.8064,0.019853,0.01069,-0.010079
0.51535,1.3337,-2.0006,8.2572,0.087048,0.0088575,-0.026878
0.50195,1.4906,-1.9809,8.1003,0.10324,0.0036652,-0.021991
0.49948,1.1964,-2.2555,8.5318,0.07086,0.0012217,-0.0058032
0.50409,0.64724,-2.4517,9.5125,0.0058032,0.0082467,-0.002138
0.52759,0.2942,-2.1967,10.003,-0.045509,0.012523,-0.012523
0.55801,0.70608,-1.7848,9.6497,-0.022602,0.022602,0.08491
0.56876,0.49033,-2.1967,9.1202,0.08491,0.051007,0.073304
0.57681,0.98067,-2.432,8.6299,0.17776,0.091324,0.016799
0.56158,0.27459,-1.824,9.0613,0.2135,0.13347,0.026878
0.5311,0.23536,-1.3533,9.4732,0.18357,0.16249,0.039095
0.49097,0.74531,-1.5102,8.9437,0.11912,0.16493,0.06689
0.45554,1.1768,-1.8829,8.5514,0.047037,0.14875,0.092546
0.45773,0.92183,-2.0006,8.316,-0.0048869,0.12065,0.091324
0.4682,0.98067,-1.9809,8.4729,-0.026573,0.10018,0.002138
0.47662,0.66685,-1.824,8.9437,-0.039401,0.09163,0.022297
0.45734,0.80415,-1.9613,9.0417,-0.045204,0.081245,0.060781
0.45694,0.80415,-2.3732,9.179,-0.025045,0.087048,0.055894
0.43576,0.98067,-2.4713,9.0417,0.018326,0.11759,0.027184
0.4129,0.8826,-2.3732,9.0417,0.076053,0.15211,-0.0030543
0.35919,0.66685,-2.1575,8.6887,0.11759,0.18815,-0.0085521
0.2767,0.86299,-2.1378,8.8848,0.10201,0.21441,-0.0045815
0.1666,0.8826,-2.2555,8.9437,-0.053756,-0.020159,-0.026573
0.047272,1.1376,-1.9809,8.8652,0.011606,0.019548,-0.04215
-0.083344,0.80415,-1.6867,9.3555,0.03207,0.048564,-0.025962
-0.19537,0.90221,-1.4906,9.3555,0.011301,0.046731,-0.027794
-0.29102,1.0395,-1.5298,8.9437,-0.0058032,0.032681,-0.04215
-0.36926,1.0395,-2.0594,8.4337,0.0036652,0.025045,-0.044593
-0.41364,1.0591,-2.0398,8.8064,0.017715,0.026267,-0.020769
-0.45139,1.0199,-1.6475,9.2183,0.03146,0.03146,-0.007025
-0.49429,0.70608,-1.6475,9.2183,0.082772,0.049175,-0.0082467
-0.49573,0.70608,-1.6475,9.0025,0.16463,0.085827,0.0051924
-0.52295,0.41188,-2.1378,9.0025,0.20953,0.11301,-0.03543
-0.53867,0.72569,-2.4517,8.8064,0.18754,0.11057,-0.015577
-0.53079,0.56879,-2.3732,8.8652,0.1182,0.083994,-0.0082467
-0.50864,0.49033,-1.5691,8.9437,0.027184,0.050396,-0.0076358
-0.49448,0.23536,-1.5102,9.3359,-0.054672,0.02474,-0.0073304
-0.47653,0.35304,-2.3732,9.3359,-0.097128,0.012828,-0.011606
-0.42502,0.41188,-2.6282,9.1594,-0.57269,-0.27611,0.028711
-0.35553,0.098066,-2.3732,9.3163,-0.36316,-0.31918,0.05681
-0.30374,0.27459,-1.9809,9.3752,-0.11057,-0.26237,-0.092546
-0.28503,0.41188,-1.7456,9.5321,0.13744,-0.19212,-0.17349
-0.29694,0.41188,-1.5298,9.5125,0.23732,-0.11484,-0.21991
-0.34744,0.66685,-1.7064,9.1202,0.1347,-0.018937,-0.22541
-0.42328,0.5884,-1.6475,8.8652,-0.63897,0.025962,-0.15791
-0.49036,0.92183,-1.3337,8.8456,-0.69364,-0.0015272,-0.042455
-0.54358,1.0787,-1.0199,8.7083,0.36896,0.19609,-0.17226
-0.58438,0.90221,-1.4318,8.4337,0.40348,0.20006,-0.16616
-0.5806,1.0395,-2.0594,8.3945,0.2251,0.12798,0.095906
-0.54858,1.0395,-1.0591,9.9832,-0.04215,0.023213,0.11179
-0.51761,1.118,-1.118,10.67,-0.25595,-0.023213,0.062308
-0.49985,2.2948,-2.4713,9.5713,-0.3488,0.012828,-0.018631
-0.46631,2.4517,-3.4127,7.7865,-0.27092,0.10293,-0.096211
-0.42352,1.3729,-3.3146,8.0807,-0.010079,0.22571,-0.15272
-0.37323,1.0395,-2.589,8.9437,0.85979,0.33598,-0.0039706
-0.31989,0.74531,-0.96105,9.2575,0.83047,0.42333,-0.026267
-0.29837,-0.078453,-0.17652,9.3555,0.63683,0.4777,-0.16096
-0.31967,-0.39227,-1.0199,9.6694,0.35308,0.47678,-0.15669
-0.36691,-0.05884,-2.2163,9.1006,0.093462,0.42486,-0.13989
-0.48911,-0.05884,-1.5691,6.1782,-0.097433,0.35186,-0.10812
-0.71558,-2.2555,-0.31381,8.7083,0.34208,0.2529,-0.072693
-0.93756,-4.4326,-0.72569,12.141,0.67745,0.14997,-0.03146
-0.99997,-2.0986,-2.2555,9.6301,0.12034,0.092546,0.20036
-0.99997,-1.1768,-2.9028,7.0608,0.48991,0.085827,0.049175
-0.99997,-0.70608,-1.824,7.9434,0.77427,0.16982,-0.032376
-0.99997,-0.039227,0.52956,9.4928,0.62461,0.38912,0.040317
-0.99997,0.92183,0.41188,9.0613,0.18112,0.613,0.16646
-0.99997,1.4318,-0.25497,8.7279,-0.31887,0.54153,0.27031
-0.99997,0.33343,-1.5887,11.042,-0.19578,0.24771,0.2926
-0.99997,0.66685,-1.3141,11.513,-0.12309,-0.083078,0.25901
-0.99997,0.27459,-0.43149,11.709,-0.42028,0.020464,0.0036652
-0.99997,0.25497,-0.8826,10.768,-0.30024,-0.0039706,-0.086437
-0.99997,0.17652,-1.0199,9.179,-0.10354,0.078802,-0.039095
-0.99997,0.41188,-1.8044,8.1787,-0.0094684,0.20281,-0.036652
-0.99997,0.70608,-2.9224,7.9238,-0.10568,0.27581,0.014966
-0.99997,1.1964,-2.687,8.0218,-0.33048,0.22327,0.1011
-0.99997,1.3729,-1.6279,8.218,-0.54214,0.058338,0.13867
-0.99997,1.824,-0.43149,6.2959,-0.60812,-0.10446,0.095906
-0.99997,0.41188,-0.019613,6.7666,-0.0027489,-0.28253,0.17074
-0.99997,-2.1575,-1.3729,12.023,0.33414,-0.11729,0.13347
-0.99997,-0.82376,-1.6475,13.082,0.52657,-0.0024435,-0.0048869
-0.99997,0.098066,-1.5298,10.375,0.51618,0.0562,0.082161
-0.99997,0.92183,-1.5102,8.4337,0.32956,0.093768,0.1518
-0.99997,1.2356,-2.432,8.7671,0.10843,0.13775,0.17898
-0.99997,1.824,-2.8243,7.9238,0.013439,0.25412,0.18754
-0.99997,1.4906,-1.3141,8.9633,0.1631,0.42761,0.17287
-0.99997,1.0395,-0.05884,8.6887,0.2474,0.3824,0.029932
-0.99997,1.3925,0.56879,6.6097,0.20159,0.12614,-0.059865
-0.99997,-0.98067,-0.49033,8.4729,0.20861,-0.088881,0.0073304
-0.99997,-2.7459,-3.2362,13.553,0.17685,-0.13622,-0.061697
-0.99997,0.35304,-1.824,11.631,-0.1292,-0.092241,-0.05681
-0.99997,0.2942,0.68647,9.4732,-0.70311,-0.14233,0.0094684
-0.99997,0.039227,-0.05884,7.6884,-1.1362,-0.33017,0.096211
-0.99997,0.41188,-2.687,7.6884,-1.1469,-0.49205,0.097738
-0.98688,1.2356,-3.0597,8.8064,-0.81153,-0.50335,0.025962
-0.7724,1.2749,-1.3533,9.1006,-0.34422,-0.38485,-0.0073304
-0.46637,0.82376,-0.019613,8.7083,0.048258,-0.19792,-0.14997
-0.18945,0.74531,-0.72569,8.6299,0.27428,-0.020464,-0.19761
0.038849,0.72569,-1.9613,8.9437,0.31429,0.09499,-0.16371
0.21371,0.60801,-1.118,9.434,0.18112,0.14294,-0.072693
0.3313,-0.96105,-0.72569,10.16,-0.076664,0.13806,0.0024435
0.43564,-0.70608,-1.9809,9.8066,-0.33598,0.097433,0.030238
0.54602,0.2942,-3.0793,8.7083,0.13744,-0.043982,-0.13042
0.70587,0.80415,-2.7262,8.5514,0.039095,-0.058032,-0.14355
0.85773,0.66685,-1.0199,9.5713,-0.076053,-0.058948,-0.044288
0.98416,0.49033,-0.72569,9.7478,-0.18784,-0.065057,-0.036957
1,0.66685,-1.2553,9.2575,-0.29077,-0.072388,-0.034208
1,0.98067,-1.3337,9.0417,-0.37629,-0.086132,-0.043982
1,1.0395,-1.3141,8.6887,-0.41539,-0.096517,-0.064446
1,0.70608,-1.1768,8.4926,-0.37538,-0.089492,-0.099876
1,0.11768,-1.4318,9.1594,0.075136,-0.054062,-0.17013
1,-0.33343,-2.3536,9.5125,0.14233,-0.0036652,-0.18173
1,-0.13729,-1.8829,9.9636,0.13592,0.04215,-0.13622
1,-0.13729,-1.0591,9.8851,0.14386,0.075747,-0.1292
1,0.098066,-0.94144,9.7282,0.1967,0.093768,-0.13042
1,0.35304,-0.94144,9.1006,0.2248,0.12187,-0.13714
1,0.98067,-1.2553,9.0417,-0.25748,0.15516,-0.15211
1,1.5298,-1.5691,9.179,-0.084299,0.15944,-0.16432
1,2.2948,-2.0986,9.689,-0.028405,0.12828,-0.012217
1,2.4909,-2.4124,9.434,-0.10568,0.082161,0.021991
1,2.1378,-2.1967,8.8064,-0.12889,0.065057,-0.1909
1,1.9221,-1.8044,8.4926,-0.050702,0.079412,-0.1912
1,1.1964,-1.5102,8.3749,0.088881,0.11729,-0.18326
1,0.35304,-1.2553,9.3163,0.19028,0.19914,-0.16646
0.94507,-0.39227,-1.1768,9.5713,0.1741,0.27825,-0.12248
0.83356,-0.19613,-0.86299,8.9044,0.076664,0.31001,-0.055894
0.7099,-0.23536,-0.56879,8.0611,-0.18143,0.27489,0.073609
0.58011,-1.5298,-0.25497,8.1787,-0.35705,0.17104,0.099266
0.49698,-2.5301,-0.098066,9.2575,-0.37538,0.034819,0.030849
0.39331,-2.079,-0.31381,10.768,-0.30788,-0.093768,0.0058032
0.31607,-1.118,-0.86299,9.8459,-0.27,-0.15119,-0.039401
0.24258,-0.05884,-1.118,9.3359,-0.1631,-0.12278,-0.045815
0.10791,0.90221,-1.2553,8.0022,0.18265,-0.078802,0.029932
-0.081146,0.50995,-1.216,7.963,0.036041,-0.027489,0.076664
-0.29541,-1.8633,-0.39227,12.886,-0.065668,0.066279,0.050091
-0.50803,-0.80415,-1.7848,10.748,0.0045815,0.082161,0.043677
-0.67996,0.70608,-2.7655,7.3746,0.09499,0.11209,0.021991
-0.79489,0.33343,-2.6086,7.6296,0.17898,0.14355,0.013439
-0.85452,0.098066,-2.0006,7.9434,0.22724,0.16554,0.010996
-0.81595,0.039227,-1.118,8.8456,0.23915,0.15608,0.021686
-0.71411,-0.019613,-0.94144,10.827,0.21044,0.11942,0.043066
-0.59,0.82376,-1.5102,9.4732,0.13408,0.079718,0.055589
-0.43024,1.216,-0.72569,8.4141,-0.0082467,0.048258,0.019853
-0.3042,0.76492,-0.80415,7.708,-0.018937,0.032376,0.034208
-0.20441,0.82376,-1.5691,7.4334,0.0067195,0.021075,0.040623
-0.080078,0.86299,-2.1182,8.3945,0.082467,0.014355,0.047953
0.059235,1.0395,-2.0398,9.1594,0.14752,0.045509,0.03543
0.17285,0.49033,-1.2749,9.9439,0.18051,0.11179,0.0097738
0.2713,0.70608,-1.216,10.199,0.23763,0.19853,0.013744
0.30997,0.90221,-1.5298,9.6694,0.3317,0.29047,0.011912
0.35333,1.1964,-2.0986,9.1594,0.42699,0.36499,-0.10476
0.39587,1.216,-2.3732,9.2771,0.4383,0.40959,-0.069333
0.42111,0.5884,-1.5298,9.6301,0.36011,0.39034,0.041539
0.43835,0.27459,-1.0199,9.6301,0.29138,0.30299,0.05284
0.43683,0.56879,-1.1572,9.2183,0.39279,0.20067,0.029016
0.42197,0.27459,-1.1768,9.1594,0.73793,0.12309,-0.030849
0.40543,0.5884,-1.3337,8.9633,1.0333,0.10934,-0.086132
0.37729,0.98067,-1.6279,8.4926,0.84147,0.0073304,-0.1124
0.33231,0.5884,-1.1768,7.3942,0.38393,0.25687,0.030238
0.26605,0.35304,-0.31381,7.8649,0.60048,0.35491,0.029627
0.18738,-0.66685,-1.1964,10.572,0.64446,0.39951,0.062919
0.11087,-0.76492,-3.3146,10.474,0.54764,0.36255,0.065057
0.071594,-1.7456,-3.0989,11.944,0.37904,0.28497,0.079718
0.062103,-1.5495,-0.11768,15.141,0.18357,0.19884,0.076358
-0.018158,0.90221,0.078453,10.572,0.0097738,0.12767,0.055589
-0.12741,1.824,-0.94144,7.0019,-0.076358,0.082467,0.037263
-0.25458,0.66685,-0.43149,6.6685,0.098044,0.054978,-0.010385
-0.36871,-0.33343,-0.098066,8.316,0.095295,0.044899,0.0048869
-0.43365,0.39227,-0.72569,8.316,0.092241,0.030238,-0.0079412
-0.44058,1.0591,-1.2553,7.6884,0.091935,0.015882,-0.016493
-0.35843,0.98067,-1.2553,7.7669,0.085216,0.0018326,-0.016493
-0.21906,0.66685,-1.0395,8.0611,0.053451,0.0039706,-0.018631
-0.062836,0.25497,0.078453,8.3945,0.12798,0.022907,-0.030238
0.085419,0.078453,0.82376,9.1006,0.1066,0.048564,-0.029932
0.25372,0.078453,0.13729,9.4732,-0.01741,0.048258,-0.030849
0.41672,0.11768,-1.4318,9.5321,0.039401,0.034208,-0.028711
0.59857,0.54917,-2.7459,9.1594,0.090713,0.042455,-0.0076358
0.73306,0.64724,-2.7459,9.2771,0.11301,0.064446,-0.022297
0.83759,0.76492,-2.7459,9.5125,0.13073,0.081551,-0.019548
0.9071,1.2356,-2.3732,9.787,0.13958,0.097738,-0.020159
0.93118,0.90221,-1.9809,10.297,-0.0061087,0.12401,-0.029322
0.92966,0.80415,-2.0006,10.003,-0.039095,0.15608,-0.034514
0.92761,1.3533,-2.2948,9.3163,0.11148,0.16829,-0.030238
0.89215,1.6671,-2.1967,8.7475,0.054672,0.14264,-0.047342
0.8208,1.5102,-2.0594,8.8652,0.0079412,0.10568,-0.058032
0.72968,1.0395,-1.8829,9.1594,-0.0054978,0.087354,-0.044593
0.63235,0.8826,-1.8829,9.1202,0.0015272,0.068722,-0.036346
0.52429,1.0199,-2.0986,9.0417,0.014355,0.043066,-0.030849
0.43378,1.0591,-1.8829,8.8064,0.025351,0.02474,-0.015577
0.33722,1.0787,-1.7456,8.6887,0.028711,0.013439,-0.0042761
0.2467,0.8826,-2.1182,8.2572,-0.13897,-0.077885,0.018631
0.1582,0.82376,-2.2555,8.5514,-0.20769,-0.13439,0.0088575
0.093628,0.76492,-2.432,8.7083,-0.20892,-0.16432,0.080634
0.020142,0.56879,-2.2751,8.7083,-0.1405,-0.15455,0.049786
-0.070465,0.56879,-1.7848,8.8652,-0.035736,-0.10293,0.041233
-0.1391,0.50995,-1.8437,9.0025,0.06017,-0.036346,0.040928
-0.19699,0.49033,-1.9613,9.1594,0.12156,0.015882,0.029322
-0.24448,0.41188,-1.9809,9.179,0.14111,0.047647,0.020159
-0.26108,0.60801,-1.6671,9.3359,-0.01741,0.0033598,0.21655
-0.26013,0.23536,-1.9025,9.5125,0.13714,0.079412,0.19395
-0.25644,0.56879,-1.5691,9.179,0.21044,0.15638,0.16799
-0.25519,0.72569,-1.4318,9.1594,0.1631,0.19059,0.21961
-0.25873,0.5884,-1.5298,9.0613,0.042761,0.15974,0.26176
-0.26447,0.90221,-1.824,8.9437,-0.076664,0.091935,0.26878
-0.26157,1.3337,-1.8044,9.0221,-0.19823,0.047037,0.24129
-0.26923,1.4318,-1.7848,9.2575,-0.32162,0.031154,0.22297
-0.28079,1.3337,-1.9025,9.1202,-0.38362,0.040928,0.087965
-0.2785,1.1964,-2.2163,9.0025,-0.18692,0.062614,0.059865
-0.30463,1.2945,-2.1967,9.1202,0.22388,0.19884,0.14844
-0.33795,1.1964,-1.9025,9.3752,0.48778,0.39279,0.091019
-0.37683,0.76492,-1.726,9.3163,0.56169,0.45143,0.092852
-0.42407,0.41188,-1.8829,8.9437,0.37874,0.38637,0.098655
-0.48624,0.2942,-1.8437,9.2575,-0.014661,0.19823,0.085827
-0.52948,-0.37265,-1.2553,9.6694,-0.39554,-0.023518,0.10873
-0.58731,-1.5887,-1.118,9.8066,0.14997,0.12187,-0.036652
-0.62238,-1.8044,-1.4318,9.0025,0.19456,0.11026,-0.040623
-0.63187,-0.90221,-1.216,9.0025,0.24068,0.11851,-0.16188
-0.62466,-0.74531,-1.0003,9.0417,0.2529,0.11301,-0.14539
-0.59433,0.098066,-0.41188,8.3357,0.18692,0.075747,-0.094379
-0.56027,0.039227,-0.39227,7.7669,0.033903,-0.0076358,-0.037568
-0.50531,0.098066,-0.94144,7.7669,-0.10843,-0.13225,-0.0082467
-0.40985,0.66685,-1.0395,8.7475,-0.14478,-0.23274,-0.015882
-0.2804,0.41188,-1.1768,10.277,-0.030238,-0.27489,0.13439
-0.14496,0.54917,-1.5102,10.12,0.052534,-0.2865,0.14172
-0.060181,1.0591,-1.726,9.1594,0.10751,-0.28619,-0.027184
-0.10315,2.0594,-2.7459,7.4923,0.10293,-0.26298,-0.0073304
-0.22928,1.7064,-3.0401,7.8649,0.015577,-0.20403,0.016493
-0.36389,0.27459,-2.0594,10.925,-0.12859,-0.13928,0.043371
-0.48743,0.43149,-1.1768,12.023,-0.21014,-0.10568,0.079718
-0.59521,1.0199,-0.84337,10.277,-0.16371,-0.065057,0.11515
-0.65204,0.96105,-1.5102,8.6299,0.11729,0.07422,-0.047342
-0.6225,1.1964,-2.0986,8.2376,-0.025656,0.055589,-0.080329
-0.52682,1.1768,-2.432,8.316,-0.19456,0.069028,0.1014
-0.39853,0.98067,-1.8437,9.3359,-0.3882,0.013439,0.18173
-0.25757,0.98067,-1.5102,9.689,-0.56933,-0.12309,0.14997
-0.12946,1.0199,-1.3141,9.6694,-0.64141,-0.34483,0.085827
-0.022186,0.92183,-1.6279,9.179,0.020464,-0.53084,0.087965
0.049072,0.92183,-1.7848,8.5514,0.062919,-0.59865,0.034819
0.081573,0.66685,-1.6671,8.1199,0.0015272,0.11454,0.035736
0.057007,0.43149,-1.3533,8.316,0.014661,0.1014,0.030238
-0.00045776,0.27459,-1.1964,8.7083,0.02138,0.097128,-0.065057
-0.080963,0.039227,-1.3533,8.9633,-0.010079,0.079718,-0.036346
-0.14807,0.33343,-1.5298,9.434,-0.087659,0.037568,0.00030543
-0.20074,0.23536,-1.5691,9.5125,-0.17135,-0.007025,0.025656
-0.23438,0.27459,-1.216,9.3752,-0.22052,-0.023213,0.037263
-0.26492,0.27459,-1.118,9.0417,-0.21075,-0.0061087,0.040012
-0.26865,0.27459,-1.471,8.2572,-0.050702,0.019853,0.03543
-0.2406,-0.039227,-1.6671,8.8652,-0.04215,0.037568,0.021075
-0.18503,-0.039227,-1.824,9.3359,-0.069639,0.043677,0.025656
-0.10648,0.27459,-1.824,9.4732,-0.1237,0.045815,0.0281
-0.028839,0.54917,-1.6475,9.179,-0.17746,0.041539,0.030238
0.0087585,0.74531,-1.9417,9.0025,-0.20647,0.021075,0.036957
0.0065308,0.90221,-1.824,8.6299,-0.15485,-0.0039706,0.046731
-0.026764,0.39227,-1.8437,8.0611,-0.09499,-0.0097738,0.045204
-0.062225,-0.17652,-1.7848,9.6694,-0.11942,0.0073304,0.03207
-0.10828,0.17652,-2.5693,10.768,-0.051618,0.036652,0.044593
-0.18265,0.33343,-2.2948,8.5514,0.027489,0.08094,0.021075
-0.28485,-0.86299,-1.471,10.454,0.079412,0.13347,0.044288
-0.41907,-1.9221,-1.3729,11.454,0.076969,0.1857,0.065363
-0.56799,-0.60801,-1.9809,8.8456,0.049786,0.20097,0.069028
-0.70563,-0.90221,-2.3144,6.9235,-0.20708,0.16432,0.053451
-0.82483,-0.60801,-2.4517,7.61,-0.17226,0.12004,0.033903
-0.88559,-0.33343,-1.8044,8.0022,0.36866,0.22266,-0.072388
-0.83804,-0.27459,-1.2553,9.179,0.29658,0.23549,-0.063835
-0.72116,0.41188,-1.118,9.8263,0.15882,0.22174,0.059865
-0.56961,0.90221,-1.9417,9.3359,0.021991,0.19242,0.063225
-0.40994,2.0594,-2.5301,8.4337,-0.076053,0.1463,0.045509
-0.23822,2.7851,-2.1378,7.8061,-0.10721,0.099266,0.007025
-0.075104,1.5298,-1.471,8.1787,-0.054672,0.08094,-0.03543
0.039917,1.4906,-1.5102,9.0417,0.0562,0.093462,-0.06353
0.12283,2.1378,-1.8829,9.4732,0.24374,0.11118,-0.020159
0.2002,2.0594,-2.1378,9.1202,0.27489,0.12737,-0.037874
0.22424,2.1182,-1.9613,8.6299,0.22297,0.14019,-0.041844
0.20572,1.3337,-1.5691,9.0417,0.10354,0.13897,-0.0036652
0.17944,0.92183,-1.5102,8.9044,-0.047342,0.11606,0.026267
0.14078,0.60801,-1.9809,9.1202,-0.16799,0.064752,0.035736
0.12204,0.60801,-2.6086,9.2575,-0.21625,-0.010079,0.035125
0.12222,1.2749,-2.6282,9.5125,-0.18021,-0.074831,0.014355
0.12753,1.0395,-2.0006,9.5713,-0.077274,-0.095295,0.038179
0.10406,0.80415,-1.1768,9.0417,0.039401,-0.068417,0.013744
0.061981,0.41188,-1.0395,9.0417,0.10324,-0.021991,-0.025962
0.032867,0.27459,-1.5691,9.1594,0.094073,0.013134,0.002138
0.024292,0.86299,-1.9809,9.0221,0.050702,0.028405,0.02474
0.040833,1.0787,-1.8829,9.0025,-0.0033598,0.043982,0.027489
0.065765,1.118,-1.5298,9.0613,-0.059559,0.04215,0.039095
0.070984,0.49033,-1.5102,8.9437,-0.094073,0.031154,0.055894
0.069489,0.54917,-1.6867,8.8064,-0.086743,0.040623,0.00061087
0.064911,0.56879,-1.6867,8.8848,-0.052534,0.048564,-0.0058032
0.064911,0.74531,-1.6475,9.2575,-0.013134,0.048869,0.0048869
0.091492,0.76492,-1.824,9.2575,0.011301,0.047037,0.0085521
0.12811,0.90221,-1.9417,9.1986,0.010996,0.034208,0.021686
0.17337,0.98067,-1.8829,9.434,0.0054978,0.021075,0.030238
0.20242,1.118,-1.6475,9.2771,0.01405,0.014966,0.026573
0.20602,0.8826,-1.5495,8.8652,0.033903,0.013439,0.013439
0.18274,0.49033,-1.5298,8.3749,-0.11759,-0.010079,-0.029932
0.16812,0.56879,-1.9613,8.8064,-0.093157,0.03879,-0.044288
0.1778,0.76492,-1.9417,9.2575,-0.030543,0.087354,-0.092852
0.16373,0.49033,-1.3533,10.375,0.050091,0.146,-0.10812
0.12988,0.5884,-1.2553,9.1202,0.11759,0.20678,-0.10599
0.061279,0.96105,-1.8437,8.6299,0.13408,0.25687,-0.07422
-0.018829,0.56879,-2.6086,10.297,0.10293,0.28375,-0.0281
-0.073242,0.96105,-1.7848,10.454,0.047037,0.29383,-0.014661
-0.15201,1.3533,-0.72569,8.5906,-0.13653,0.30788,-0.069028
-0.19913,0.92183,-1.0395,7.2373,-0.065057,0.29535,-0.0024435
-0.21576,1.1964,-2.1182,7.8649,0.11301,0.26237,-0.061392
-0.18216,1.2356,-2.0986,9.2183,0.3207,0.25626,-0.10751
-0.07074,1.2945,-2.4124,9.9636,0.47434,0.27611,-0.14722
0.069305,1.6475,-2.4517,9.3163,0.52626,0.30665,-0.146
0.20291,1.6671,-2.2751,8.3749,-0.018937,0.32101,-0.12859
0.29562,1.5298,-1.6475,7.9434,-0.093157,0.29352,-0.11332
0.33734,1.6083,-1.3533,8.4141,0.048869,0.22938,-0.11209
0.32938,1.118,-1.4122,8.5514,-0.049175,0.12095,-0.083383
0.29965,0.60801,-1.6475,8.7475,-0.034514,-0.0079412,0.0097738
0.27545,0.56879,-2.2163,8.9437,0.052229,-0.077274,-0.041844
0.28934,0.56879,-2.8439,8.9437,0.16493,-0.072388,-0.097433
0.32831,0.49033,-2.7459,9.3555,0.24251,-0.022907,-0.13989
0.37949,0.039227,-1.3337,9.7478,0.45051,0.031765,-0.16066
0.41302,-0.50995,-0.56879,10.101,0.25351,0.053756,-0.15088
0.40503,-0.37265,-1.3533,9.4732,-0.011912,0.030238,-0.061697
0.3652,0.25497,-2.3732,8.8848,0.2419,-0.0027489,-0.057727
0.33148,0.27459,-2.1575,8.6887,0.18876,0.021686,-0.095295
0.28592,-0.21575,-1.824,9.9636,0.12126,0.088575,-0.11301
0.25317,0.35304,-1.726,9.8066,0.036957,0.16738,-0.08827
0.21921,1.118,-1.0199,8.0807,-0.057116,0.22022,-0.04612
0.18515,0.17652,-0.70608,7.0216,-0.041539,0.21594,-0.012523
0.16086,-1.1572,-1.5102,9.5125,0.015272,0.13164,-0.023213
0.13837,-0.13729,-2.2555,11.14,-0.00030543,0.020159,-0.059559
0.14569,0.078453,-2.3144,10.199,-0.00030543,0.065973,-0.06353
0.14642,0.17652,-1.0199,9.0417,-0.026267,0.083689,-0.01741
0.1178,0.49033,-0.72569,8.7083,-0.046426,0.087659,-0.021075
0.087769,0.56879,-1.4122,8.5514,-0.055283,0.080329,-0.023824
0.058228,1.0395,-2.0986,8.4926,-0.059559,0.061087,-0.023213
0.055267,0.74531,-2.1378,8.8064,-0.047953,0.039706,-0.027489
0.074249,0.56879,-1.471,8.7083,-0.02138,0.024129,-0.043066
0.09256,-0.13729,-0.62763,9.1986,0.010996,0.01069,0.011606
0.12732,-0.05884,-1.7848,9.0613,0.021075,0.002138,0.024129
0.20145,1.4318,-2.589,8.7279,-0.015577,0.012828,-0.053756
0.30984,1.5298,-2.6674,8.5514,-0.087048,0.043371,-0.033598
0.42697,1.0395,-2.2948,9.179,-0.13989,0.055894,-0.0064141
0.53687,0.80415,-1.8044,9.6694,-0.146,0.034514,0.0088575
0.62173,0.76492,-1.5691,9.4928,-0.11515,0.0051924,0.0061087
0.68524,1.0787,-1.8044,9.0221,-0.072388,-0.016493,0.0030543
0.74594,1.7064,-1.8829,8.4141,-0.043677,-0.025045,0.039095
0.77301,1.5298,-1.7848,8.1787,-0.050091,-0.03207,0.013439
0.78918,1.1964,-1.824,8.7083,-0.092852,-0.056505,0.036957
0.78879,0.80415,-2.0594,9.1594,-0.16096,-0.087659,0.052534
0.79648,0.5884,-2.1182,9.2575,-0.23366,-0.10018,0.06353
0.80658,0.90221,-2.1967,9.1202,-0.28894,-0.10018,0.069028
0.82629,0.76492,-1.9809,8.9437,-0.31398,-0.085216,0.069944
0.84039,1.0395,-1.5691,9.0221,-0.27733,-0.065057,0.061392
0.84351,0.72569,-1.4122,8.4926,0.12462,0.034208,-0.024435
0.83984,0.27459,-1.824,9.1594,0.075442,-0.022297,-0.021991
0.83426,0.74531,-2.0986,9.6694,-0.013134,-0.082161,0.043982
0.85928,0.45111,-1.9417,9.8851,-0.088575,-0.12889,0.03543
0.87473,0.76492,-1.6671,9.5125,-0.13256,-0.15882,0.033598
0.88504,0.92183,-1.6671,8.5514,-0.13867,-0.15272,0.02474
0.89447,0.80415,-1.9809,8.1591,-0.11515,-0.10354,0.0015272
0.90234,0.80415,-2.2948,8.8848,-0.072388,-0.040623,-0.017715
0.9379,0.8826,-2.2751,9.3359,-0.19853,0.025045,-0.039401
0.98581,0.8826,-2.2163,9.434,-0.2642,0.064141,-0.0064141
1,1.1376,-2.1967,9.0025,-0.25443,0.059865,-0.033292
1,1.3533,-2.4517,7.9434,-0.14905,0.039401,-0.03879
1,1.5298,-2.432,8.316,0.015272,0.034514,-0.065668
1,1.0591,-2.432,9.1202,0.1631,0.067806,-0.089186
1,0.70608,-2.432,9.5713,-0.08491,0.12339,-0.092241
0.99673,0.86299,-2.2555,9.2575,-0.12339,0.1686,-0.072388
0.98093,1.1768,-1.9809,8.2768,0.048258,0.17807,-0.034208
0.92981,1.118,-2.0986,8.1787,-0.092241,0.14264,-0.034514
0.87247,1.0787,-2.2163,8.8652,-0.17654,0.072693,0.017104
0.8335,0.98067,-2.2751,9.434,-0.17562,-0.0030543,0.028711
0.79733,0.8826,-2.2751,9.3359,-0.10354,-0.054978,0.024129
0.74347,1.0199,-2.2751,9.1986,0.0024435,-0.072388,0.0045815
0.70477,0.76492,-2.2948,8.7083,0.21716,-0.05284,-0.020159
0.63675,0.74531,-2.2751,8.7279,0.17013,-0.0097738,-0.033598
0.5845,0.60801,-2.2948,9.0417,0.03146,-0.0033598,-0.0051924
0.53821,0.82376,-2.2751,9.1594,0.021991,-0.018326,-0.015577
0.47086,1.1768,-1.9809,9.0417,0.012828,-0.017104,-0.0030543
0.41928,1.118,-1.8437,9.0613,-0.0024435,-0.0018326,-0.007025
0.35529,1.6083,-1.5102,8.7475,-0.01069,0.01069,-0.011301
0.29874,1.4906,-1.3533,8.4729,0.002138,0.023518,-0.013744
0.23956,1.3729,-2.0594,8.4141,0.038485,0.031765,-0.0079412
0.21259,1.6083,-3.0008,8.3945,0.072693,0.025656,-0.0030543
0.18677,1.3533,-2.9028,8.8652,0.097128,0.0018326,-0.059254
0.16486,0.96105,-2.0594,9.5321,0.11637,-0.019853,-0.045815
0.12756,1.0395,-1.726,9.7478,0.11942,-0.03207,-0.03207
0.069611,0.90221,-2.0594,9.2183,0.10751,-0.043371,-0.043982
0.030457,1.0787,-2.589,8.7475,0.073304,-0.054978,-0.050091
-0.034698,1.1964,-2.7459,8.5318,0.023824,-0.067195,-0.051618
-0.096313,1.0395,-2.432,8.9044,-0.02474,-0.063225,-0.054062
-0.16415,1.2945,-1.7848,9.179,-0.064446,-0.029016,-0.059559
-0.25137,1.118,-1.216,9.1202,0.27184,0.10751,0.028711
-0.31143,1.0199,-1.4318,9.0417,0.06353,0.049786,0.057421
-0.3385,1.3533,-1.726,8.6495,-0.11362,-0.012523,-0.019242
-0.35349,1.216,-1.9809,8.5514,-0.26542,-0.040928,-0.042761
-0.3613,1.0787,-1.7456,9.0417,-0.32284,-0.091019,-0.060476
-0.33905,0.74531,-1.6475,9.2183,-0.25107,-0.14355,-0.047342
-0.3204,0.27459,-1.6279,9.1202,-0.12217,-0.15913,-0.018021
-0.27911,-0.05884,-2.0594,9.0417,0.0033598,-0.14325,0.012523
-0.22354,-0.039227,-2.3732,9.2575,-0.10232,0.016188,-0.0079412
-0.13025,0.17652,-2.4517,9.179,-0.072388,0.018021,0.002138
-0.019409,0.098066,-2.7262,9.0417,-0.040623,0.019242,-0.010385
0.11719,-0.039227,-2.2751,8.8064,-0.025656,0.019548,-0.018937
0.24905,0.13729,-1.8829,8.8456,0.035125,0.025351,0.10782
0.34561,0.49033,-1.5102,8.5514,-0.017715,0.0956,0.089797
0.36859,0.56879,-1.471,8.8652,-0.10446,0.1405,0.07086
0.38858,1.118,-1.9025,8.8064,-0.21869,-0.10476,0.050091
0.3497,0.56879,-2.6086,8.9044,0.042761,0.12278,-0.030849
0.28949,0.2942,-2.942,9.2575,-0.051924,0.16005,0.045815
0.22336,0.66685,-1.824,9.8066,-0.14936,0.13653,0.0015272
0.15665,0.2942,-1.2553,10.101,-0.15547,0.098655,-0.013744
0.075562,0.74531,-1.8044,9.4144,-0.03543,0.080023,-0.066584
-0.016418,1.1768,-2.7655,8.0611,0.12645,0.07758,-0.11729
-0.10834,1.6083,-2.5105,8.0218,0.20403,0.071471,-0.13531
-0.18433,1.2945,-1.5887,9.3359,0.15424,0.010079,-0.11393
-0.26248,0.80415,-1.5691,9.9636,-0.16677,-0.11515,-0.046731
-0.30841,0.66685,-1.6867,9.689,-0.33628,-0.23152,-0.019242
-0.35632,0.49033,-1.4318,9.2183,-0.40225,-0.28344,0.03543
-0.37067,0.35304,-1.4318,8.8064,-0.30604,-0.27917,-0.007025
-0.37482,0.56879,-1.3533,8.5514,-0.061697,-0.21594,-0.044899
-0.39413,0.41188,-1.2945,8.3749,0.23579,-0.10049,-0.087048
-0.39514,0.66685,-1.118,8.4926,0.42913,0.026878,-0.10324
-0.38275,0.96105,-1.3141,8.1787,0.43097,0.10385,-0.083689
-0.35223,1.1964,-1.7848,7.963,0.16646,-0.046426,-0.064752
-0.28482,1.118,-3.0793,8.1787,0.21533,0.04612,-0.08491
-0.17709,1.2945,-3.55,8.6299,0.21441,0.12859,-0.011301
-0.054871,1.3337,-3.1381,9.1202,0.15638,0.19151,-0.0048869
0.049805,0.92183,-2.3732,9.5321,0.056505,0.22969,-0.031154
0.12192,1.118,-1.9809,9.5713,-0.033292,0.23702,-0.057116
0.17453,0.98067,-1.8829,9.2771,-0.083078,0.20128,-0.05284
0.2193,0.8826,-1.9613,9.0025,0.058948,0.14508,-0.048564
0.21707,0.27459,-2.1967,9.4732,0.20311,-0.10721,-0.18387
0.22049,0.039227,-1.2553,10.062,0.41508,-0.13286,-0.23457
0.23459,0.17652,-0.90221,10.12,0.49388,-0.19823,-0.04948
0.22711,0.41188,-1.2553,9.4928,0.43616,-0.28527,-0.030543
0.19363,0.8826,-2.2751,8.2376,0.28894,-0.36041,-0.0079412
0.1601,0.27459,-3.3931,8.8848,0.13042,-0.38698,-0.033292
0.15408,-0.70608,-3.6873,10.356,0.013134,-0.37354,-0.082161
0.14258,-0.84337,-2.6282,10.101,0.036346,-0.30268,-0.12767
0.097687,0.54917,-1.0983,7.8061,0.67837,-0.14233,-0.03879
0.017578,2.2359,-1.4318,7.61,0.70463,0.075136,-0.072693
-0.12228,2.4909,-2.432,8.1787,0.70036,0.30024,-0.22571
-0.30762,2.2948,-1.0395,7.61,0.40745,0.53237,-0.12248
-0.56619,1.8044,1.4514,5.5702,-0.14355,0.69975,0.0281
-0.83008,-0.33343,0.21575,10.925,-0.42974,0.5681,0.13195
-0.99423,0.66685,-2.9028,11.944,0.23213,0.20769,0.10934
-0.99997,2.6086,-2.432,10.297,0.49419,-0.098044,0.0027489
-0.99997,1.1964,-1.2553,9.179,-0.18509,-0.22633,0.055894
-0.99997,1.1768,-1.0003,7.8649,-0.11912,-0.19639,0.0045815
-0.99997,0.90221,-1.9809,8.2572,-0.16463,-0.13378,-0.11973
-0.99997,1.3337,-2.432,8.2768,-0.24221,-0.11729,-0.034208
-0.99997,0.92183,-2.4517,8.6495,-0.25137,-0.13897,0.085827
-0.99997,0.90221,-1.6279,8.4926,-0.18876,-0.15119,0.11454
-0.88565,0.74531,-1.5102,9.0025,-0.45662,-0.13836,0.10385
-0.69913,0.86299,-1.9809,9.2771,-0.33506,-0.11606,0.092241
-0.53781,1.0395,-2.2555,8.9437,0.010385,0.048869,0.04948
-0.37863,1.1964,-1.9613,8.8848,-0.0036652,0.078802,0.097128
-0.2475,1.0395,-1.2553,8.8652,-0.068111,0.068111,-0.053451
-0.15451,0.74531,-1.3533,9.1594,-0.11698,0.042455,-0.043982
-0.058807,0.60801,-2.0594,9.4732,-0.12095,0.012828,-0.015882
0.035522,0.49033,-2.7066,9.5125,-0.11118,-0.016493,0.0036652
0.13095,0.27459,-1.8829,9.4928,-0.089492,-0.036652,0.016188
0.21567,0.35304,-1.2553,9.6694,-0.071777,-0.037568,0.022907
0.28867,0.66685,-1.118,9.3359,-0.12737,-0.024129,-0.10354
0.33548,0.70608,-1.2553,8.8064,-0.25473,0.017715,-0.062614
0.38013,0.74531,-1.3337,9.3359,-0.34758,0.093462,0.11484
0.4361,0.5884,-2.0594,9.2575,-0.2587,0.12675,0.1066
0.47949,0.96105,-2.1967,8.8848,-0.0027489,0.054062,0.14019
0.49866,0.96105,-1.2553,8.7868,0.24465,-0.038179,0.10751
0.46713,0.74531,-1.3533,9.0417,0.35125,-0.10201,-0.051313
0.42462,0.41188,-1.8829,10.062,0.33903,-0.15944,-0.13928
0.37888,0.92183,-1.7456,9.689,0.13561,-0.23549,-0.045815
0.33755,1.0395,-1.9809,8.4337,-0.0281,-0.30635,-0.0067195
0.25287,0.90221,-1.5298,7.9434,-0.17013,-0.31979,-0.10507
0.16074,-0.82376,-2.687,9.6301,-0.26053,-0.28161,-0.17165
0.06897,0.49033,-2.6086,11.062,-0.28497,-0.21808,-0.17776
-0.027527,0.35304,-2.3144,10.768,-0.23763,-0.16035,-0.14569
-0.12097,1.2945,-1.5102,8.8848,-0.17471,-0.10293,-0.11087
-0.24155,1.6475,-0.90221,7.5511,-0.13164,-0.033903,-0.08491
-0.35175,1.3533,-1.1964,7.708,-0.11942,0.015272,-0.024129
-0.4245,1.4318,-1.6867,8.0022,-0.11301,0.020159,-0.0036652
-0.43585,1.2945,-2.3144,8.5514,-0.084299,0.0064141,0.018631
-0.3891,0.90221,-3.0793,8.8652,-0.023824,0.010079,0.014966
-0.28873,0.98067,-3.2558,8.8848,0.066279,0.036957,-0.0097738
-0.16544,0.74531,-2.3144,9.179,0.14875,0.069639,-0.028711
-0.057434,0.64724,-1.4906,8.8652,0.18265,0.090408,-0.032376
0.0054016,0.39227,-0.86299,8.316,0.15394,0.1011,-0.030849
0.024139,0.17652,-1.1768,8.5318,-0.089797,0.047037,-0.038179
0.044098,0.56879,-2.2751,9.0613,-0.1576,0.039706,-0.04215
0.070953,0.98067,-2.687,9.5125,-0.20556,0.027184,-0.0015272
0.10071,1.0395,-2.3536,9.6694,-0.208,0.011301,-0.018631
0.13385,1.118,-1.6475,9.4732,-0.16554,0.00061087,-0.029322
0.14951,1.1768,-1.1768,9.179,-0.095906,-0.0030543,-0.030543
0.12216,1.118,-1.3533,9.1594,-0.020769,-0.0030543,-0.025962
0.0979,0.8826,-1.726,9.434,0.038179,0.0027489,-0.030238
0.10709,0.8826,-2.2555,9.5125,-0.08491,0.013134,-0.027184
0.11053,1.3533,-2.2555,9.1594,-0.19609,0.023824,-0.0009163
0.12238,1.3729,-1.8437,8.6495,-0.24709,0.021991,-0.036041
0.1188,1.216,-1.6867,8.4141,-0.20983,-0.00061087,-0.03146
0.087891,1.0787,-1.7848,8.8652,-0.11484,-0.026573,-0.030849
0.044312,0.72569,-1.8829,9.1986,-0.025045,-0.023518,-0.029016
0.024261,0.56879,-2.1378,9.1202,0.057116,0.0067195,-0.034208
-0.022827,0.49033,-2.1575,8.6495,0.016493,0.039095,-0.040317
-0.041718,0.66685,-2.1967,8.5906,-0.079107,0.050091,-0.0018326
-0.065979,0.41188,-2.4517,8.6299,-0.16066,0.040623,0.0024435
-0.073578,0.49033,-2.5693,9.0025,-0.17104,0.019853,0.018326
-0.073029,0.27459,-2.5105,9.1202,-0.1124,0,0.023824
-0.059052,0.39227,-1.9613,9.0417,-0.037568,-0.012828,0.026267
-0.043365,0.43149,-1.3533,8.6887,0.011912,-0.015882,0.019853
-0.034851,0.72569,-1.726,8.6299,0.022602,-0.00030543,-0.00030543
-0.022491,0.8826,-2.4124,8.9044,0.00030543,0.0094684,-0.010996
-3.0518e-05,0.70608,-2.2163,9.4732,-0.13897,0.069333,0.030543
0.028992,0.70608,-1.8044,9.3752,-0.10965,0.078496,0.014355
0.058746,0.76492,-1.9417,8.8652,-0.034208,0.099571,0.0073304
0.067627,0.74531,-2.2948,8.8652,0.026878,0.10812,0.026267
0.078094,0.92183,-2.4713,9.3359,0.040928,0.094073,0.036957
0.087769,0.82376,-2.687,9.4928,0.021686,0.076053,0.044899
0.094879,0.66685,-2.3536,9.2183,-0.0009163,0.065668,0.049175
0.098663,0.80415,-2.0398,8.6299,-0.034208,0.054978,0.043371
0.087067,0.98067,-1.8437,8.316,0.39462,0.47922,0.12767
0.07196,0.80415,-2.3732,9.1202,0.63011,0.41692,0.054672
0.049011,1.1964,-2.2948,8.8064,0.78405,0.35552,0.10263
0.038605,1.4318,-1.9025,8.6299,0.7364,0.29077,0.062919
0.01181,1.2356,-1.824,8.7868,0.49541,0.16799,-0.0076358
-0.033752,0.98067,-2.1182,9.0221,0.11668,-0.035736,0.06017
-0.055756,0.74531,-2.3732,9.6497,-0.25076,-0.29719,0.2251
-0.072754,0.5884,-2.2948,9.8066,-0.44746,-0.53145,0.21502
-0.10281,0.60801,-1.824,8.8848,-0.44502,-0.65424,-0.12034
-0.13263,1.0199,-1.4906,7.9042,-0.32559,-0.66401,-0.16554
-0.19226,0.90221,-1.6475,8.4141,-0.22846,-0.59773,-0.0051924
-0.29352,0.13729,-2.4713,9.3359,-0.24465,-0.49877,-0.041844
-0.42188,-0.80415,-2.687,10.12,-0.36255,-0.3989,-0.050091
-0.56296,-1.3925,-1.824,11.454,-0.46456,-0.34514,-0.039706
-0.73096,-0.19613,-1.1768,9.3359,-0.41966,-0.34147,-0.025962
-0.8887,0.80415,-1.9613,5.884,-0.21014,-0.31918,-0.055894
-0.99997,0.41188,-1.9613,4.9818,0.03879,-0.22571,-0.11148
-0.99997,-0.019613,-0.72569,7.0216,-0.080023,-0.10446,-0.10904
-0.99997,-0.39227,-0.23536,9.179,0.15791,-0.0030543,-0.17471
-0.99997,-0.49033,-1.7848,9.5125,0.30818,0.061697,-0.15058
-0.99997,0.25497,-2.6086,12.298,0.36163,0.08827,-0.13042
-0.99997,0.27459,-1.4122,13.572,0.35736,0.074831,-0.11423
-0.99997,0.39227,-1.1964,12.631,0.30116,0.024435,-0.092241
-0.95593,1.5887,-1.9613,10.474,0.18357,-0.03543,-0.095295
-0.87317,1.9809,-2.5105,9.2183,-0.39767,-0.38485,0.053451
-0.79773,1.6867,-1.6475,7.963,-0.48564,-0.3769,0.099266
-0.73291,1.2356,-1.1768,7.3746,-0.42333,-0.22785,-0.086437
-0.65436,1.3337,-2.4517,7.2765,-0.2306,-0.0027489,-0.13164
-0.53836,1.7456,-2.7459,7.4334,0.039401,0.22999,-0.13775
-0.34631,1.6083,-2.3732,8.3749,0.23579,0.41356,-0.10446
-0.099121,1.3925,-1.8829,8.9633,0.26573,0.47159,-0.062308
0.11353,1.2356,-1.8044,9.4928,0.2303,0.47464,-0.0082467
0.32034,1.216,-1.6475,8.8652,0.040012,0.032681,-0.087965
0.47708,1.0591,-1.118,8.2376,-0.025656,0.027794,-0.048564
0.57809,0.5884,-0.54917,7.8649,-0.078191,0.018631,-0.064752
0.64532,0.82376,-0.39227,8.2572,-0.063835,0.018326,-0.07086
0.67722,0.11768,-1.6279,9.1202,0.01741,0.017715,-0.080329
0.73355,0.27459,-2.7459,9.6694,0.12645,0.01741,-0.091324
0.78503,0.49033,-2.432,9.8066,0.059559,0.029016,-0.10415
0.82245,0.90221,-1.8829,9.4144,0.069944,0.054672,-0.10568
0.83096,0.76492,-1.6475,9.0417,0.11637,0.078191,-0.025962
0.83038,0.76492,-1.8829,9.3163,-0.041844,0.078802,-0.00061087
0.80518,1.0787,-2.2751,9.6694,-0.18387,0.043677,-0.0094684
0.76004,0.92183,-2.0594,9.5125,-0.21686,-0.016188,0.016799
0.72723,1.0199,-1.824,9.434,-0.13256,-0.071471,0.027489
0.67853,0.92183,-1.5887,9.2771,0.0039706,-0.092852,0.009163
0.62747,1.0395,-1.7456,8.9437,0.20892,-0.064141,-0.02474
0.58051,1.0395,-1.9809,8.2572,0.21197,0.002138,-0.039401
0.53064,1.2749,-2.1967,8.218,-0.062308,-0.089186,0.065973
0.48245,0.98067,-2.0594,8.7868,-0.10537,-0.091935,0.069028
0.4389,0.74531,-2.2751,9.1594,-0.15974,-0.08827,0.049175
0.40305,0.66685,-2.4124,8.9437,-0.19761,-0.076664,0.053756
0.36844,0.74531,-2.3732,9.0221,-0.18265,-0.04948,0.044593
0.33511,0.74531,-2.2948,9.0417,-0.10751,-0.0030543,0.034819
0.29611,0.66685,-2.0986,9.2575,-0.0082467,0.054062,0.041844
0.27921,0.80415,-2.0594,9.0025,0.058948,0.0956,0.057116
0.24631,0.86299,-2.0398,8.6299,0.021991,0.10232,-0.068722
0.22858,0.90221,-2.1378,8.7083,0.016799,0.084299,-0.066279
0.20938,0.60801,-1.4318,9.2183,0.019853,0.064752,0.060476
0.19073,0.49033,-1.0395,9.5321,0.013744,0.057116,0.042455
0.1806,0.76492,-1.3337,9.2575,0.0054978,0.056505,0.027794
0.16296,0.98067,-2.1575,8.8064,0.025656,0.043066,0.015272
0.13873,1.1376,-2.4124,8.8064,0.074831,0.023824,-0.011606
0.12509,0.80415,-1.9809,9.1202,0.051924,0.025045,-0.048564
0.10791,0.66685,-1.9613,9.2183,0.51099,0.16218,0.022907
0.090424,0.74531,-2.0986,9.0613,0.27397,0.13806,0.044288
0.05191,0.92183,-1.6867,8.8848,-0.14233,0.04215,0.022297
0.0029907,0.74531,-1.9613,9.2575,-0.54245,-0.09499,0.054672
-0.039337,0.27459,-2.8243,9.4732,-0.75136,-0.22571,0.037568
-0.073547,0.13729,-2.2948,9.3752,-0.72174,-0.2865,0.015882
-0.076385,-0.05884,-1.824,9.5125,-0.47922,-0.26206,0.016493
-0.077026,0.8826,-1.5691,9.179,-0.146,-0.18021,0.016799
-0.099701,1.9221,-1.3729,8.8064,-0.15638,0.098349,0.17074
-0.11594,1.9221,-0.70608,8.9437,-0.13806,0.18143,0.10324
-0.11761,2.2359,0.13729,9.5713,0.032681,0.30452,-0.027794
-0.12515,2.6086,-0.84337,8.4337,0.25931,0.43891,0.0015272
-0.12112,2.9616,-2.0986,7.9042,0.39676,0.52198,0.067195
-0.10562,2.2948,-2.1967,8.2572,0.33292,0.5003,0.14355
-0.070374,1.0395,-0.90221,8.8848,0.10201,0.37263,0.20892
-0.037598,0.098066,-0.94144,9.3359,-0.17013,0.208,0.22022
-0.0087585,0.27459,-2.687,9.179,-0.42455,0.076664,-0.06689
0.052246,0.098066,-4.0796,8.4141,-0.27397,0.0058032,-0.080329
0.14108,0.17652,-3.6285,8.5514,0.002138,0.026267,0.031765
0.22098,0.039227,-2.0006,8.4337,0.2303,0.095295,-0.017715
0.29126,-0.039227,-1.0003,8.8652,0.33781,0.15547,-0.025351
0.34595,0.098066,-0.72569,9.0417,0.31765,0.18112,-0.03207
0.41208,0.56879,-1.5102,8.8652,0.22388,0.16463,-0.043371
0.47455,0.66685,-1.8437,8.8652,0.10049,0.12462,-0.05681
0.53723,0.41188,-2.4517,9.6694,0.0012217,0.094073,-0.1014
0.58301,0.56879,-1.5691,10.748,-0.075136,0.086437,-0.055589
0.62772,0.70608,0,11.199,-0.14783,0.074831,-0.077885
0.58902,1.0395,-0.11768,9.8851,-0.13042,0.090713,-0.060476
0.4491,1.3925,-1.824,8.4141,-0.065668,0.15027,-0.090408
0.29376,1.0395,-2.7459,8.2572,0.061087,0.18998,-0.096211
0.14246,0.96105,-2.432,9.1202,0.28039,0.16829,-0.047342
0.01828,0.54917,-2.3732,9.0417,0.48319,0.15608,-0.070555
-0.066406,-0.039227,-1.8829,9.0417,-0.18998,-0.031154,0.031765
-0.11111,0.35304,-1.3729,8.8848,-0.18845,-0.047953,0.030543
-0.11356,0.2942,-1.118,8.5514,-0.15547,-0.036957,-0.014661
-0.075775,0.039227,-1.1768,8.2768,-0.082467,0.0061087,-0.036041
-0.049774,-0.17652,-1.0591,8.7475,0.037874,0.064141,-0.045204
-0.00033569,-0.33343,-1.3533,9.5713,0.16616,0.11423,-0.021686
0.051666,0.35304,-1.8044,9.3359,0.22816,0.12614,0.0015272
0.082611,0.98067,-1.8829,8.7083,0.1909,0.091935,0.017715
0.088806,1.0395,-2.0006,9.1986,0.075136,0.025656,-0.036346
0.10129,0.90221,-2.1182,9.5125,-0.079412,-0.047647,-0.04215
0.075012,1.216,-2.0594,9.434,-0.21319,-0.08491,0.013744
0.066895,1.3337,-2.2751,9.0613,-0.28008,-0.076664,-0.0058032
0.061859,1.824,-2.6086,8.3749,-0.25381,-0.039401,-0.015882
0.034576,1.3925,-2.4517,8.4926,-0.14416,0.021991,-0.020159
-0.015076,0.8826,-1.6671,9.1202,0.022602,0.098349,-0.017104
-0.049561,0.74531,-1.3729,9.7282,0.21716,0.1912,-0.018021
-0.089813,0.98067,-1.9613,9.1202,0.37324,0.27275,-0.08491
-0.10049,1.2945,-2.589,8.2376,0.19853,0.30452,-0.04612
-0.10904,0.96105,-2.7262,7.6296,0.021686,0.28222,-0.018326
-0.11655,0.74531,-2.4124,8.0611,-0.070555,0.22113,-0.009163
-0.076874,0.2942,-1.5691,9.2575,-0.065668,0.1518,-0.036957
-0.0448,-0.05884,-1.4318,9.9636,-0.019548,0.11148,-0.072388
-0.011566,0.19613,-2.0006,9.2575,0.38026,0.11026,-0.092241
0.028351,0.49033,-1.9809,8.6299,0.44257,0.14478,-0.097128
0.0383,0.5884,-1.5691,9.5321,0.17562,0.17471,0.20769
-0.011017,0.098066,-1.2749,10.297,0.28924,0.18418,0.14111
-0.17264,0.25497,-1.0395,7.2177,0.3989,0.14325,0.011301
-0.38895,-1.6475,-0.27459,11.101,0.49724,0.08827,0.11179
-0.62048,-1.8633,-1.5691,12.651,0.23427,0.11606,0.22174
-0.81485,0.2942,-3.4716,8.0611,-0.26603,0.25351,0.28283
-0.97501,0.56879,-3.2362,7.0019,0.015882,0.19578,0.28558
-0.99997,0.2942,-1.5102,7.6884,0.071777,-0.10537,0.27825
-0.99997,0.66685,-0.94144,8.316,-0.24771,-0.38515,0.019242
-0.92804,1.3337,-1.6475,8.5514,-0.15149,-0.39218,0.030849
-0.74551,1.4906,-1.8437,7.9238,0,-0.34941,-0.13622
-0.50815,1.2945,-2.2555,8.1003,0.13011,-0.28039,-0.10782
-0.2439,1.3925,-2.3144,8.9437,0.2025,-0.21044,-0.063225
0.031067,1.2749,-2.2751,9.0417,0.2135,-0.14325,-0.036041
0.27063,0.56879,-1.7456,9.5909,0.16982,-0.09163,-0.015882
0.46533,0.90221,-1.8829,8.7475,0.090408,-0.07086,0
0.60181,0.90221,-1.3141,7.1589,-0.034819,-0.081245,0.11057
0.67133,-1.4514,-1.7848,9.8459,-0.067806,-0.10965,0.13011
0.70737,-1.9417,-2.8832,13.102,-0.098044,-0.13592,0.037874
0.737,-0.039227,-3.0793,11.297,-0.11454,-0.15272,0.043982
0.71878,0.74531,-2.2751,8.9437,-0.10232,-0.14539,0.043982
0.60236,-0.33343,-1.3729,8.8456,-0.081245,-0.1124,0.042455
0.45755,0.35304,-1.5691,8.6299,-0.07758,-0.077274,0.058338
0.33289,0.90221,-1.6867,8.5514,-0.091324,-0.057727,0.086743
0.23245,1.3533,-1.5102,8.6299,-0.14325,-0.037263,-0.01741
0.19711,1.5495,-1.4906,8.6299,-0.23976,-0.032376,-0.045815
0.18826,1.118,-1.3729,9.2575,-0.33109,-0.051618,0.14264
0.21768,0.8826,-1.5691,9.5125,-0.3879,-0.071777,0.13897
0.28824,1.216,-1.7456,9.179,-0.42791,-0.072998,0.12217
0.35818,1.216,-1.3533,8.8652,-0.40592,-0.060476,0.094073
0.43564,1.3729,-1.3533,8.6299,-0.25443,-0.025656,0.062919
0.48779,1.0787,-1.5691,9.179,-0.030543,0.029627,0.025962
0.51828,0.92183,-1.8437,8.9437,0.18876,0.098044,0.0054978
0.55322,1.0395,-2.2555,8.9437,0.33139,0.15119,0.0027489
0.59198,1.0395,-2.942,8.0807,0.36011,0.16371,-0.025045
0.64258,1.3337,-3.0989,8.316,0.26909,0.13134,0.0097738
0.68533,0.60801,-2.5301,9.434,0.10446,0.054672,0.025962
0.70142,0.54917,-1.8829,9.8851,-0.059865,-0.03879,0.035736
0.66873,1.0591,-1.471,9.3163,-0.17868,-0.10293,0.032376
0.62094,1.1964,-1.9417,8.316,-0.22205,-0.12828,0.018937
0.55106,1.0395,-2.2751,8.0807,-0.15027,-0.14019,-0.22083
0.49014,0.92183,-2.3732,8.218,-0.13439,-0.19303,-0.35277
0.45428,1.0395,-2.4713,8.7083,-0.1182,-0.18876,0.009163
0.43918,0.98067,-2.5105,9.3359,-0.0033598,-0.10385,0.007025
0.43771,0.92183,-1.9613,9.179,0.41172,0.027794,0.0009163
0.42816,1.1964,-1.5102,8.6299,0.80023,0.10049,-0.00030543
0.37732,1.118,-1.6475,8.1787,-0.12004,0.098349,0.017104
0.37598,1.0395,-1.9809,8.6299,-0.15638,0.07086,-0.050702
0.36719,0.66685,-1.7848,9.2771,0.49327,0.0073304,-0.26634
0.35495,0.49033,-1.5691,9.6694,0.22113,-0.086437,-0.26145
0.32495,0.45111,-1.5102,9.7478,-0.020769,-0.15913,-0.32895
0.28076,0.35304,-1.5887,9.0025,-0.18754,-0.19181,-0.31215
0.2359,0.039227,-1.9809,8.9044,-0.26664,-0.16127,-0.38851
0.19797,0.56879,-2.1575,9.3359,-0.21777,-0.055589,-0.4163
0.15671,0.64724,-1.8437,9.1594,0.86926,0.033903,-0.36988
0.12628,0.17652,-1.2749,9.1986,0.73884,0.085827,-0.30635
0.088287,0.098066,-1.4318,9.9047,0.25962,0.12828,0.14752
0.055389,0.49033,-1.824,10.297,0.5452,0.22969,0.21655
0.036072,1.0199,-2.7459,9.9636,0.82742,0.36102,-0.30452
0.013306,2.2948,-2.2948,7.6492,0.88759,0.48594,-0.29963
-0.027618,0.2942,-2.1967,7.8061,0.64263,0.65576,-0.26053
-0.092804,0.80415,-2.7459,10.513,0.31643,0.75931,-0.19792
-0.15384,1.6083,-2.1967,11.67,-0.12339,0.69761,-0.037263
-0.24179,2.6282,-1.471,9.1594,0.029322,0.53695,0.096211
-0.3522,3.2558,-0.098066,7.4334,-0.055589,0.083078,0.050396
-0.47787,2.687,-0.37265,7.1785,0.032987,0.097128,0.023824
-0.58572,2.1575,-2.6086,7.3746,0.07422,0.10782,-0.071777
-0.62985,1.1768,-3.3931,7.6884,0.091324,0.1127,-0.064446
-0.66574,-0.039227,-1.5691,8.316,0.097128,0.1014,-0.033598
-0.76791,-1.2356,0.25497,9.2575,0.086743,0.068417,0.0036652
-0.94705,-3.0401,0,9.1006,0.039095,0.0042761,0.038179
-0.99997,-4.6091,-0.86299,10.513,-0.045509,-0.07422,0.06017
-0.99997,-3.8246,-1.0395,12.611,0.080329,0.29566,0.11393
-0.99997,-0.70608,-1.8044,7.8061,0.046426,0.14355,0.051313
-0.99997,-0.17652,-1.2553,5.9624,0.26328,0.063835,0.047342
-0.99997,0.098066,-0.54917,8.6887,0.50763,0.14936,0.13347
-0.99997,1.2945,-0.8826,9.0417,0.46762,0.26084,0.21625
-0.99997,1.5495,-0.94144,9.787,0.28924,0.2364,0.20892
-0.99997,0.41188,-1.0003,12.651,0.01405,0.11729,0.1744
-0.99997,-0.27459,-0.80415,12.631,-0.29016,-0.068111,0.14997
-0.99997,0.49033,-0.62763,10.12,-0.49175,-0.22205,-0.081551
-0.99997,1.1964,-1.2553,8.5514,-0.56719,-0.28955,0.025351
-0.99997,1.5495,-3.5304,9.1986,-0.57085,-0.26939,-0.012217
-0.99161,2.3732,-4.9426,7.7865,-0.50763,-0.20586,-0.048564
-0.83054,2.6478,-2.9028,7.2373,-0.36652,-0.14447,-0.071777
-0.64679,2.5497,-1.1768,7.9238,-0.04215,-0.058338,-0.10782
-0.50089,2.6086,-1.3729,8.0218,0.38026,0.10079,-0.15333
-0.32236,2.0594,-2.2163,8.2376,0.71624,0.31337,-0.16738
-0.14404,1.6475,-2.0594,8.6299,-0.14813,-0.33689,-0.17196
0.018829,1.1768,-1.6867,8.5318,0.11668,-0.11057,-0.16402
0.15472,0.41188,-1.471,7.7865,0.26817,0.075747,0.00030543
0.24271,-0.50995,-0.86299,9.2183,0.2361,0.15852,0.011301
0.2858,-0.98067,-1.216,11.317,0.098044,0.18418,-0.0076358
0.25354,-1.0199,-2.0594,9.1986,-0.014966,0.19945,-0.061697
0.14148,-0.84337,-1.824,7.8649,-0.0061087,0.23213,-0.097738
0.0080261,-2.2751,-1.1768,10.944,0.11851,0.28955,-0.13531
-0.14471,-1.8437,-1.3141,10.513,0.40134,0.36133,0.026267
-0.31458,-1.0199,-1.2553,7.8649,0.42089,0.4273,0.036346
-0.46649,-0.13729,-1.5691,7.3746,0.32773,0.4554,-0.12217
-0.5903,1.0395,-1.9809,8.2572,0.24221,0.45326,-0.091019
-0.63925,2.0006,-1.4318,8.4141,0.28588,0.45632,-0.085216
-0.62463,0.98067,-0.23536,10.434,0.40012,0.47128,-0.079107
-0.63333,-0.35304,-0.11768,13.278,0.42455,0.47922,-0.049175
-0.63153,0.27459,-0.43149,13.102,0.27642,0.42425,-0.010996
-0.62936,1.5298,-1.118,9.8459,0.1182,0.2138,0.055894
-0.63776,1.8044,-1.5298,8.7083,-0.03146,0.22969,0.027489
-0.63721,0.82376,-2.687,8.0611,-0.20128,0.22571,0.1237
-0.61862,1.3533,-3.5304,6.4332,-0.34514,0.2025,0.12675
-0.54532,1.5298,-2.5105,7.5511,-0.40317,0.1744,0.12034
-0.47974,0.90221,-1.216,7.963,-0.30024,0.16066,0.11362
-0.45264,0.74531,0.31381,7.2373,0.19731,0.146,0.1069
-0.48141,-1.9417,-2.8243,11.14,0.19548,0.14813,0.08827
-0.50388,-0.37265,-2.3732,13.886,0.098655,0.18601,-0.070555
-0.54559,-0.078453,-0.52956,11.846,-0.00061087,0.23793,-0.075442
-0.60574,1.3533,-0.8826,7.8649,0.23915,0.26634,0.015272
-0.64017,1.3925,-2.2555,6.8058,0.39492,0.26145,0.011301
-0.58972,1.5298,-2.8243,7.3158,0.44013,0.219,-0.0027489
-0.4812,1.6867,-2.0594,8.4729,0.4105,0.1518,-0.015577
-0.29239,1.6867,-1.2553,9.1986,0.33048,0.085216,-0.0281
-0.075684,1.9221,-0.49033,9.0025,0.21289,0.034819,-0.051924
0.1236,1.5298,-0.098066,8.4337,0.12065,-0.025351,0.032681
0.30011,1.3533,-0.56879,7.9434,-0.07086,-0.012217,0.060781
0.47211,1.0395,-0.80415,7.7473,-0.25045,0,-0.14172
0.62555,0.52956,-1.4906,8.7279,-0.36438,-0.00030543,-0.10476
0.78384,0.54917,-1.9613,9.5125,-0.39615,0.018021,-0.070555
0.90244,0.49033,-2.2555,9.434,-0.37415,0.096211,-0.034819
0.97198,0.5884,-2.3536,9.179,-0.33414,0.18815,0.0061087
0.99988,0.70608,-1.6475,9.1202,-0.28283,0.22785,0.023213
1,0.72569,-1.2553,9.2575,-0.13653,0.2306,0.11484
0.99808,0.66685,-1.118,9.4732,-0.10812,0.22266,0.11484
0.95367,0.56879,-1.7456,8.9437,-0.084299,0.208,0.086743
0.89407,0.56879,-2.9028,8.5514,-0.035736,0.18876,0.1124
0.84796,0.41188,-3.0008,9.1202,0.04612,0.16616,0.13011
0.81216,0.098066,-2.4713,9.7478,0.13958,0.14691,0.13103
0.77737,0.13729,-1.6475,9.8851,-0.23182,0.15119,0.12859
0.73563,0.25497,-1.1768,9.7282,-0.18234,0.18173,0.12339
0.69391,0.64724,-1.3533,9.1986,0.059865,0.060781,-0.052534
0.65912,0.49033,-1.5691,9.434,0.052534,0.067501,-0.036041
0.61819,0.098066,-1.5102,9.434,0.0045815,0.062614,-0.0054978
0.55643,0.098066,-1.6475,9.2575,-0.068111,0.04215,-0.0097738
0.51263,0.25497,-1.6671,9.3163,-0.12217,0.025656,0.0061087
0.47379,0.49033,-1.9417,9.1202,-0.12645,0.027184,0.00030543
0.41632,0.74531,-1.5102,8.9437,-0.062308,0.06017,-0.026573
0.38983,0.66685,-1.118,8.8652,0.074831,0.10721,-0.047037
0.3331,0.35304,-1.1572,8.7279,-0.11881,0.077274,0.034208
0.2832,0.41188,-1.3533,8.9437,-0.12737,0.043677,0.029016
0.23926,0.17652,-1.6671,9.0025,-0.078191,0.023824,-0.023824
0.20798,0.27459,-1.6867,9.2183,-0.023213,0.017104,-0.031765
0.17847,0.60801,-1.5102,8.9044,0.0051924,0.010385,-0.015577
0.21066,0.078453,-1.5102,9.0417,-0.0051924,-0.0039706,0.0082467
0.22525,0.098066,-1.6279,9.0221,-0.050396,-0.022907,0.022602
0.2431,0.35304,-1.5102,9.2771,-0.11973,-0.043982,0.032376
0.24905,0.54917,-1.1964,9.5713,-0.24648,-0.069639,-0.0079412
0.25803,0.66685,-1.216,9.5125,-0.26206,-0.083994,-0.018326
0.27182,0.8826,-1.6475,9.0221,-0.17287,-0.077274,0.021686
0.30347,0.98067,-2.4713,8.8652,0.018021,-0.040623,0.0067195
0.32639,0.74531,-1.9417,9.2771,0.19578,0.022602,-0.030543
0.33545,0.80415,-1.1768,9.5713,0.22877,0.067195,-0.042761
0.32901,0.8826,-1.118,9.4732,0.12339,0.055894,-0.011912
0.31549,0.98067,-1.6279,8.8652,-0.026878,0.0027489,0.0027489
0.29218,1.0787,-1.9613,8.7083,-0.15608,-0.054672,0.0045815
0.25296,0.96105,-1.7456,8.9437,-0.23671,-0.096517,0.013134
0.22153,0.86299,-1.6867,9.3359,-0.25015,-0.1069,-0.026267
0.20404,0.80415,-1.4318,9.2575,-0.20525,-0.090103,-0.040012
0.19492,0.60801,-1.3533,9.179,-0.12584,-0.054062,-0.04612
0.16336,0.56879,-1.5887,8.8064,-0.046731,-0.014966,-0.03543
0.15308,0.80415,-1.9809,8.2376,0.010079,0.022602,-0.017104
0.13831,0.45111,-1.7456,8.5514,0.041844,0.050091,-0.0073304
0.14978,0.078453,-1.118,9.434,0.11362,0.078191,0.01741
0.17484,0.13729,-0.84337,10.375,-0.014661,0.078191,0.015577
0.17758,0.23536,-1.0395,10.415,-0.20159,0.072693,0.0064141
0.098755,1.0199,-1.6475,7.3158,-0.36194,0.071777,0.0033598
-0.057281,-0.23536,-2.334,8.2376,-0.40775,0.072388,-0.0051924
-0.21246,-1.6279,-3.2362,11.513,-0.3091,0.080634,-0.009163
-0.34967,0.13729,-2.7655,10.297,-0.12523,0.1014,0.0073304
-0.4772,0.66685,-1.9613,8.316,0.054978,0.11606,0.019242
-0.59467,-0.05884,-0.62763,7.8649,0.11362,0.11148,-0.14783
-0.71313,0.45111,-0.23536,8.3749,0.034819,0.083994,-0.13347
-0.81641,0.35304,-1.1768,8.9437,-0.048258,0.052534,0.0048869
-0.827,0.27459,-1.6475,9.5909,-0.10965,0.013439,-0.021991
-0.75485,0.82376,-1.1964,9.3752,-0.13347,-0.031765,-0.056505
-0.57315,1.3729,-0.82376,8.5514,-0.094684,-0.05284,-0.093157
-0.34143,1.4318,-1.4906,8.1787,0.15852,-0.047342,-0.12309
-0.067535,0.86299,-2.5301,8.9044,0.16585,-0.027489,-0.1405
0.21204,0.66685,-2.9224,9.8851,0.1237,0.0073304,-0.035736
0.47449,0.74531,-2.6086,9.689,0.15974,0.034208,-0.059865
0.66702,0.54917,-2.2948,9.434,0.15882,0.041233,-0.12431
0.80603,0.5884,-2.0006,9.3359,0.053145,0.026573,-0.1237
0.90048,0.49033,-2.2555,8.5514,-0.10751,0.017104,-0.10079
0.93588,0.25497,-2.1967,8.8652,-0.21411,-0.0054978,-0.064141
0.91586,-0.039227,-1.9613,9.3752,-0.016493,-0.067195,-0.024129
0.84064,-0.35304,-1.118,9.2183,0.066584,-0.13286,-0.015577
0.72705,-0.45111,-0.62763,9.1202,-0.046426,-0.16096,0.086437
0.58865,-0.33343,-1.3141,8.6299,0.052534,-0.10873,0.055894
0.45483,0.64724,-1.5691,8.1003,0.15119,-0.0030543,-0.075747
0.32568,0.41188,-1.4122,7.9434,0.27397,0.094073,-0.055894
0.20465,0.17652,-1.0199,8.3945,0.38607,0.16707,-0.0094684
0.095917,0.17652,-1.3141,9.6694,0.4496,0.22266,0.0281
-0.0018616,0.2942,-1.3533,10.415,-0.22571,0.23824,0.053756
-0.082764,0.98067,-1.4318,9.3359,-0.15211,0.21625,0.085521
-0.1568,1.0199,-1.0003,8.1787,-0.97128,-0.94867,0.13928
-0.21164,0.43149,-1.3141,9.3555,-1.2917,-1.073,0.047037
-0.2514,0.74531,-2.3144,9.6694,-1.6759,-1.1866,0.34606
-0.28281,0.90221,-2.7262,9.5125,-1.934,-1.1961,0.41844
-0.33493,0.54917,-1.3533,8.8652,-2.022,-1.1362,0.47892
-0.40164,-0.68647,-0.74531,9.0417,-1.9871,-1.0812,0.51649
-0.46692,-0.60801,-2.0594,9.9047,-1.7633,-0.94104,0.45173
-0.52774,-0.50995,-3.3931,9.5713,-1.3613,-0.71868,0.29169
-0.57095,-0.13729,-2.9028,8.5318,-0.41081,-0.42211,-0.16096
-0.59958,0.41188,-1.0003,8.2572,0.035736,-0.11668,-0.099266
-0.63065,-0.05884,0.52956,8.5514,0.2303,0.095906,0.024129
-0.68481,-0.76492,1.1572,9.6301,0.22358,0.15424,0.028405
-0.68948,-1.7652,-0.25497,10.728,0.14722,0.10782,0.015577
-0.6134,-2.7851,-0.8826,13.827,0.12431,0.034208,-0.041539
-0.45917,-0.76492,0.56879,12.474,0.24587,-0.017715,-0.11118
-0.29102,-0.66685,1.9417,10.591,0.46609,0.025045,-0.15791
-0.22873,-0.50995,0.76492,8.2572,0.61148,0.13347,-0.084299
-0.27057,-0.27459,-1.0591,6.1782,0.60384,0.2532,-0.11454
-0.32983,0.41188,-3.6873,6.1978,0.49633,0.39523,-0.010996
-0.31174,2.1575,-5.0995,5.9036,0.29719,0.47525,0.066584
-0.17661,2.4517,-4.4914,6.6097,0.020159,0.39767,0.12614
0.0025635,1.5887,-2.8243,8.9437,-0.21686,0.23305,0.14142
0.19611,1.8633,-2.432,9.6694,-0.29902,0.071777,0.086437
0.33765,2.4713,-2.589,8.8064,-0.20617,0.01405,-0.0012217
0.42477,2.5497,-1.3337,8.1003,0.78405,0.4945,-0.022297
0.45218,1.9221,0.37265,7.1392,0.43494,0.40836,0.18723
0.38211,0.039227,0.23536,8.316,0.17287,0.25962,-0.32987
0.32996,-0.43149,-1.824,9.7478,0.06353,0.092852,-0.34178
0.32031,1.0787,-3.3931,9.3555,0.051618,-0.10843,-0.33872
0.36469,1.1964,-3.2362,8.8652,0.022907,-0.32345,-0.24771
0.39941,0.74531,-1.8044,10.14,-0.25534,-0.56749,-0.15394
0.3912,0.27459,-1.2553,10.375,-0.65363,-0.78313,-0.11668
0.36554,0.64724,-1.3337,9.6694,-0.092546,0.22419,-0.27917
0.34232,1.2945,-2.3732,9.179,-0.33689,-0.022907,-0.28222
0.36655,1.1964,-2.687,8.4141,-0.50213,-0.31734,0.042455
0.39191,0.66685,-1.3729,8.9044,-0.48686,-0.51343,0.073304
0.38037,0.078453,-0.62763,10.16,-0.30391,-0.6243,0.080634
0.28763,0.2942,-0.49033,9.1986,-0.045509,-0.58521,0.015882
0.15732,0.17652,-2.2948,8.2572,0.12401,-0.41264,-0.11881
0.04541,-0.039227,-3.3146,8.8064,0.1237,-0.20311,-0.23671
-0.073792,0.17652,-0.72569,11.866,0.72204,-0.018631,-0.28375
-0.21271,-0.50995,0.039227,12.199,0.85674,0.15088,-0.3149
-0.39893,0.92183,0.50995,9.434,0.91477,0.3146,-0.29352
-0.58173,1.2945,0.76492,7.0608,0.88239,0.4328,-0.30085
-0.71738,0.49033,-2.1378,6.1978,0.74831,0.49816,-0.2978
-0.75076,1.5887,-4.0011,6.5116,0.54367,0.54275,-0.29016
-0.64111,1.1376,-3.3931,9.0417,0.23488,0.56383,-0.27122
-0.47656,-0.019613,-1.6083,10.258,0.50274,0.55833,-0.2642
-0.30246,0.39227,-0.56879,9.8851,0.37935,0.55558,0.092241
-0.24478,1.3533,-0.41188,7.1196,0.51252,0.56536,0.14142
-0.26495,-1.0787,-0.86299,10.14,0.55344,0.57574,-0.3207
-0.36002,-1.4514,-1.0591,13.965,0.42852,0.56994,-0.28039
-0.48013,0.2942,-2.2751,12.396,0.17257,0.52473,-0.19517
-0.58475,1.5495,-2.7459,8.6299,-0.10568,0.39004,-0.11148
-0.65814,2.6478,-1.6475,6.9039,0.35949,0.19456,-0.045509
-0.71701,2.6282,-1.216,7.5511,0.29963,0.018631,0.023824
-0.74377,2.8047,-1.0395,8.4926,0.29291,0.28986,0.14661
-0.72433,2.0006,-1.0591,9.2183,0.42669,0.36621,0.1182
-0.71613,1.8044,-0.72569,9.0025,0.41539,0.33475,0.055589
-0.71423,1.6671,-0.86299,7.9042,0.3543,0.25717,0.066584
-0.72751,1.0395,-1.118,7.8453,0.17929,0.17135,0.099876
-0.74612,-0.82376,-1.4318,10.317,-0.098044,0.11087,0.12187
-0.77588,-1.5495,-1.0003,11.219,-0.22999,0.21166,0.078802
-0.88293,-1.4318,-1.0199,8.8064,-0.07086,0.3036,0.081245
-0.99936,-2.2163,-1.4318,8.7279,0.25473,0.17929,0.022602
-0.99997,-2.2751,-1.8829,12.141,0.026573,0.14813,0.029627
-0.99997,0.2942,-1.0199,8.7083,-0.16463,0.12034,0.20586
-0.99997,0.23536,1.6279,7.4531,-0.28527,0.059865,0.1967
-0.99997,-0.039227,2.2359,7.1196,-0.34147,-0.030849,0.18601
-0.99997,0.17652,0.56879,8.0807,-0.3317,-0.062003,0.14264
-0.99997,-0.45111,-3.1381,10.199,-0.18418,-0.037568,0.06353
-0.96429,-0.21575,-4.4914,12.043,0.11515,0.0024435,0.017715
-0.61749,-0.078453,-1.4318,12.631,0.4612,0.068417,-0.17715
-0.21393,-0.35304,1.0787,10.925,0.66706,0.16585,-0.1967
0.11191,0.76492,0.76492,7.6884,0.59926,0.22694,0.024129
0.36752,0.54917,0.52956,6.9039,0.3259,0.19334,0.04948
0.56473,-0.98067,-2.1182,8.218,0.033903,0.083078,0.069028
0.80417,-0.13729,-6.1782,8.7475,-0.096517,-0.013439,0.032376
0.99939,2.1378,-5.7467,7.7473,-0.019548,-0.018021,-0.039401
1,1.6475,-2.6674,8.7868,0.16188,0.065057,-0.11881
1,1.0395,-0.31381,8.9044,-1.9667,-0.66035,0.14844
1,0.27459,-1.6671,8.2572,-1.6527,-0.66065,0.10629
1,1.1964,-3.3931,7.9434,-0.99602,-0.44502,0.084299
1,1.5102,-3.1381,8.2572,-0.29627,-0.13744,-0.073304
1,1.2945,-1.7848,9.2575,0.097128,0.078191,-0.076969
1,1.0395,-1.0199,9.1986,0.1127,0.16341,0.021686
1,0.80415,-1.3533,8.9437,-0.13775,0.14936,0.088881
1,0.56879,-2.0594,8.9044,-0.44929,0.049786,0.12523
1,0.8826,-3.2362,8.4926,-0.61117,-0.075136,0.24771
1,1.4318,-3.9227,8.0807,-0.40409,-0.135,0.23091
0.99478,1.0787,-4.0011,8.4926,-0.0036652,-0.10537,-0.0082467
0.93732,0.98067,-2.7655,9.434,0.46976,-0.007025,-0.083994
0.83807,0.80415,-2.0594,9.7478,0.82009,0.11759,-0.054978
0.68585,1.5298,-2.7459,8.2572,0.905,0.21991,0.033598
0.51404,1.8437,-2.942,8.1591,0.748,0.24801,0.12828
0.37488,1.3925,-2.9028,9.179,0.49602,0.21838,0.21105
0.26297,0.5884,-2.5105,9.4928,-0.078191,-0.16768,-0.081856
0.16183,0.2942,-1.5102,9.1202,-0.25351,-0.15547,-0.082161
0.049866,-0.19613,-0.86299,9.5713,-0.39279,-0.1686,0.016493
-0.062897,-0.33343,-0.74531,9.1986,-0.44502,-0.19364,0.023824
-0.19263,-0.05884,-1.3533,8.6299,-0.41386,-0.2303,0.021075
-0.28491,0.25497,-2.2948,8.4926,-0.32254,-0.24771,-0.0033598
-0.35773,0.90221,-2.3732,8.2768,0.13836,-0.23732,-0.039095
-0.42368,0.54917,-2.1575,6.5508,0.066279,-0.19548,-0.066584
-0.45456,0.27459,-1.5298,6.3547,0.021075,0.45296,0.10965
-0.46225,-0.64724,-0.8826,9.9439,-0.017715,0.43494,0.096822
-0.46585,-0.54917,-1.471,10.454,-0.051313,0.28466,-0.12095
-0.46606,0.43149,-1.6279,8.7083,-0.094684,0.10568,-0.13408
-0.47592,-0.74531,-1.0983,9.2575,-0.13286,-0.035125,-0.13531
-0.45901,-0.68647,-1.5887,11.631,-0.15119,-0.13225,-0.10599
-0.40585,0.17652,-1.6475,11.729,-0.18876,-0.2303,-0.036041
-0.31396,-0.27459,-1.2553,12.082,-0.31398,-0.37324,0.050702
-0.18161,-0.33343,-1.8044,12.082,-0.67287,-0.54245,0.016493
0.010834,1.2356,-2.2751,10.199,-0.58277,-0.6918,0.0061087
0.18884,1.0787,-1.9809,8.8064,-0.43433,-0.73823,0.035736
0.36099,0.66685,-1.4318,8.5514,-0.27978,-0.66768,-0.018326
0.46262,0.49033,-1.1768,8.4926,-0.20311,-0.55589,-0.050702
0.51227,0.41188,-1.3533,8.1787,-0.22938,-0.43494,-0.062003
0.55554,0.43149,-1.9809,8.2572,-0.49724,-0.33995,-0.030849
0.60742,0.72569,-2.4517,8.5514,-0.64416,-0.30207,0.0076358
0.67325,0.66685,-2.6086,8.4141,-0.37385,-0.30543,-0.0058032
0.74545,0.66685,-1.8044,8.218,-0.3204,-0.31704,0.010996
0.79776,0.74531,-1.6475,8.1003,-0.21166,-0.32254,-0.013134
0.82507,0.74531,-2.2555,7.8649,-0.09896,-0.31796,-0.029016
0.83023,1.2945,-2.9028,7.8649,0.0085521,-0.29841,-0.031765
0.85245,1.7652,-2.7655,7.6884,0.11545,-0.27978,-0.026267
0.85284,2.1575,-2.1967,7.7865,-0.30543,-0.26267,-0.016493
0.84219,1.9613,-2.0594,7.61,-0.36591,-0.21808,-0.016188
0.8172,1.216,-2.687,7.9042,0.10812,0.074526,0.082772
0.79562,0.92183,-2.7655,9.2575,-0.21105,0.021991,0.055894
0.75635,0.45111,-2.589,9.6694,-0.23854,-0.032987,0.064446
0.71692,0.41188,-2.6086,9.5321,-0.20159,-0.039401,0.056505
0.65945,0.35304,-2.2163,9.3555,-0.074526,0.019242,0.028405
0.58383,0.41188,-1.7848,9.4928,0.10018,0.079412,0.023824
0.49463,0.60801,-2.0594,9.4144,0.21411,0.084299,0.059254
0.4082,1.0787,-2.2948,9.4732,0.20495,0.053145,0.090103
0.32874,1.118,-1.9417,9.689,0.28466,0.20525,0.0033598
0.24112,1.2945,-1.471,9.5713,0.25901,0.19609,0.037263
0.18018,1.0787,-1.8829,9.1202,0.22205,0.16218,-0.091324
0.14557,1.3337,-2.8439,8.3357,0.19517,0.1292,-0.11209
0.13089,1.824,-3.3931,7.963,0.19792,0.12675,-0.12828
0.13452,1.5102,-3.1577,8.0807,0.22419,0.146,-0.11545
0.15494,0.98067,-2.3732,8.5906,0.25473,0.15638,-0.076664
0.14661,1.0395,-1.9809,8.8456,0.27336,0.15791,-0.035125
0.12201,0.5884,-2.2751,8.7083,0.22358,0.16463,0.050396
0.070374,0.64724,-2.0986,8.7279,0.17013,0.17165,0.053451
-0.0068359,0.27459,-1.7848,8.7083,0.076053,0.14416,0.059865
-0.083893,0.41188,-1.5102,8.9044,-0.036041,0.078191,0.072998
-0.14679,-0.13729,-1.216,9.2575,-0.11606,0.025962,0.078496
-0.19821,0.33343,-1.6867,9.179,-0.1405,-0.002138,0.072998
-0.22336,0.49033,-2.1575,8.8652,-0.1011,-0.020159,0.066584
-0.22177,1.1376,-2.5301,8.5514,-0.016188,-0.014661,0.058643
-0.2045,1.216,-2.432,8.9044,0.071471,0.026267,0.051313
-0.17569,1.1964,-1.9809,9.0613,0.11668,0.072998,0.054978
-0.16803,0.98067,-1.824,9.3163,0.13683,0.11026,0.069333
-0.16061,1.118,-1.9809,9.3163,0.12614,0.13989,0.069028
-0.15216,0.8826,-2.3732,9.0417,0.079718,0.14661,0.067806
-0.15222,1.1964,-3.0008,8.8652,0.0024435,0.12889,0.077885
-0.17719,1.4318,-2.6086,8.9044,-0.087354,0.11209,0.072998
-0.20322,0.70608,-1.9809,9.4732,-0.17807,0.10171,0.062003
-0.24686,0.64724,-2.0594,9.2771,-0.091324,-0.18418,-0.092241
-0.25522,0.41188,-2.2555,8.6887,0.21472,-0.03207,-0.094073
-0.25177,0.56879,-2.4124,8.3945,0.43524,0.13408,-0.062919
-0.27951,0.60801,-2.1575,8.8848,0.50335,0.21441,-0.031765
-0.31418,0.74531,-1.5102,9.2183,0.45204,0.18082,-0.0085521
-0.37378,0.74531,-1.5102,9.179,0.33445,0.084605,-0.0039706
-0.44629,0.98067,-1.5691,8.4141,0.21655,-0.021075,-0.015577
-0.53867,0.66685,-2.4124,7.8649,0.17379,-0.084605,-0.04948
-0.62106,0.90221,-2.687,8.316,0.35705,-0.08491,0.027184
-0.6651,1.0199,-1.7456,9.3163,0.31062,-0.026878,0.045815
-0.6825,0.49033,-1.0591,10.003,0.21044,0.065668,-0.065668
-0.68512,0.27459,-0.94144,10.277,0.135,0.13653,-0.029627
-0.67041,0.27459,-2.1575,9.6301,0.099571,0.16524,0.0067195
-0.6153,0.80415,-3.2558,8.7083,0.10171,0.18692,0.018937
-0.53741,0.8826,-2.8832,8.316,0.21075,0.22297,0.017715
-0.43982,0.17652,-1.1768,8.8064,0.30177,0.28314,0.021075
-0.35757,-0.50995,-0.39227,9.434,0.3207,0.31857,-0.028711
-0.3074,0.25497,-1.0199,9.6301,0.39951,0.29902,-0.065668
-0.30814,0.76492,-1.6475,9.179,0.34667,0.29993,0.055589
-0.34189,1.5102,-1.3533,8.3945,0.30329,0.32132,0.040317
-0.39764,1.5102,-1.2553,8.0807,0.31001,0.31796,0.058338
-0.46265,0.92183,-1.5102,8.218,0.31032,0.29596,0.067501
-0.5112,0.90221,-1.5691,8.8064,0.13897,0.22571,0.040928
-0.54358,0.039227,-1.824,9.6301,0.20372,0.10324,0.026878
-0.56641,0.098066,-2.4517,9.6301,-0.33628,-0.060476,-0.10385
-0.5834,-0.54917,-1.726,9.8851,-0.56719,-0.23182,-0.067806
-0.60016,-1.3337,-0.90221,11.219,-0.62797,-0.3711,-0.035125
-0.63519,-1.0199,-0.41188,10.689,-0.4722,-0.46762,0.015882
-0.72797,0.17652,-0.74531,7.9434,-0.12614,-0.53145,0.06353
-0.84317,0.25497,-2.6086,8.5514,0.33017,-0.52718,0.089492
-0.89212,1.5298,-3.7069,8.316,0.18754,-0.39737,0.062003
-0.90353,2.0594,-2.3732,8.7868,-0.054062,-0.15058,-0.020464
-0.95825,2.6086,-0.62763,7.1589,0.22999,0.15547,0.082161
-0.99997,1.6083,2.1182,6.8254,0.29322,0.11118,-0.016188
-0.99997,-1.3141,-1.0199,12.396,0.3427,0.054367,-0.18326
-0.99997,0.86299,-2.2555,13.043,0.30146,-0.041844,-0.11576
-0.99997,0.80415,0.21575,11.376,0.14142,-0.1127,-0.048564
-0.99997,0.56879,2.1378,8.7083,-0.10965,-0.1909,0.047037
-0.99997,0.66685,-0.17652,6.8647,-0.49663,-0.32926,0.11729
-0.99997,1.2945,-4.0011,6.5312,-0.89736,-0.48564,0.135
-0.99997,2.2948,-3.295,8.4141,-1.1619,-0.55375,-0.0036652
-0.98236,0.74531,-1.6475,9.9636,-0.97066,-0.51526,-0.0042761
-0.74112,0.8826,-0.84337,9.2575,-0.59651,-0.39004,-0.082467
-0.49973,0.98067,-0.74531,7.9434,-0.19517,-0.21136,-0.080023
-0.31232,-0.27459,-1.0003,8.8848,0.073609,-0.036652,-0.029322
-0.15585,-0.76492,-1.6475,10.317,0.17898,0.076664,0.013744
-0.055847,0.35304,-2.2751,10.277,0.16921,0.12981,0.025351
0.01709,0.74531,-1.9809,9.0613,0.077274,0.12065,-0.0018326
0.071747,0.43149,-1.118,8.4926,-0.012523,0.085521,-0.12981
0.14014,-0.33343,-0.54917,10.454,-0.079412,0.080634,-0.12034
0.19324,-0.078453,0.52956,11.729,-0.1179,0.08827,-0.042455
0.17703,-0.21575,1.7064,10.787,-0.12156,0.090103,-0.055894
0.092255,-0.64724,0.72569,9.8066,-0.10415,0.085827,-0.047037
-0.027222,0.56879,-0.72569,7.9434,-0.060781,0.07086,-0.059865
-0.14178,0.90221,-2.0398,7.1392,0.038485,0.076969,-0.10018
-0.20105,0.74531,-2.2948,7.8649,0.19242,0.11881,-0.12675
-0.21603,0.80415,-1.824,8.7868,0.059254,0.36285,-0.18754
-0.21509,0.43149,-1.6475,9.5125,0.064752,0.2584,-0.20708
-0.20108,0.76492,-1.1768,9.1594,0.087048,0.13347,-0.13225
-0.16534,0.66685,-0.70608,8.7475,0.13042,0.059559,-0.13806
-0.12808,0.45111,-1.0199,9.179,0.16921,0.04948,-0.14111
-0.065125,0.90221,-1.4318,9.1594,0.21075,0.074526,-0.13989
0.0077515,0.8826,-1.3141,9.787,0.23182,0.12889,-0.14447
0.09024,0.60801,-0.68647,9.8263,0.22327,0.17196,-0.1573
0.16382,1.1768,-0.39227,9.0417,-0.057421,-0.053451,0.14569
0.22745,0.98067,-0.23536,8.8064,0.045204,0.018326,0.17562
0.30252,0.25497,-0.31381,9.1594,0.1066,0.089797,-0.14172
0.34808,-0.37265,-0.098066,9.8066,0.019242,0.16371,-0.1689
0.36536,-0.64724,-0.90221,10.317,-0.20159,0.2306,-0.15974
0.29889,-0.05884,-1.3337,8.0022,-0.45754,0.24954,-0.10782
0.18597,-0.21575,-1.4318,9.1006,-0.10232,0.18815,-0.0097738
0.094482,-0.90221,-0.47072,11.572,-0.09896,0.091019,0.092241
0.017944,-0.84337,-0.72569,11.356,-0.65699,0.018937,0.08491
-0.045563,0.17652,-1.0395,8.6887,-0.58215,-0.060781,0.051924
-0.072998,0.86299,-1.3533,7.3354,-0.43982,-0.16707,0.23702
-0.073486,0.11768,-0.098066,8.8652,-0.24251,-0.24129,0.26328
-0.042664,-0.50995,0.35304,10.297,-0.042455,-0.23946,0.21014
0.035065,-0.13729,0.039227,11.533,0.093768,-0.17593,0.14569
0.1347,0.43149,-0.05884,10.67,-0.60781,-0.058948,0.11515
0.17499,0.54917,0.52956,8.6887,-0.65454,0.068111,0.10629
0.13159,-0.66685,0.25497,7.6492,0.48045,0.22266,-0.0085521
0.051758,-1.118,-1.2553,7.3746,0.59346,0.24343,0.077274
-0.014923,-0.64724,-2.6282,8.0611,0.62369,0.16432,-0.17898
-0.016266,0.56879,-2.0986,8.5514,0.49786,0.084299,-0.16249
0.010284,0.90221,-1.4318,8.4926,0.14966,-0.10324,-0.10721
0.071625,1.118,-0.43149,8.4926,-0.17746,-0.27642,-0.062003
0.12897,0.80415,1.0003,9.2575,-0.38637,-0.36438,-0.071166
0.17706,-0.019613,1.5691,9.9439,-0.52168,-0.37996,-0.043982
0.18707,-0.35304,1.3337,9.434,-0.59376,-0.36774,-0.051007
0.17349,-0.5884,-0.21575,10.062,-0.65485,-0.38607,-0.090408
0.18845,0.72569,-1.8829,10.572,-0.70341,-0.41386,0.16707
0.20996,1.5298,-2.3144,9.9439,-0.72662,-0.43768,0.19884
0.23962,1.2945,-1.5691,9.2575,-0.69578,-0.46304,0.21075
0.23984,0.74531,-0.54917,9.434,-0.58338,-0.43188,0.18143
0.20395,0.35304,-0.43149,9.5321,-0.38057,-0.31398,0.1066
0.1774,0.56879,-0.72569,9.8459,-0.17807,-0.16463,0.0094684
0.18335,0.76492,-1.3729,9.9439,0.023518,-0.1405,-0.030238
0.25018,0.90221,-1.7456,9.689,0.016493,-0.25595,-0.10018
0.30151,1.3925,-1.0591,9.0613,0.024435,-0.32529,0.092546
0.33536,1.6083,-0.62763,8.3945,0.07025,-0.29352,0.063225
0.30939,1.0591,-0.86299,8.7083,0.10904,-0.18143,0.033598
0.2713,0.13729,-0.70608,9.4732,0.044288,-0.079412,-0.0097738
0.20447,-0.68647,-0.49033,9.7478,-0.081856,-0.082467,-0.021075
0.10007,-0.21575,0.078453,8.316,-0.12889,-0.14569,-0.0082467
0.01062,0.039227,0.2942,7.61,-0.021686,-0.13164,-0.15485
-0.039581,-0.82376,-0.90221,8.4141,0.16829,-0.029322,-0.14264
-0.028503,-0.5884,-2.0594,10.12,0.29169,0.091019,-0.14416
0.05072,-0.45111,-2.7459,10.474,0.28711,0.14844,-0.13653
0.17545,-0.37265,-0.8826,11.062,0.20831,0.13286,-0.11637
0.29031,-0.039227,0.37265,9.9636,0.12614,0.098044,-0.11087
0.34872,-0.05884,0,7.8649,0.063225,0.085521,-0.12401
0.30682,-0.019613,-1.5691,6.2959,0.025351,0.10629,-0.14722
0.25784,0.74531,-2.432,7.0608,-0.48045,-0.064446,-0.038179
0.22955,0.17652,-0.90221,11.454,-0.7422,-0.076969,0.0039706
0.19952,0.33343,0.31381,10.415,-0.84299,-0.059865,-0.11148
0.13641,0.98067,1.726,7.9042,-0.66615,0.01069,-0.19517
0.050903,-0.5884,0.19613,9.3555,-0.25809,0.14997,-0.2532
-0.0055542,0.33343,-0.74531,10.748,0.15455,0.26725,-0.27978
-0.09079,-0.70608,-1.1768,11.199,0.39156,0.30177,-0.24923
-0.21295,-0.21575,-1.3533,11.631,0.35797,0.24435,-0.14936
-0.31622,0.8826,-1.824,9.8066,-0.0085521,0.13775,0.21319
-0.38785,1.6083,-0.72569,8.2768,-0.10507,0.15302,0.15974
-0.42316,0.70608,-0.49033,9.0613,-0.059559,0.15455,0.040928
-0.40735,0.98067,-1.4318,8.6299,0.041233,0.1014,0.071471
-0.32358,1.3925,-1.3337,8.3945,0.065363,0.12278,0.049175
-0.18631,0.54917,-0.37265,9.6497,0.043371,0.13164,-0.0076358
-0.055267,0.66685,-0.41188,9.434,0.059254,0.090103,0.036957
0.0354,0.76492,-0.37265,8.8456,0.051007,-0.0079412,0.15882
0.062775,0.39227,-0.05884,8.3357,0.7254,-0.096517,-0.059559
0.066711,0.078453,-0.17652,9.6694,0.58551,-0.064141,-0.076969
0.061707,-0.39227,-0.39227,10.375,0.52993,-0.035736,0.007025
0.037476,0.2942,-0.56879,9.2575,0.53634,-0.049786,0.033903
0.020081,0.76492,-0.5884,8.3357,0.46304,0.018021,0.036041
-0.030334,0.72569,-0.72569,8.7279,0.25687,0.17715,0.009163
-0.095215,0.23536,-0.56879,10.12,0.90286,0.37018,-0.02474
-0.20209,-0.13729,-0.86299,10.199,0.84177,0.59346,-0.043066
-0.36716,0.098066,-1.216,7.4334,-0.44532,-0.17349,-0.016493
-0.5423,-0.52956,-0.62763,8.7083,-0.76022,-0.21533,0.15455
-0.71289,-0.90221,-0.86299,12.886,-0.95264,-0.2306,-0.087048
-0.85129,-0.17652,-0.80415,11.611,-0.97158,-0.15363,-0.12828
-0.93552,-0.13729,0.76492,9.5713,-0.70066,-0.0054978,-0.18876
-0.99384,-0.05884,1.4906,7.61,-0.12889,0.15455,-0.25229
-0.99997,0.23536,-0.86299,6.1193,0.49999,0.3149,-0.26237
-0.99997,0.90221,-2.5105,6.5508,0.87995,0.41508,-0.16829
-0.97043,-0.35304,-1.5691,10.297,0.72113,0.29658,-0.011912
-0.90945,-0.74531,1.824,12.356,0.081245,0.02138,-0.013744
-0.90228,-0.35304,2.8635,11.14,-0.66829,-0.24923,0.22907
-0.95584,0.17652,1.1572,9.434,-1.2746,-0.46701,0.24282
-0.99112,0.49033,-2.2751,9.2183,-1.5873,-0.59223,0.25931
-0.9599,1.6867,-4.0796,7.3158,-1.5989,-0.60567,0.22663
-0.87387,1.6867,-2.7262,7.4334,-1.3689,-0.50763,0.16799
-0.85184,0.25497,0.13729,9.0417,-0.89431,-0.29871,0.078191
-0.93307,-1.471,-0.64724,9.8459,0.61667,0.0082467,-0.053145
-0.99997,-1.6083,-2.2948,12.788,0.7477,0.30574,-0.0082467
-0.99997,1.0395,-0.68647,11.219,0.82406,0.47128,0.025656
-0.99997,0.35304,1.0787,8.2572,0.81276,0.52901,0.069028
-0.99997,0.27459,0.76492,6.8254,0.81825,0.47831,0.15027
-0.99997,0.54917,-0.33343,7.5315,0.91844,0.20495,0.25809
-0.99997,0.72569,0.72569,6.7077,-0.28069,-0.035125,0.20006
-0.99997,-1.8044,-0.098066,10.12,0.28008,-0.076664,-0.0067195
-0.99997,-2.0202,-0.52956,13.102,-0.26817,-0.0067195,0.069944
-0.99997,-0.5884,1.3141,14.808,-0.31887,0.022602,0.047037
-0.92114,-0.13729,1.0003,12.043,-0.37507,0.059254,-0.044288
-0.78882,0.86299,-0.68647,9.3359,-0.46823,0.10476,-0.015577
-0.64673,1.2356,-1.7456,7.3746,-0.5849,0.13653,0.016493
-0.44153,1.4514,-1.824,6.8058,-0.71288,0.12584,0.051313
-0.20636,0.98067,-0.86299,7.1589,-0.81306,0.05681,0.082467
0.010651,0.45111,-0.17652,8.0022,-0.82558,-0.018937,0.08827
0.21094,0.49033,-0.80415,9.0417,-0.7199,-0.044288,0.057421
0.43484,0.90221,-0.8826,9.8066,-0.50549,-0.029627,0.053451
0.71783,1.0395,-0.098066,9.6694,-0.24801,-0.0030543,0.042761
0.96332,1.1964,0.62763,9.1594,-0.032376,0.036652,0.057421
1,1.0787,0.98067,8.6299,0.063225,0.06689,0.066279
1,0.92183,1.0003,8.7475,0.039401,0.065668,0.069944
1,0.39227,0.68647,9.0613,-0.03146,0.045509,0.07086
1,-0.35304,-0.72569,9.6301,-0.10873,0.02138,0.064752
1,-0.05884,-1.6475,9.7282,-0.2532,0.0061087,0.045204
1,0.11768,-1.8044,9.8263,-0.35491,-0.002138,0.067195
1,0.13729,-1.0395,9.6301,-0.47159,-0.027184,0.049175
1,0.078453,-0.72569,9.3555,-0.53542,-0.08094,0.055589
1,0.098066,-0.5884,9.8066,-0.48472,-0.15088,0.066584
1,0.098066,-0.27459,9.689,-0.3259,-0.17959,0.07086
1,0.039227,-0.43149,9.7478,-0.13806,-0.13225,0.057116
1,0.17652,-1.118,9.0221,0.020769,-0.049175,0.037568
1,0.64724,-1.0591,8.9437,0.087659,0.03207,-0.016188
1,0.27459,-0.62763,9.1202,0.028405,0.07025,-0.0027489
1,0.27459,-0.56879,9.3359,-0.14539,0.057421,0.091019
1,0.27459,-1.4122,8.6299,-0.33231,0.018021,0.098655
1,0.35304,-2.2751,8.3945,-0.39645,-0.028405,0.079718
1,0.23536,-1.824,9.1986,-0.28436,-0.052229,0.034819
1,0.27459,-1.0983,9.7478,-0.051618,-0.017715,-0.0097738
1,0.13729,-1.0395,9.6497,0.1686,0.065363,-0.027489
1,-0.019613,-1.118,9.434,0.16493,0.10507,-0.033903
1,0.35304,-1.471,9.2771,-0.066584,0.054367,0.055894
1,0.72569,-1.216,9.1986,-0.23152,0.036652,-0.035125
1,0.74531,-0.68647,8.9437,-0.27458,0.083383,-0.049175
1,0.2942,-0.31381,9.1202,-0.18601,0.18479,-0.051007
