-0.63193,3.9423,4.3345,7.3746,0.29688,1.7,-0.54275
-0.59506,3.9619,4.1188,7.2961,0.13989,1.7049,-0.51068
-0.57025,3.805,3.805,7.0216,-0.041233,1.7034,-0.47312
-0.54056,3.7265,3.9815,6.8254,-0.18662,1.6997,-0.49633
-0.49948,3.805,4.3149,6.9823,-0.2587,1.6771,-0.53573
-0.46332,3.4127,4.6287,7.1196,-0.23396,1.6402,-0.55955
-0.43567,3.2558,4.3738,6.9627,-0.13683,1.5974,-0.56688
-0.41467,3.0008,3.8442,6.4332,-0.0076358,1.5379,-0.56474
-0.39386,2.7066,3.9619,6.8254,0.12981,1.4664,-0.40959
-0.38712,2.5497,5.0995,8.0807,0.24648,1.3974,-0.42058
-0.40228,1.7456,5.7467,8.6299,0.30604,1.3347,-0.48991
-0.44202,1.6475,4.9229,8.3749,0.29322,1.2804,-0.46853
-0.51013,1.5298,4.0796,7.8061,0.219,1.2355,-0.43891
-0.57462,1.3533,4.4718,8.2572,0.10904,1.1909,-0.41447
-0.64362,0.92183,5.4721,8.8652,-0.0058032,1.1426,-0.40806
-0.71774,0.17652,5.884,9.3359,-0.090408,1.0904,-0.40745
-0.81366,0.098066,5.5506,9.3359,-0.11301,1.0391,0.067195
-0.9169,-0.27459,4.7856,9.2183,-0.067501,0.9954,0.083078
-0.99997,-0.5884,4.7072,9.5125,0.025351,0.96608,-0.42852
-0.99997,-1.216,5.0995,9.5321,0.1347,0.92882,-0.42638
-0.99997,-1.118,5.6879,9.8066,0.21991,0.80207,-0.41905
-0.99997,-1.0199,5.884,9.9832,0.23457,0.54062,-0.36621
-0.99997,-1.216,5.6486,9.8066,0.16707,0.30024,-0.22571
-0.99997,-1.3925,5.2368,9.1594,0.080329,0.13347,-0.057116
-0.99997,-1.3337,4.9033,8.6299,0.38943,-0.01069,-0.044288
-0.99997,-1.7652,5.6879,9.5125,0.062614,-0.13744,-0.049786
-0.99997,-3.1185,7.355,12.964,0.10965,-0.22297,0.025962
-0.99997,-2.3732,7.61,13.729,0.17257,-0.25381,0.0076358
-0.85522,-1.3141,6.4332,11.866,0.23152,-0.24404,0.019242
-0.62039,-0.86299,5.2564,9.1986,0.2926,-0.21105,-0.0012217
-0.33398,-0.50995,4.7072,7.4531,0.35339,-0.16493,-0.031154
-0.030457,-1.0787,4.8641,6.9627,0.39187,-0.11423,-0.043677
0.26666,-1.0787,5.0995,6.8254,0.12004,0.035125,-0.021991
0.54999,-1.6083,5.2564,7.1589,0.14569,0.033292,-0.023824
0.79984,-1.8437,5.531,7.4334,0.16157,0.039401,-0.024435
0.98218,-2.079,5.7859,8.2376,0.16982,0.041539,-0.027489
1,-2.1575,5.6879,8.7475,0.17532,0.036041,-0.028711
1,-1.9417,5.3937,8.8064,0.16829,0.037568,-0.029016
1,-1.4514,5.3937,8.6299,0.14569,0.044899,-0.029016
1,-1.216,5.4721,8.316,0.11515,0.049786,-0.025045
1,-1.1768,5.4721,8.316,0.088575,0.047647,-0.007025
1,-1.216,5.7859,8.4729,0.072693,0.043371,-0.0054978
1,-1.3141,5.7859,8.4926,0.065668,0.035736,-0.022907
1,-1.3141,5.7859,8.4141,0.064446,0.027184,-0.021075
1,-1.4514,5.7075,8.4926,0.066279,0.014355,-0.012217
1,-1.3337,5.5898,8.4141,0.058032,-0.0012217,0
1,-1.4906,5.3937,8.0611,0.039095,-0.011606,0.0018326
1,-1.5298,5.374,8.0807,0.024129,-0.016799,-0.0039706
1,-1.4514,5.3348,7.9042,0.027794,-0.018631,-0.015882
1,-1.216,5.3937,8.1003,0.051007,-0.020464,-0.021075
1,-1.4906,5.531,8.2376,0.07025,-0.015882,-0.0018326
1,-1.4906,5.7075,8.2572,0.076358,-0.0073304,-0.00061087
1,-1.6083,5.7075,8.218,0.072998,0.0009163,0.002138
1,-1.4906,5.7075,8.0611,0.055283,0.0039706,0.0045815
1,-1.5298,5.5898,8.218,0.03146,0.0058032,-0.0018326
1,-1.4514,5.7075,8.4926,0.012217,0.0067195,-0.0097738
1,-1.5495,5.7859,8.4926,-0.011301,0.014966,-0.0088575
1,-1.6083,5.8644,8.316,-0.020159,0.016493,-0.016799
1,-1.3141,5.7859,8.1787,-0.029932,0.011606,0.010385
1,-1.3141,5.5702,8.0611,-0.018631,0.0073304,0.0094684
1,-1.471,5.7859,8.1787,0.0076358,0.011912,0.0009163
1,-1.3141,5.9036,8.218,0.037568,0.01741,-0.0048869
1,-1.4514,5.9624,8.1787,0.068417,0.02138,-0.0030543
0.96356,-1.3337,5.7075,8.0807,0.096517,0.029322,-0.0036652
0.8923,-1.3141,5.7467,7.9434,0.036957,0.0054978,-0.0024435
0.83984,-1.4514,5.7859,7.9434,0.03543,0.0082467,-0.0018326
0.80164,-1.4514,5.8055,8.1787,0.028711,0.0058032,-0.019853
0.77417,-1.3729,5.7859,8.1199,0.016493,0.0048869,-0.019548
0.71432,-1.6083,5.884,8.316,-0.0027489,0.0073304,-0.019548
0.66364,-1.4514,5.7859,8.4141,-0.024129,0.012217,-0.014966
0.62845,-1.3729,5.6486,8.2572,0.029322,0.01741,-0.01069
0.58517,-1.5298,5.7467,8.1003,0.033903,0.019853,-0.0061087
0.5481,-1.6083,5.7075,8.1199,-0.045204,0.020159,-0.002138
0.51431,-1.3925,5.6879,8.0022,-0.036346,0.017715,-0.0054978
0.48227,-1.6279,5.7467,8.1787,-0.03146,0.018937,-0.002138
0.46362,-1.3925,5.7467,8.1591,-0.032987,0.018021,-0.002138
0.42099,-1.471,5.8644,8.1787,-0.037263,0.018631,-0.0018326
0.40106,-1.3925,5.7075,8.0807,-0.041233,0.021991,-0.00061087
0.36798,-1.4318,5.7467,8.1591,-0.04215,0.02138,0.0012217
0.34717,-1.3729,5.7271,8.1003,-0.048258,0.018937,0.00030543
0.32004,-1.3925,5.884,8.1787,-0.031154,0.015882,-0.0045815
0.28809,-1.5298,5.8448,8.1199,-0.028711,0.012828,-0.0085521
0.2598,-1.5495,5.7075,8.1787,-0.022297,0.011301,0.012523
0.24344,-1.3729,5.7859,8.2572,-0.013134,0.0094684,0.0094684
0.22656,-1.4514,5.8448,8.218,-0.0030543,0.0073304,0.0048869
0.19565,-1.4514,5.7859,8.1787,0.00061087,0.0073304,0.0024435
0.16748,-1.5887,5.6879,8.1199,-0.0061087,0.0097738,-0.00030543
0.15417,-1.4906,5.884,8.0611,-0.016799,0.011301,-0.0015272
0.13284,-1.3729,5.8644,8.1003,-0.027794,0.013134,-0.018631
0.1073,-1.4906,5.9624,8.0022,-0.036041,0.010385,-0.020464
0.091217,-1.5298,5.8644,8.0611,-0.034208,0.011606,-0.010385
0.068024,-1.4318,5.884,8.0807,-0.026267,0.012828,-0.011301
0.046204,-1.5298,5.884,8.1199,-0.01741,0.01069,-0.014355
0.028473,-1.6083,5.9036,8.0807,-0.0009163,0.007025,-0.016799
0.02771,-1.3925,5.7075,8.0022,0.015882,0.0054978,-0.016493
0.011688,-1.3729,5.7859,8.218,0.023824,0.0054978,-0.016493
-0.007843,-1.3337,5.7271,8.2572,-0.00030543,0.021686,-0.016188
-0.0022888,-1.7064,5.7271,8.1787,0.0061087,0.022602,-0.018631
0.002533,-1.4318,5.884,8.1787,0.012217,0.020159,-0.019548
0.0050354,-1.3337,5.8252,8.2376,0.014661,0.018326,-0.019853
0.0024109,-1.3925,5.8644,8.1787,0.014355,0.01741,-0.018631
9.1553e-05,-1.6279,5.7467,8.1787,0.01069,0.01741,-0.017104
0.002533,-1.3925,5.7271,8.1003,0.0036652,0.017104,-0.014661
0.0059204,-1.4514,5.7859,8.1003,-0.0012217,0.015882,-0.014661
0.0052185,-1.3337,5.7075,8.0807,0.027489,0.01069,-0.023518
-0.0059814,-1.471,5.8055,8.1003,0.025656,0.014661,-0.024129
-0.0056458,-1.471,5.884,8.0611,0.02138,0.015272,-0.034514
-0.019012,-1.6083,5.8644,7.9434,0.022297,0.016188,-0.030849
0.0067444,-1.471,5.8644,8.0807,0.025962,0.01741,-0.027184
0.0091858,-1.4514,5.884,8.0611,0.031765,0.020159,-0.025045
0.017456,-1.4318,5.884,8.1003,0.039095,0.024435,-0.024435
0.018127,-1.6279,5.9428,8.218,0.039706,0.026878,-0.02474
0.028198,-1.4514,5.8644,8.0807,0.035125,0.026573,-0.022602
0.029907,-1.4318,5.9036,8.1199,0.026573,0.022907,-0.021686
0.029388,-1.7456,5.9624,8.1003,0.01405,0.026878,-0.022602
0.040741,-1.3337,5.9428,8.1787,0.0061087,0.026878,-0.023213
0.042175,-1.5495,5.884,8.0807,0.0097738,0.023213,-0.024129
0.047913,-1.5298,5.884,8.0218,0.016188,0.022907,-0.025351
0.051178,-1.5887,5.9036,8.1199,0.014355,0.024129,-0.02474
0.052399,-1.4514,5.8644,8.0807,0.0073304,0.025656,-0.025045
0.048004,-1.5298,5.884,8.0022,-0.00061087,0.026878,-0.021686
0.050568,-1.6083,5.884,7.9238,-0.0079412,0.029322,-0.021991
0.041565,-1.4514,5.9624,8.0807,-0.014966,0.029016,-0.024129
0.031921,-1.4514,5.9624,8.0807,-0.018631,0.027184,-0.025962
0.016632,-1.6083,5.9428,8.0807,-0.013439,0.027489,-0.023213
0.011993,-1.6083,5.9624,8.1787,-0.0079412,0.026267,-0.022602
-0.0046692,-1.5887,5.8644,8.1787,-0.0067195,0.023824,-0.021686
-0.016174,-1.3337,5.9428,8.1003,-0.0051924,0.021686,-0.020464
-0.0242,-1.7064,5.884,8.1003,-0.026267,0.0082467,0.0082467
-0.026337,-1.471,5.9036,8.0611,-0.021991,0.0073304,0.0058032
-0.022186,-1.5298,6.0213,8.0022,-0.016799,0.0073304,-0.0012217
-0.018707,-1.471,5.9624,8.0807,-0.019242,0.0079412,0.0045815
-0.018158,-1.471,6.0213,8.0218,-0.026267,0.0088575,0.0076358
-0.029572,-1.7064,5.9624,8.1591,-0.0281,0.0094684,0.01069
-0.025909,-1.5298,5.884,8.0022,-0.029627,0.0097738,0.010996
-0.045013,-1.5298,6.0017,8.0022,-0.029322,0.010996,0.010385
-0.049591,-1.4514,5.9036,8.0022,-0.018631,0.016188,-0.0051924
-0.050507,-1.4318,5.884,8.0022,-0.017715,0.017104,-0.0051924
-0.056976,-1.4514,5.9624,7.9434,-0.019548,0.017715,0.0036652
-0.057861,-1.4906,6.0213,8.1003,-0.023518,0.01741,0.0027489
-0.065735,-1.4514,6.0213,8.0611,-0.027184,0.016799,-0.0009163
-0.074219,-1.5298,5.9624,8.0022,-0.027794,0.015577,-0.0030543
-0.089996,-1.7456,6.0213,8.0807,-0.024435,0.013439,-0.0048869
-0.087891,-1.6475,5.9624,8.0611,-0.018937,0.009163,-0.0054978
-0.10037,-1.4514,5.884,8.0022,-0.0088575,0.0039706,0.0030543
-0.10635,-1.5495,5.9428,8.0022,-0.010996,-0.0009163,0.00030543
-0.10526,-1.4514,5.9428,8.0611,-0.0097738,0.0015272,-0.0048869
-0.11093,-1.6083,5.9036,8.0022,-0.0094684,0.0073304,-0.00061087
-0.10754,-1.4906,5.9624,8.0807,-0.011912,0.010996,0.0033598
-0.097046,-1.5298,6.0213,8.0022,-0.018021,0.012523,0.0045815
-0.091888,-1.5298,6.0605,8.0611,-0.01069,0.012523,0.007025
-0.087921,-1.6083,6.0213,8.0807,-0.0051924,0.011912,0.0067195
-0.087402,-1.4514,5.884,8.0022,-0.018631,0.009163,-0.0082467
-0.10104,-1.4514,6.0017,8.0022,-0.018631,0.0079412,-0.0061087
-0.10004,-1.3925,6.0213,7.9434,-0.017715,0.0076358,-0.0015272
-0.087006,-1.4514,5.9036,7.9434,-0.018326,0.007025,-0.0045815
-0.090851,-1.6083,6.0017,7.8649,-0.022602,0.0076358,-0.0097738
-0.088837,-1.7064,6.0213,8.1787,-0.027794,0.0067195,-0.011606
-0.089874,-1.6083,5.884,8.1787,-0.019548,0.0085521,-0.011301
-0.086853,-1.3925,5.9624,8.0807,-0.018326,0.0088575,-0.010079
-0.090088,-1.5887,5.9624,8.1199,0.0051924,0.010079,-0.0009163
-0.070404,-1.7064,5.9624,8.1787,0.011912,0.0076358,-0.0015272
-0.056,-1.6083,6.0213,8.0218,0.014661,0.012217,-0.0018326
-0.040771,-1.7064,6.0017,8.0807,0.015272,0.015272,-0.0018326
-0.033356,-1.4514,5.8644,8.0022,0.013134,0.018631,-0.0009163
-0.023285,-1.3925,5.9428,8.0022,0.013134,0.021686,-0.002138
-0.028595,-1.471,5.9624,8.0807,0.012523,0.022907,-0.0024435
-0.030701,-1.6083,6.0213,7.9434,0.0079412,0.023213,-0.0024435
-0.036865,-1.5298,5.9624,8.0218,0.00061087,0.020159,0.013439
-0.0242,-1.6083,5.884,8.0807,-0.011912,0.014355,0.012217
-0.0091248,-1.4514,6.0017,8.0022,-0.021075,0.012523,-0.0027489
-0.020081,-1.6083,5.9036,8.0807,-0.020464,0.01069,-0.0018326
-0.015411,-1.4514,5.9624,7.9434,-0.012217,0.0054978,0.0012217
-0.0098877,-1.4514,6.0213,8.0022,-0.0054978,0.0030543,0.0051924
-0.0046997,-1.3925,6.0213,8.1003,-0.0082467,0.002138,0.0082467
-0.0083618,-1.3925,6.0409,8.0807,-0.013744,-0.0009163,0.011301
0.00039673,-1.6083,6.0213,8.0807,-0.016493,-0.0039706,0.021686
0.015991,-1.4514,5.9624,8.0022,-0.01405,-0.0079412,0.021075
0.023926,-1.4906,5.9036,7.963,-0.010385,-0.009163,0.011301
0.027618,-1.5298,5.8644,7.8061,-0.012523,-0.0088575,0.010079
0.031372,-1.6083,6.0213,8.0218,-0.015577,-0.01069,0.010079
0.066925,-1.4906,6.0017,8.0611,-0.015882,-0.010385,0.012828
0.064331,-1.5298,6.0213,7.9434,-0.01405,-0.0097738,0.015882
0.064697,-1.5887,6.0017,8.0022,-0.0085521,-0.0073304,0.020464
0.062195,-1.3925,5.9624,8.0807,-0.0045815,-0.0045815,-0.010385
0.062317,-1.5298,5.9624,8.0807,0.0009163,-0.0058032,-0.015577
0.060516,-1.471,5.9624,8.0807,0.0067195,-0.0085521,0.020769
0.054657,-1.5495,5.884,7.9434,0.01405,-0.010385,0.017104
0.047241,-1.3141,6.0213,8.1199,0.022602,-0.0097738,0.01069
0.040588,-1.3925,6.0409,8.1787,0.028405,-0.007025,0.0058032
0.031616,-1.3141,6.0409,8.0807,0.03146,-0.0058032,0.0033598
0.026062,-1.6083,6.0213,8.0022,0.034208,-0.0061087,-0.0030543
0.020386,-1.7456,6.0605,8.0022,-0.012828,0.0015272,-0.021991
0.020325,-1.4514,5.9624,7.9434,-0.0067195,0.0045815,-0.021686
0.027405,-1.4318,5.9624,7.9434,0.002138,0.0067195,-0.014661
0.043915,-1.3141,6.0017,8.0611,0.012523,0.0048869,-0.017715
0.051544,-1.4318,6.1978,8.0022,0.022297,0.0009163,-0.019242
0.048157,-1.4514,6.0997,8.0807,0.023824,-0.00030543,-0.022297
0.052704,-1.3141,6.1586,8.0807,-0.0064141,-0.002138,-0.023824
0.053528,-1.5298,6.1782,8.0807,-0.014355,-0.0024435,-0.022602
0.051208,-1.5298,6.0997,7.8061,-0.013134,0,-0.02138
0.051941,-1.3141,6.0213,8.0022,-0.021075,0.0009163,-0.020769
0.07782,-1.7456,6.0997,8.0022,-0.021991,0.0088575,-0.022907
0.065704,-1.3141,6.0997,7.9434,-0.013439,0.014355,-0.025656
0.08432,-1.471,6.1782,7.8061,0.0015272,0.016493,-0.023213
0.089508,-1.471,6.1782,8.0022,0.007025,0.017715,-0.019548
0.093079,-1.3925,6.3155,7.9042,0.013439,0.015577,-0.018631
0.10553,-1.2945,6.1978,7.8649,0.0009163,0.011301,-0.020464
0.10962,-1.3729,6.2763,7.8649,0.0073304,0.010079,-0.007025
0.10938,-1.2945,6.1978,7.963,0.007025,0.011606,-0.0033598
0.1152,-1.4514,6.1978,7.9042,0.00030543,0.0085521,-0.021991
0.1185,-1.4514,6.1782,8.0022,-0.01069,0.0064141,-0.022907
0.12714,-1.3337,6.1978,7.9238,-0.020769,0.0088575,-0.021075
0.11673,-1.2945,6.2763,7.9042,-0.025656,0.01069,-0.017715
0.12762,-1.4514,6.0997,8.0611,0.0076358,0.011606,-0.017104
0.11673,-1.3141,6.1978,7.963,0.0073304,0.013439,-0.014661
0.11887,-1.3141,6.1782,8.0218,0.046426,-0.012217,-0.014355
0.11795,-1.3141,6.0997,7.9042,0.054367,-0.013439,-0.014661
0.11447,-1.3925,6.1782,7.963,0.062308,-0.015882,-0.016188
0.11047,-1.3141,6.0997,7.8649,0.064446,-0.01741,-0.01741
0.11224,-1.4514,6.2566,7.8649,0.064446,-0.018021,-0.01405
0.10989,-1.3337,6.1782,8.0218,0.054367,-0.015882,-0.010385
0.11829,-1.4514,6.1782,7.9238,0.033598,-0.009163,-0.009163
0.12943,-1.471,6.1586,7.9238,0.011301,-0.0042761,-0.013134
0.13397,-1.2945,6.2174,8.0611,-0.017715,-0.010385,-0.007025
0.13882,-1.6083,6.1782,8.0022,-0.0085521,-0.011606,-0.0054978
0.16666,-1.4514,6.0997,7.963,-0.0027489,-0.010079,-0.0027489
0.17102,-1.2945,6.2566,7.9434,-0.0051924,-0.0064141,-0.0039706
0.17868,-1.3141,6.2763,7.8649,-0.0094684,-0.0009163,-0.0048869
0.1908,-1.216,6.2174,7.8649,-0.011606,0.0030543,-0.0048869
0.17523,-1.4318,6.3547,7.7669,-0.015882,0.0042761,-0.0048869
0.17984,-1.2356,6.3743,7.9434,-0.020464,0.0058032,-0.0058032
0.17114,-1.3925,6.3351,7.8649,-0.021686,0.007025,0.011606
0.16574,-1.2945,6.1978,7.9434,-0.023518,0.0045815,0.013134
0.16156,-1.4514,6.1782,7.8453,-0.0281,0.0048869,-0.0018326
0.16232,-1.2945,6.0997,7.9042,-0.028711,0.0061087,-0.00061087
0.15463,-1.3141,6.2174,7.9434,-0.029627,0.0082467,0.0039706
0.15671,-1.4514,6.1782,7.8649,-0.030238,0.010079,0.007025
0.1579,-1.4514,6.1586,7.9238,-0.029627,0.011301,0.009163
0.18198,-1.3141,6.2174,8.0022,-0.0281,0.0097738,0.011606
0.1622,-1.2749,6.1586,7.9042,0.017715,0.0067195,-0.011606
0.16693,-1.4318,6.3155,7.8649,-0.020464,0.007025,-0.011606
0.17181,-1.6083,6.2763,8.0807,-0.015272,0.0051924,0.011912
0.16431,-1.3729,6.2566,7.9042,-0.010385,0.0033598,0.0079412
0.15848,-1.216,6.1782,8.0022,-0.0015272,0.0036652,0.0036652
0.1666,-1.1572,6.2174,7.8649,0.0058032,0.0036652,-0.0024435
0.16769,-1.216,6.3155,7.9042,0.013744,0.0045815,-0.0082467
0.16315,-1.6083,6.3547,7.9434,0.018326,0.0051924,-0.011912
0.16318,-1.4514,6.3547,7.9238,-0.012828,-0.0097738,-0.0048869
0.16199,-1.2356,6.2763,7.9238,-0.018021,-0.0033598,-0.0042761
0.17099,-1.3925,6.2566,7.8649,-0.028405,-0.0009163,-0.0012217
0.17255,-1.3141,6.2763,7.9042,-0.033598,-0.00061087,0.0012217
0.17612,-1.3141,6.2763,8.0022,-0.033598,-0.0012217,0.0012217
0.19568,-1.2945,6.1782,7.8649,-0.035736,-0.0036652,-0.0033598
0.20053,-1.3337,6.2174,7.8061,-0.033292,-0.0064141,-0.0045815
0.19678,-1.4318,6.3155,7.963,-0.026573,-0.0082467,-0.0048869
0.2164,-1.4906,6.3547,8.0218,-0.031154,0.01405,0.0058032
0.23618,-1.118,6.1782,7.9434,-0.03207,0.01405,0.0027489
0.27213,-1.2749,6.3351,7.9434,-0.032681,0.012828,0.011912
0.27579,-1.3925,6.1782,7.9238,-0.029932,0.013744,0.013744
0.2872,-1.1768,6.1978,7.963,-0.024435,0.013744,0.014355
0.30099,-1.216,6.2566,7.963,-0.017104,0.012828,0.011606
0.31427,-1.2945,6.2174,7.9434,-0.037874,0.012217,0.010385
0.31076,-1.216,6.2763,7.9434,-0.033598,0.010996,0.0088575
0.32193,-1.3141,6.2174,7.9238,0.0018326,0.013134,-0.015272
0.32629,-1.3141,6.1782,7.7865,0.0067195,0.014966,-0.018021
0.33173,-1.1572,6.2763,7.9042,0.010385,0.015272,-0.0012217
0.33429,-1.4514,6.3155,8.0022,0.0076358,0.013439,-0.0048869
0.33719,-1.216,6.2763,8.0022,0.0033598,0.012217,-0.007025
0.3363,-1.216,6.2763,8.0022,-0.0042761,0.011912,-0.0094684
0.33438,-1.3141,6.2763,7.9238,-0.0076358,0.011301,-0.012217
0.34787,-1.216,6.2174,7.963,-0.00030543,0.010385,-0.013439
0.34222,-1.4514,6.1978,7.8649,-0.029016,0.014966,-0.0051924
0.33856,-1.3141,6.1782,7.963,-0.023213,0.015272,-0.0009163
0.33942,-1.2945,6.2763,7.963,-0.019548,0.018937,-0.013439
0.3259,-1.216,6.1978,7.9434,-0.014661,0.021991,-0.011301
0.31152,-1.3925,6.1782,7.8061,-0.013134,0.023518,-0.012523
0.30624,-1.3141,6.2763,7.9434,-0.016188,0.025962,-0.013134
0.29852,-1.5495,6.2566,8.0611,-0.017715,0.029322,-0.011606
0.29874,-1.4318,6.2763,7.9434,-0.019548,0.0281,-0.0085521
0.28806,-1.2749,6.3155,7.963,-0.034514,0.025045,0.0085521
0.26422,-1.3925,6.1782,7.7865,-0.039095,0.023518,0.0097738
0.25339,-1.4514,6.1782,7.8453,-0.041539,0.018021,0.002138
0.25107,-1.3141,6.2763,7.9434,-0.043982,0.01405,0.0036652
0.23834,-1.2356,6.3155,7.9434,-0.046731,0.012828,0.0073304
0.22943,-1.3337,6.3351,7.9434,-0.045509,0.012217,0.0082467
0.21725,-1.1768,6.0605,7.9434,-0.026878,0.013134,0.0088575
0.20804,-1.216,6.2763,7.963,-0.033903,0.014355,0.010079
0.20242,-1.5298,6.1978,8.0022,-0.0054978,0.020769,-0.018937
0.21475,-1.5887,6.1782,7.963,-0.0088575,0.024129,-0.020159
0.22546,-1.216,6.2174,7.963,-0.0076358,0.024129,-0.019242
0.23392,-1.216,6.0605,8.0022,-0.0042761,0.023213,-0.020159
0.23178,-1.4514,6.3155,7.9434,0.0048869,0.023824,-0.020159
0.22241,-1.216,6.3351,8.0022,0.01405,0.025656,-0.01741
0.22198,-1.1768,6.1586,7.9238,0.019242,0.026573,-0.01741
0.21188,-1.3141,6.1782,7.8061,0.019242,0.028405,-0.018326
0.19913,-1.3925,6.0409,7.8061,-0.068722,0.011912,-0.012217
0.1972,-1.216,6.2174,7.8061,-0.070555,0.0088575,-0.011301
0.20502,-1.3141,6.492,7.9238,-0.060476,0.0073304,0.0024435
0.19839,-1.3925,6.4135,7.9434,-0.04215,0.0073304,0.0018326
0.194,-1.3925,6.3547,7.9238,-0.023213,0.0042761,-0.00030543
0.20044,-1.4514,6.1193,8.0022,-0.0058032,0.0027489,-0.0039706
0.20377,-1.2749,6.1978,7.9434,0.0051924,0.002138,-0.0082467
0.2132,-1.5298,6.2763,8.0022,0.0061087,0.0024435,-0.012217
0.2171,-1.3925,6.3351,7.9238,0.00061087,0.0048869,-0.01741
0.22458,-1.2749,6.2763,8.0022,-0.0030543,0.009163,-0.019548
0.23209,-1.3141,6.1782,7.7865,-0.0094684,0.0064141,-0.011301
0.23724,-1.2945,6.1782,7.9434,-0.013134,0.0058032,-0.013134
0.24164,-1.3141,6.0997,8.1003,-0.011606,0.0061087,-0.015272
0.25317,-1.1376,6.1978,7.963,-0.0061087,0.0061087,-0.01405
0.24677,-1.3925,6.2763,8.0611,-0.0042761,0.0073304,-0.014355
0.24277,-1.118,6.0997,7.8649,-0.0015272,0.010079,-0.015577
0.23193,-1.118,6.2763,8.0022,0.002138,0.011301,-0.019242
0.22223,-1.4514,6.3547,8.0022,0.0030543,0.010385,-0.019853
0.2182,-1.1768,6.1782,7.9042,0.012217,0.0097738,-0.019548
0.21335,-1.3141,6.3155,7.9238,0.019548,0.0085521,-0.018631
0.20923,-1.3337,6.2174,7.7865,0.022297,0.0088575,-0.020464
0.1983,-1.471,6.3547,8.0022,0.022297,0.012523,-0.019853
0.19162,-1.3141,6.2763,7.8649,0.014661,0.015272,-0.020769
0.18323,-1.3337,6.3547,7.9434,0.0054978,0.018326,-0.020769
0.17551,-1.3337,6.2763,7.9042,-0.039401,0.013134,-0.0051924
0.17548,-1.3141,6.2763,7.9238,-0.048258,0.009163,-0.0045815
0.19101,-1.4514,6.3547,7.9238,-0.050091,0.0054978,-0.013439
0.19104,-1.2749,6.3743,7.8453,-0.05284,0.002138,-0.013134
0.198,-1.2945,6.4135,7.7865,-0.057116,-0.0015272,-0.0082467
0.19226,-1.3925,6.3547,7.8453,-0.054672,-0.0015272,-0.0067195
0.19019,-1.4514,6.3547,7.7865,-0.04948,-0.00061087,-0.0054978
0.18533,-1.4514,6.3155,8.0022,-0.040317,-0.0024435,-0.0054978
0.17432,-1.3925,6.2763,7.9042,-0.033292,-0.0051924,0.0030543
0.16486,-1.2356,6.1782,7.9042,-0.030238,-0.0045815,0.0024435
0.16425,-1.4514,6.1782,7.963,-0.032681,-0.0058032,-0.0036652
0.16043,-1.4514,6.3155,7.9238,-0.03543,-0.0079412,0
0.15601,-1.3337,6.2174,7.9042,-0.033598,-0.0079412,0.0024435
0.15451,-1.1768,6.1782,8.0611,-0.027184,-0.0064141,0.0033598
0.15179,-1.3925,6.2763,7.963,-0.021686,-0.0076358,0.002138
0.15326,-1.4514,6.1782,8.0022,-0.015577,-0.0076358,0.0024435
0.15543,-1.3141,6.2566,7.9434,-0.0076358,-0.0079412,0.0033598
0.16068,-1.2356,6.3547,7.9434,-0.013134,-0.009163,0.0054978
0.15445,-1.2356,6.2174,7.8649,-0.01741,-0.0076358,0.0009163
0.16113,-1.3925,6.2763,7.8649,-0.022602,-0.0045815,0.00030543
0.15408,-1.216,6.3351,7.9042,-0.025656,-0.0027489,0.00061087
0.15042,-1.216,6.2763,7.9238,-0.024129,0,0.00061087
0.14206,-1.4318,6.3547,7.9434,-0.0079412,0.0018326,0.0009163
0.13913,-1.216,6.3547,7.9434,-0.0036652,0.0033598,0.0015272
0.11993,-1.3141,6.3547,7.9434,-0.024435,0.007025,0.011301
0.12006,-1.471,6.3547,7.8649,-0.020769,0.013134,0.010079
0.11826,-1.471,6.1782,7.9238,-0.019853,0.012828,0.0061087
0.1279,-1.2749,6.1586,7.8453,-0.019242,0.012828,0.007025
0.13098,-1.3141,6.3155,7.8061,-0.017715,0.012523,0.0082467
0.13016,-1.3141,6.3351,7.9042,-0.017104,0.012523,0.0082467
0.13968,-1.3337,6.3547,7.963,-0.02474,0.013744,0.010385
0.13156,-1.3141,6.3547,7.9434,-0.027794,0.014661,0.012828
0.13333,-1.1768,6.3547,7.9434,-0.010385,0.018937,0.0048869
0.14627,-1.6083,6.1782,7.9434,-0.011301,0.020464,0.0030543
0.17792,-1.3925,6.1586,8.0611,-0.011912,0.018631,0.0027489
0.19437,-1.3337,6.1782,7.9238,-0.011912,0.018631,0.0030543
0.19662,-1.3141,6.2566,7.9238,-0.012217,0.017715,0.0048869
0.1998,-1.2749,6.2174,7.9434,-0.012828,0.017715,0.0042761
0.21237,-1.2945,6.3547,7.9238,-0.013134,0.018021,0.0045815
0.21069,-1.5495,6.3351,8.0022,-0.016188,0.019853,0.007025
0.21973,-1.2945,6.2763,7.9042,-0.019242,0.021075,-0.0039706
0.21561,-1.3729,6.1782,8.0022,-0.018937,0.018937,-0.0064141
0.22211,-1.3729,6.2566,7.9042,-0.017104,0.018937,0.0018326
0.22244,-1.471,6.2763,8.0022,-0.014355,0.019853,-0.0015272
0.21683,-1.2749,6.3351,7.9434,-0.010079,0.019853,-0.0027489
0.22342,-1.2356,6.3547,7.9042,-0.007025,0.018021,-0.0042761
0.1972,-1.1572,6.3547,7.9238,-0.011606,0.017104,-0.0061087
0.20639,-1.2945,6.3155,7.9042,-0.02138,0.019548,-0.0054978
0.21429,-1.2749,6.3155,7.9434,-0.030238,0.020464,-0.013439
0.20609,-1.3337,6.3351,7.8649,-0.03879,0.021075,-0.011301
0.1951,-1.216,6.1978,7.8061,-0.039401,0.021686,-0.0085521
0.18686,-1.3141,6.2763,7.7865,-0.03543,0.020159,-0.0079412
0.181,-1.1768,6.2763,8.0022,-0.028711,0.015882,-0.010385
0.17999,-1.3141,6.3547,7.963,-0.014966,0.015577,-0.011301
0.18359,-1.3925,6.3155,7.9238,0.0009163,0.016188,-0.011912
0.17865,-1.1572,6.1782,7.9042,0.0094684,0.018021,-0.012828
0.17679,-1.3925,6.2566,7.9238,0.01405,0.019548,-0.024129
0.16891,-1.5298,6.2763,7.963,0.014661,0.020769,-0.027489
0.16019,-1.1572,6.2174,7.9434,0.0076358,0.022297,-0.010079
0.16379,-1.2749,6.3547,8.0022,0.00030543,0.023518,-0.014966
0.15833,-1.3729,6.3547,8.0022,-0.0045815,0.02474,-0.021991
0.14987,-1.3337,6.2763,7.7669,-0.010996,0.024435,-0.022602
0.14081,-1.3729,6.3351,7.8453,-0.012828,0.023824,-0.019853
0.1391,-1.3337,6.2174,7.7865,-0.011912,0.02474,-0.021075
0.12854,-1.3925,6.2174,7.8649,0.019242,0.027489,-0.019548
0.14615,-1.3141,6.2174,7.9434,0.012523,0.027489,-0.017104
0.16898,-1.3925,6.3155,7.8649,0.0073304,0.025962,-0.027184
0.18149,-1.216,6.3155,7.9434,0.0073304,0.027184,-0.028711
0.19183,-1.3925,6.3351,7.9434,0.010385,0.028711,-0.028711
0.19778,-1.4514,6.2174,7.9042,0.013744,0.027489,-0.025045
0.20404,-1.3925,6.1586,7.7669,0.0281,0.026878,-0.021686
0.21857,-1.3337,6.3351,7.9042,0.025045,0.026573,-0.020464
0.24188,-1.1572,6.3547,7.9042,0.0018326,0.026573,-0.0088575
0.25015,-1.3141,6.3743,7.7865,-0.00061087,0.0281,-0.0082467
0.24185,-1.3141,6.3547,7.8649,-0.00030543,0.025045,-0.014661
0.25192,-1.3925,6.2174,7.9434,-0.0009163,0.023213,-0.011912
0.2587,-1.216,6.2566,7.8649,-0.0042761,0.022297,-0.011301
0.26865,-1.3141,6.3547,7.8061,-0.0012217,0.021075,-0.010996
0.2735,-1.3925,6.4135,7.8061,0.014355,0.020159,-0.0097738
0.26974,-1.3141,6.4135,7.7865,0.0073304,0.020159,-0.009163
0.27371,-1.4514,6.3547,7.9434,-0.0076358,0.017715,-0.0012217
0.27591,-1.3141,6.2763,7.8061,-0.014661,0.01741,0
0.28351,-1.3141,6.4135,7.8649,-0.020159,0.018021,-0.0073304
0.2804,-1.2945,6.3547,7.7473,-0.021686,0.015882,-0.0036652
0.27994,-1.4318,6.4135,7.8649,-0.020464,0.01405,-0.0018326
0.27887,-1.4514,6.4135,7.7865,-0.021686,0.013134,-0.0033598
0.28995,-1.6475,6.4724,7.9434,0.0039706,0.011912,-0.002138
0.28891,-1.4318,6.3743,7.6884,0.0009163,0.011301,-0.0018326
0.28818,-1.3925,6.3743,7.7669,0.026573,0.029016,-0.029322
0.2764,-1.471,6.3547,7.8649,0.030238,0.026573,-0.027794
0.27304,-1.4514,6.4135,7.8649,0.031154,0.0281,-0.015272
0.26852,-1.3141,6.3743,7.7865,0.031765,0.029322,-0.015882
0.26184,-1.4514,6.3743,7.708,0.031154,0.031154,-0.01741
0.25632,-1.2945,6.4135,7.7865,0.03207,0.032681,-0.019853
0.25565,-1.3141,6.3547,7.7865,0.033292,0.03146,-0.022907
0.23621,-1.6083,6.4135,7.8649,0.031765,0.0281,-0.026267
0.22961,-1.4514,6.4135,7.8453,-0.016188,0.010079,-0.018937
0.23398,-1.4514,6.3351,7.9238,-0.007025,0.0076358,-0.018021
0.26495,-1.216,6.4135,7.7473,-0.0030543,0.0073304,-0.0042761
0.27509,-1.3141,6.4724,7.7865,-0.0018326,0.0085521,-0.0097738
0.26553,-1.216,6.3743,7.8061,-0.0048869,0.0085521,-0.011912
0.25986,-1.4514,6.3547,7.9238,-0.013744,0.0094684,-0.015577
0.26343,-1.4318,6.3547,7.8649,-0.023518,0.011912,-0.020769
0.26456,-1.3141,6.3351,7.7865,-0.031765,0.01405,-0.02138
0.26385,-1.3925,6.4135,7.708,-0.040317,0.013439,-0.0061087
0.26416,-1.2356,6.5116,7.9238,-0.045509,0.010996,-0.0054978
0.2543,-1.3141,6.5116,7.8061,-0.043066,0.011301,-0.014966
0.26282,-1.4318,6.3547,7.7473,-0.040623,0.01069,-0.010385
0.25809,-1.216,6.3547,7.7865,-0.043371,0.0097738,-0.010385
0.25992,-1.4514,6.3351,7.7865,-0.050702,0.010385,-0.0097738
0.2605,-1.3337,6.4135,7.8061,-0.056505,0.01069,-0.0082467
0.25256,-1.4514,6.3351,7.9434,-0.056505,0.0082467,-0.0082467
0.26022,-1.216,6.4135,7.8649,-0.047647,0.009163,0.00061087
0.27448,-1.3337,6.4135,7.8649,-0.048564,0.013134,0.0012217
0.28235,-1.4514,6.3155,7.9434,-0.044899,0.01069,-0.0009163
0.28882,-1.3729,6.3547,7.7865,-0.039095,0.0061087,-0.00061087
0.29407,-1.6083,6.3547,7.9238,-0.036652,0.0048869,-0.0018326
0.30759,-1.1572,6.1978,7.8061,-0.032987,0.0042761,-0.0033598
0.32001,-1.1572,6.492,7.8061,-0.028405,0.0027489,-0.0009163
0.33279,-1.2356,6.5116,7.8453,-0.021686,0.002138,0.002138
0.34079,-1.3925,6.3351,7.9434,-0.021991,0.0030543,0.00030543
0.34409,-1.216,6.2763,7.8649,-0.031765,0.0036652,-0.00061087
0.35495,-1.216,6.3547,7.9238,-0.040928,0.0067195,0.0045815
0.35596,-1.471,6.3351,7.9434,-0.044288,0.010079,0.0058032
0.36209,-1.2356,6.3547,7.8453,-0.046731,0.01069,0.0051924
0.36136,-1.4318,6.4135,7.8649,-0.045204,0.010385,0
0.36514,-1.4318,6.3351,7.6884,-0.038485,0.0085521,-0.00061087
0.37201,-1.216,6.3547,7.8649,-0.0281,0.0097738,0.00030543
0.36624,-1.4318,6.3547,7.9434,-0.032987,0.018631,-0.022602
0.39401,-1.1768,6.4135,7.9238,-0.031765,0.022297,-0.019242
0.42374,-1.3141,6.4135,7.8649,-0.02138,0.021991,-0.012828
0.44171,-1.2749,6.2763,7.8453,0.0015272,0.020769,-0.01405
0.4462,-1.4318,6.3743,7.8649,0.023518,0.019548,-0.016188
0.44083,-1.3925,6.3743,7.7865,0.029322,0.018631,-0.018631
0.44315,-1.3729,6.3351,7.7473,-0.0094684,0.016188,-0.020464
0.46014,-1.4318,6.3547,7.7865,-0.026573,0.013439,-0.023213
0.45468,-1.3141,6.3547,7.9042,-0.015882,0.010385,-0.011301
0.44653,-1.216,6.3743,7.9042,0.013744,0.0067195,-0.011606
0.45419,-1.471,6.3743,7.8061,-0.0045815,0.015577,-0.018021
0.45135,-1.216,6.3547,7.9434,-0.02138,0.023518,-0.01741
0.44141,-1.2945,6.3547,7.9238,-0.032987,0.026267,-0.018326
0.4418,-1.6083,6.3547,7.9238,-0.035736,0.026267,-0.016493
0.43872,-1.2945,6.2763,7.8649,-0.032681,0.022602,-0.012523
0.43979,-1.3141,6.3547,7.8453,-0.027489,0.018631,-0.011301
0.41443,-1.4514,6.3351,7.9238,-0.00061087,0.019548,-0.0097738
0.41833,-1.4514,6.4332,7.8649,0.0027489,0.01741,-0.010996
0.39828,-1.3141,6.3547,7.7865,0.0045815,0.018631,-0.010079
0.39502,-1.2749,6.3547,7.8453,0.0051924,0.018631,-0.0079412
0.38306,-1.216,6.3547,7.9238,-0.0030543,0.018326,-0.0073304
0.36679,-1.4514,6.3547,7.7865,-0.012217,0.018326,-0.0064141
0.36172,-1.4514,6.3351,7.8649,-0.014966,0.019853,-0.0058032
0.36041,-1.3141,6.4135,7.8061,-0.01741,0.019853,-0.0082467
0.33905,-1.2945,6.5116,7.7865,-0.019548,0.021075,-0.012523
0.33029,-1.4318,6.4135,7.8453,-0.010079,0.019548,-0.012523
0.3136,-1.4514,6.3743,7.7669,0.0033598,0.018326,-0.011301
0.29715,-1.471,6.3743,7.9434,0.014661,0.01741,-0.011301
0.28989,-1.2945,6.4332,7.7865,0.017104,0.01741,-0.014355
0.28229,-1.3337,6.4332,7.7865,0.0085521,0.016493,-0.015882
0.27826,-1.3925,6.3743,7.8649,-0.020769,0.016493,-0.016493
0.27542,-1.3141,6.3547,7.7865,-0.023213,0.017715,-0.015577
0.26749,-1.3925,6.3351,7.8061,-0.019548,0.016493,-0.0064141
0.28012,-1.4906,6.2174,7.9434,-0.019548,0.015272,-0.0082467
0.30975,-1.3925,6.4135,7.7865,-0.017104,0.01405,-0.0094684
0.31662,-1.4318,6.3743,7.8453,-0.013744,0.012523,-0.0064141
0.32343,-1.4514,6.3547,7.7669,-0.016188,0.010079,-0.0039706
0.33057,-1.2749,6.4135,7.9238,-0.015272,0.0079412,-0.0030543
0.36032,-1.3925,6.4724,7.7865,-0.010385,0.0061087,-0.0036652
0.36163,-1.4514,6.3743,7.7865,-0.009163,0.0061087,-0.0033598
0.3616,-1.3925,6.3547,7.9042,-0.009163,0.017715,-0.014966
0.37592,-1.4318,6.5116,7.8453,-0.0079412,0.020769,-0.013439
0.36844,-1.216,6.3547,7.8061,-0.0064141,0.020464,-0.019853
0.38901,-1.4906,6.3743,7.7865,-0.007025,0.01741,-0.019853
0.40231,-1.7064,6.4135,7.9238,-0.0088575,0.016799,-0.019548
0.40192,-1.471,6.4332,7.7865,-0.0097738,0.017715,-0.018937
0.39737,-1.3337,6.4332,7.8649,-0.0085521,0.015882,-0.018631
0.39783,-1.3141,6.4724,7.7669,-0.0088575,0.018021,-0.01741
0.40115,-1.3729,6.4332,7.8453,-0.010079,0.019242,-0.0051924
0.40411,-1.3141,6.3743,7.8061,-0.011912,0.016188,-0.0076358
0.40649,-1.4906,6.3547,7.6884,-0.017104,0.020159,-0.010385
0.41257,-1.5298,6.4135,7.7473,-0.020769,0.023824,-0.0082467
0.41013,-1.471,6.3155,7.8649,-0.022297,0.021686,-0.0051924
0.40082,-1.4514,6.4135,7.7865,-0.021686,0.020464,-0.0027489
0.39304,-1.4514,6.4135,7.8649,-0.018021,0.019853,-0.0024435
0.39441,-1.4514,6.3547,7.6884,-0.016493,0.018937,-0.0036652
0.38641,-1.5298,6.3547,7.8061,-0.017715,0.018937,-0.010996
0.36618,-1.6475,6.4724,7.9042,-0.015577,0.022297,-0.011606
0.3613,-1.4906,6.4135,7.8649,-0.007025,0.019853,-0.0082467
0.33716,-1.3925,6.3547,7.7669,-0.0018326,0.016799,-0.011606
0.3353,-1.2749,6.4135,7.9042,-0.00061087,0.015882,-0.01405
0.32269,-1.3141,6.3743,7.8649,-0.0048869,0.015272,-0.013134
0.31448,-1.471,6.3547,7.8649,-0.013744,0.015577,-0.01069
0.30545,-1.3141,6.3743,7.7865,-0.018631,0.015577,-0.0088575
0.30032,-1.3141,6.5116,7.8061,-0.023213,0.012217,-0.0024435
0.30289,-1.3141,6.3743,7.7865,-0.023518,0.016799,-0.0012217
0.32657,-1.4318,6.4135,7.7865,-0.021075,0.015577,-0.0030543
0.32617,-1.4318,6.3547,7.7865,-0.015272,0.012217,-0.0030543
0.32364,-1.4514,6.3547,7.6884,-0.0061087,0.009163,-0.0024435
0.31097,-1.471,6.492,7.7865,-0.0015272,0.0073304,-0.00030543
0.30988,-1.3141,6.3547,7.7865,-0.0039706,0.0064141,-0.0015272
0.30173,-1.3141,6.4135,7.9042,-0.010079,0.0076358,-0.0030543
0.2981,-1.4514,6.4135,7.8649,-0.020159,0.0085521,-0.0076358
0.29556,-1.3925,6.3743,7.9042,-0.031765,0.010385,-0.010996
0.29602,-1.4514,6.2763,7.8649,-0.035125,0.011301,-0.0009163
0.27911,-1.5298,6.4135,7.8649,-0.030849,0.012523,-0.00030543
0.26932,-1.3925,6.3547,7.8061,-0.022907,0.012523,-0.0012217
0.25781,-1.3141,6.3547,7.7865,-0.011606,0.0097738,-0.0024435
0.2691,-1.4514,6.3547,7.8061,-0.0012217,0.0085521,-0.0024435
0.2684,-1.471,6.2763,7.9042,0.0045815,0.0076358,-0.0033598
0.28122,-1.471,6.4332,7.7865,0.0061087,0.0076358,-0.013439
0.27344,-1.3925,6.3743,7.7865,0,0.0058032,-0.013744
0.28122,-1.4318,6.3547,7.8061,-0.0039706,0.0079412,-0.01405
0.2984,-1.5298,6.3547,7.7865,-0.011301,0.011606,-0.014661
0.29739,-1.3141,6.2566,7.8061,-0.022907,0.013744,-0.013744
0.30151,-1.3337,6.3547,7.7865,-0.032376,0.014355,-0.014355
0.30765,-1.4514,6.3547,7.9042,0.0082467,0.015577,-0.014661
0.31631,-1.2945,6.3743,7.7865,0.011301,0.017104,-0.013439
0.32553,-1.3337,6.4135,7.8061,-0.018631,0.018937,-0.022602
0.32047,-1.3925,6.4135,7.8061,-0.0064141,0.022297,-0.021991
0.31808,-1.4514,6.2763,7.7865,0.0067195,0.021075,-0.015577
0.3204,-1.3925,6.3547,7.8061,0.016493,0.019242,-0.017715
0.31818,-1.4514,6.3743,7.7865,0.021686,0.017104,-0.017104
0.31094,-1.4318,6.4332,7.7865,0.019242,0.015882,-0.017715
0.3071,-1.6279,6.5116,7.9042,-0.034208,0.014966,-0.018631
0.30832,-1.3337,6.4135,7.9042,-0.029627,0.014966,-0.021686
0.30365,-1.6083,6.4724,7.9042,-0.025962,0.01069,-0.012523
0.31766,-1.6475,6.3547,7.9238,-0.02138,0.012217,-0.012523
0.33286,-1.2749,6.3743,7.7669,-0.018937,0.009163,-0.0012217
0.34106,-1.5298,6.492,7.7865,-0.015882,0.0054978,0.00030543
0.34402,-1.6083,6.4135,7.8649,-0.013134,0.0064141,-0.00030543
0.33713,-1.4318,6.3743,7.7865,-0.011301,0.0058032,-0.0054978
0.33905,-1.3925,6.4135,7.8061,-0.0097738,0.0085521,-0.0097738
0.33524,-1.5298,6.3547,7.9238,-0.011606,0.012217,-0.012217
0.32022,-1.3925,6.4135,7.8453,-0.014661,0.013439,0.0018326
0.31824,-1.3925,6.4724,7.7669,-0.01741,0.0082467,0
0.31299,-1.3925,6.492,7.7865,-0.018021,0.010079,-0.012217
0.29929,-1.471,6.5116,7.7865,-0.015882,0.011606,-0.010996
0.284,-1.4318,6.4332,7.6492,-0.016493,0.012828,-0.0061087
0.28873,-1.4514,6.3547,7.5903,-0.019242,0.014661,-0.0009163
0.28055,-1.4318,6.3547,7.7473,-0.019853,0.016188,0.0027489
0.27097,-1.6083,6.4135,7.9434,-0.016188,0.015577,0.0042761
0.2551,-1.216,6.3351,7.8649,-0.010385,0.013439,0.0051924
0.2688,-1.4318,6.492,7.8453,-0.0042761,0.0097738,0.0085521
0.25385,-1.471,6.4135,7.7473,-0.00030543,0.007025,-0.002138
0.24713,-1.6279,6.5116,7.8649,0.002138,0.0082467,-0.0027489
0.23901,-1.4514,6.3743,7.7669,0.0058032,0.0088575,-0.0036652
0.22668,-1.3337,6.4135,7.7865,0.0073304,0.0073304,-0.0042761
0.22723,-1.4318,6.492,7.7865,0.0085521,0.0073304,-0.0030543
0.22308,-1.471,6.4724,7.6492,0.007025,0.007025,0.0009163
0.22159,-1.3141,6.4724,7.7865,0.0073304,0.010385,0.0018326
0.20908,-1.3337,6.3743,7.6884,-0.0036652,0.009163,0.0018326
0.20291,-1.216,6.3351,7.7865,-0.016799,0.0088575,-0.007025
0.19162,-1.4514,6.4135,7.7865,-0.029016,0.007025,-0.0009163
0.20169,-1.4514,6.4135,7.7865,-0.034819,0.0054978,0.0030543
0.20618,-1.6867,6.4332,7.8649,-0.037874,0.0054978,0.0054978
0.20313,-1.2945,6.4724,7.7865,-0.036652,0.0085521,0.0051924
0.21011,-1.471,6.4135,7.9238,-0.030849,0.010079,0.0033598
0.21213,-1.3141,6.4724,7.8061,-0.061697,0.033292,0.013134
0.22342,-1.4318,6.4332,7.7865,-0.051313,0.031765,0.011912
0.24988,-1.3925,6.3155,7.9042,-0.042455,0.027489,0.019548
0.26108,-1.3141,6.3743,7.9042,-0.03207,0.023213,0.018021
0.26328,-1.3141,6.3547,7.7865,-0.025045,0.020464,0.016188
0.25909,-1.4514,6.3743,7.708,-0.026878,0.018021,0.013134
0.25745,-1.2945,6.3743,7.8061,-0.079107,0.017104,0.011606
0.26083,-1.4514,6.3547,7.7865,-0.073304,0.017104,0.011606
0.25497,-1.3337,6.3743,7.7669,-0.032681,0.014661,0.0018326
0.26379,-1.2749,6.4135,7.7865,-0.027489,0.012523,0
0.2691,-1.3925,6.6685,7.7865,-0.017104,0.014966,0.010079
0.27023,-1.2945,6.6293,7.7865,0,0.015272,0.0073304
0.27258,-1.3141,6.5116,7.8453,0.023518,0.012828,0.0061087
0.27054,-1.6279,6.4332,7.8453,0.057116,0.011606,0.0051924
0.2709,-1.3141,6.3547,7.7865,-0.030543,0.0088575,0.0045815
0.25882,-1.3337,6.4135,7.7865,-0.033903,0.0051924,0.0027489
0.24927,-1.6083,6.5705,7.8649,0.16554,-0.00061087,-0.014355
0.23306,-1.3925,6.5901,7.6884,0.15119,-0.0036652,-0.014661
0.2215,-1.2749,6.4724,7.8649,0.1182,-0.0067195,-0.0039706
0.20413,-1.4514,6.4135,7.6492,0.075136,-0.0051924,-0.0076358
0.19473,-1.471,6.3547,7.708,0.0281,0.0039706,-0.0064141
0.17688,-1.3337,6.4332,7.8649,-0.0067195,0.015272,-0.0054978
0.15881,-1.4318,6.492,7.7669,0.098349,0.023824,-0.009163
0.14142,-1.3141,6.5705,7.8649,0.14233,0.026267,-0.013744
0.12473,-1.3141,6.4332,7.8649,-0.0281,0.012217,0.024129
0.1069,-1.4906,6.4135,7.8649,-0.016493,0.009163,0.021991
0.10159,-1.6083,6.3351,7.8649,-0.012523,0.01069,0.011912
0.077698,-1.2749,6.1782,7.8061,-0.019853,0.014966,0.015577
0.06723,-1.3141,6.2763,7.7865,-0.038485,0.017104,0.017715
0.077301,-1.5495,6.6489,7.9238,-0.060476,0.022602,0.019548
0.084717,-1.3925,6.8058,7.7669,-0.076969,0.027489,0.022907
0.087646,-1.4318,6.7862,7.6492,-0.082161,0.03207,0.023518
0.084595,-1.4514,6.5901,7.61,0.021991,0.014661,0.020464
0.10599,-1.5887,6.4135,7.8649,0.037874,0.0079412,0.027489
0.12216,-1.3925,6.4135,7.7473,0.057727,0.007025,0.0082467
0.13318,-1.471,6.5901,7.6884,0.087048,0.0027489,0.010079
0.14426,-1.4514,6.5901,7.5511,0.12462,-0.0030543,0.012217
0.15057,-1.216,6.5901,7.6492,0.16005,-0.0079412,0.012217
0.15012,-1.4318,6.5116,7.7669,0.17349,-0.010996,0.013134
0.15894,-1.3925,6.5705,7.8061,0.14813,-0.0076358,0.014355
0.16147,-1.4514,6.5312,7.7473,0.097433,0.00030543,0.026573
0.16751,-1.3925,6.5901,7.7473,0.042761,0.0097738,0.01741
0.17661,-1.6475,6.5901,7.7865,-0.0067195,0.017104,0.0281
0.17722,-1.3337,6.5116,7.6884,-0.043371,0.021991,0.027184
0.16669,-1.2945,6.4724,7.6296,-0.063835,0.023518,0.028405
0.14441,-1.2945,6.5116,7.7473,-0.069944,0.021686,0.03146
0.16315,-1.3925,6.6293,7.6492,-0.067195,0.016493,0.034208
0.16125,-1.3141,6.6489,7.7473,-0.059865,0.01405,0.032376
0.147,-1.4514,6.5116,7.7865,0.017715,0.040623,0.029016
0.1329,-1.3337,6.6293,7.708,0.0281,0.039095,0.026573
0.12317,-1.4514,6.5116,7.7473,0.026878,0.040928,0.01069
0.11078,-1.3337,6.4135,7.6884,0.020464,0.042455,0.013744
0.10052,-1.4514,6.5116,7.7669,0.01069,0.042455,0.016799
0.093872,-1.3337,6.5705,7.6884,-0.0054978,0.040928,0.02138
0.083588,-1.3337,6.5705,7.7669,-0.021991,0.040928,0.023213
0.076874,-1.3141,6.4135,7.61,-0.032987,0.039095,0.026573
0.083374,-1.4514,6.4135,7.5511,-0.037568,0.037568,0.0042761
0.08252,-1.4514,6.5901,7.7473,-0.035736,0.038179,0.0051924
0.098663,-1.6279,6.9431,7.7865,-0.036041,0.037874,0.024435
0.10254,-1.1768,6.8058,7.61,-0.034208,0.031765,0.019548
0.10443,-1.3729,6.8058,7.61,-0.024435,0.029932,0.011301
0.11484,-1.4514,6.6489,7.7473,-0.011301,0.027184,0.011912
0.11758,-1.471,6.6489,7.6884,0.0009163,0.022297,0.013744
0.12524,-1.2749,6.5116,7.6492,0.011606,0.018937,0.009163
0.12653,-1.3337,6.6293,7.4727,-0.076053,0.0018326,-0.0076358
0.14478,-1.216,6.6881,7.61,-0.062614,-0.0042761,-0.010385
0.1586,-1.3729,6.6489,7.5511,-0.051924,-0.0064141,0.0015272
0.16663,-1.216,6.5705,7.61,-0.043982,-0.0076358,0.00030543
0.17725,-1.4318,6.6685,7.6296,-0.039706,-0.0076358,0.0012217
0.17752,-1.3141,6.5901,7.61,-0.045509,-0.0036652,0.0030543
0.19684,-1.2749,6.7274,7.6884,-0.087965,0.0018326,-0.0009163
0.18445,-1.2356,6.747,7.6884,-0.086743,0.0045815,-0.0058032
0.17862,-1.4514,6.6489,7.61,-0.013439,0.0054978,-0.0067195
0.17505,-1.2945,6.4724,7.6492,-0.018021,0.0027489,-0.0042761
0.1734,-1.3141,6.5705,7.6492,-0.021686,0.007025,-0.0039706
0.17188,-1.2749,6.4724,7.6296,-0.02474,0.01069,-0.0048869
0.17789,-1.2945,6.6293,7.6296,-0.024435,0.009163,-0.0030543
0.17963,-1.3729,6.7862,7.6492,-0.021991,0.0085521,-0.0042761
0.16727,-1.3141,6.8058,7.6492,-0.01741,0.0076358,-0.0051924
0.16415,-1.2356,6.6293,7.5903,-0.018021,0.0051924,-0.0058032
0.1608,-1.3337,6.7274,7.61,-0.026878,0.007025,0.002138
0.15482,-1.216,6.5312,7.61,-0.027184,0.010996,0.00030543
0.15311,-1.3925,6.5901,7.5511,-0.02474,0.010996,-0.0018326
0.14175,-1.3925,6.6293,7.61,-0.019242,0.01069,-0.0033598
0.15585,-1.3141,6.7274,7.6884,-0.015272,0.0088575,-0.002138
0.16266,-1.2749,6.5312,7.61,-0.0085521,0.0082467,-0.0012217
0.16666,-1.6083,6.747,7.7473,-0.021686,0.0085521,-0.00061087
0.16571,-1.4514,6.747,7.4923,-0.025656,0.0079412,0
0.17807,-1.4514,6.7274,7.6296,0.0009163,0.0058032,-0.0012217
0.19324,-1.2749,6.5901,7.5903,-0.011606,0.0064141,0.0009163
0.189,-1.1768,6.4135,7.61,-0.031154,0.007025,0
0.20059,-1.216,6.5901,7.6884,-0.051007,0.0067195,0.0018326
0.19824,-1.1572,6.5901,7.6884,-0.06689,0.009163,0.0027489
0.2084,-1.2356,6.7274,7.8061,-0.079718,0.011912,0.002138
0.22134,-1.1572,6.5312,7.6884,-0.0009163,0.01069,0.0009163
0.23181,-1.2749,6.6293,7.6296,0.0027489,0.0076358,-0.00061087
0.23135,-1.3925,6.5116,7.7865,-0.01741,0.011912,-0.020159
0.24292,-1.5495,6.5312,7.7865,-0.032376,0.012523,-0.01741
0.28079,-1.216,6.5901,7.7865,-0.029932,0.011301,-0.0073304
0.28702,-1.4514,6.6489,7.7865,-0.02474,0.0085521,-0.0097738
0.29874,-1.1572,6.5312,7.7473,-0.014355,0.0054978,-0.011301
0.29449,-1.216,6.5116,7.7669,-0.0027489,0.0039706,-0.013744
0.29828,-1.2749,6.3547,7.6884,0,0.0027489,-0.018021
0.30197,-1.4514,6.4724,7.7865,-0.0073304,0.0027489,-0.02138
0.30966,-1.3925,6.5705,7.708,0.018021,0.019853,-0.022602
0.29288,-1.3337,6.6293,7.7473,0.030849,0.018631,-0.024129
0.29135,-1.6083,6.6685,7.7865,0.036652,0.022602,-0.013439
0.28036,-1.3337,6.7274,7.6296,0.034208,0.025656,-0.015272
0.27811,-1.3141,6.6685,7.61,0.023518,0.027794,-0.016188
0.27127,-1.216,6.5901,7.6296,0.011912,0.03146,-0.01741
0.26117,-1.4318,6.5705,7.6492,0.0015272,0.035125,-0.017715
0.24554,-1.3925,6.5312,7.6884,-0.0061087,0.03543,-0.018937
0.2356,-1.216,6.6293,7.6296,-0.0097738,0.037874,-0.018326
0.21945,-1.4514,6.7274,7.6884,-0.013134,0.037568,-0.015272
0.21301,-1.2749,6.6685,7.61,-0.01069,0.034514,-0.025962
0.20374,-1.3141,6.6881,7.61,-0.0082467,0.032681,-0.028711
0.19955,-1.3925,6.6881,7.61,-0.009163,0.030543,-0.027489
0.19644,-1.4514,6.6489,7.4923,-0.011606,0.0281,-0.026267
0.18933,-1.3925,6.6685,7.6492,-0.013744,0.026573,-0.022907
0.17004,-1.3141,6.5901,7.6884,-0.012523,0.025962,-0.019242
0.16739,-1.4318,6.6293,7.61,-0.01069,0.024129,-0.0009163
0.16718,-1.5495,6.6489,7.7865,-0.010996,0.018937,-0.0039706
0.1554,-1.3337,6.6489,7.7669,-0.013439,0.019548,-0.010996
0.14392,-1.2749,6.5312,7.6884,-0.014355,0.019853,-0.0076358
0.13373,-1.3925,6.5901,7.61,-0.016188,0.018021,-0.0064141
0.12631,-1.3925,6.6489,7.6884,-0.018021,0.016799,-0.0048869
0.1413,-1.3337,6.6881,7.6884,-0.024435,0.015272,-0.0036652
0.1265,-1.471,6.6489,7.7865,-0.030543,0.012828,-0.0015272
0.13293,-1.216,6.7274,7.6884,-0.022602,0.0024435,-0.0076358
0.13193,-1.4514,6.5901,7.708,-0.033598,0.0054978,-0.0097738
0.14395,-1.2749,6.6489,7.6492,-0.038485,0.0073304,0.002138
0.15573,-1.471,6.6293,7.708,-0.039401,0.0094684,0.00030543
0.1611,-1.3337,6.5705,7.6492,-0.035125,0.010079,-0.0033598
0.16855,-1.3141,6.6489,7.7669,-0.0281,0.0085521,-0.0054978
0.17712,-1.3925,6.6489,7.6884,-0.020159,0.0085521,-0.0061087
0.18616,-1.2749,6.5705,7.6492,-0.016493,0.009163,-0.0058032
0.19016,-1.2945,6.6489,7.6884,-0.017715,0.0094684,-0.019548
0.20193,-1.3141,6.6293,7.6884,-0.023824,0.010079,-0.019853
0.20236,-1.4514,6.5901,7.5903,-0.032376,0.0079412,-0.012828
0.21246,-1.3141,6.5312,7.6492,-0.039401,0.0073304,-0.016493
0.2153,-1.3925,6.6489,7.5511,-0.044899,0.009163,-0.01741
0.22,-1.3925,6.6489,7.61,-0.044593,0.010079,-0.019242
0.21429,-1.2749,6.6489,7.6884,-0.015577,0.0076358,-0.02138
0.22491,-1.4318,6.5901,7.6884,-0.014966,0.0061087,-0.02138
0.23154,-1.3925,6.5901,7.7473,-0.036957,0.0048869,-0.010996
0.23337,-1.471,6.5116,7.7669,-0.036346,0.0048869,-0.010385
0.24362,-1.216,6.6489,7.6296,-0.039706,0.0064141,-0.019242
0.24139,-1.3729,6.6489,7.61,-0.041539,0.0058032,-0.017715
0.24435,-1.3141,6.6685,7.7669,-0.044899,0.0067195,-0.017104
0.25333,-1.2945,6.5116,7.6884,-0.050396,0.0079412,-0.015882
0.24579,-1.2945,6.6293,7.7669,-0.040317,0.011301,-0.013744
0.25632,-1.3141,6.5705,7.708,-0.038179,0.013134,-0.013134
0.25635,-1.4514,6.5705,7.7473,-0.04948,0.012523,-0.007025
0.25348,-1.2749,6.5116,7.6492,-0.041233,0.011606,-0.0033598
0.25394,-1.2945,6.5116,7.7473,-0.03207,0.012217,-0.0085521
0.25519,-1.2945,6.5901,7.7865,-0.025962,0.013134,-0.0082467
0.25815,-1.4318,6.5901,7.7473,-0.020159,0.014355,-0.0094684
0.24478,-1.4514,6.5901,7.5511,-0.012828,0.014355,-0.010385
0.24835,-1.216,6.5116,7.7473,-0.055283,0.012217,-0.0097738
0.24237,-1.3925,6.5901,7.7473,-0.054367,0.011606,-0.009163
0.23633,-1.4514,6.5901,7.5903,-0.032376,0.013439,-0.0024435
0.24527,-1.4514,6.5901,7.8453,-0.022297,0.013744,-0.0018326
0.25497,-1.3925,6.5312,7.6884,-0.019242,0.012523,-0.013134
0.25879,-1.3141,6.5116,7.6884,-0.021991,0.010385,-0.011606
0.25449,-1.2749,6.5901,7.7669,-0.025045,0.0085521,-0.0097738
0.24612,-1.3141,6.6293,7.708,-0.030543,0.0067195,-0.0082467
0.23862,-1.4514,6.6489,7.7865,-0.033292,0.0039706,-0.0051924
0.23697,-1.3141,6.5901,7.7669,-0.033903,0.002138,-0.0039706
0.23349,-1.3141,6.5901,7.61,-0.029932,0.0042761,0.0033598
0.21384,-1.3729,6.5116,7.7669,-0.023824,0.0079412,0.0036652
0.21039,-1.3141,6.5116,7.6492,-0.020769,0.0073304,-0.002138
0.21091,-1.3141,6.5116,7.7669,-0.019853,0.0088575,-0.0015272
0.2048,-1.4514,6.6293,7.7473,-0.019853,0.010079,-0.00030543
0.20297,-1.5887,6.6293,7.8453,-0.025045,0.013439,0.0012217
0.18881,-1.216,6.5116,7.7865,-0.030543,0.015272,0.0024435
0.18887,-1.3141,6.5312,7.6884,-0.031154,0.015272,0.0039706
0.19958,-1.3141,6.5312,7.6884,-0.03207,0.014355,-0.019548
0.18515,-1.3141,6.5901,7.7865,-0.032681,0.012523,-0.019242
0.18375,-1.4514,6.492,7.8061,-0.031154,0.011606,0.0024435
0.18414,-1.3925,6.5705,7.6884,-0.024435,0.013439,0
0.18307,-1.3141,6.4332,7.7473,-0.012828,0.013439,-0.0033598
0.18713,-1.3337,6.5116,7.7669,-0.0015272,0.013134,-0.0076358
0.19208,-1.4514,6.5116,7.8649,0.0051924,0.013744,-0.014661
0.18842,-1.216,6.5116,7.8649,0.0036652,0.013439,-0.018937
0.20068,-1.4514,6.5901,7.6492,-0.037568,0.0033598,-0.015577
0.2074,-1.5298,6.6293,7.8649,-0.041539,0.0054978,-0.013134
0.19901,-1.3141,6.5312,7.7865,-0.044593,0.0085521,-0.012217
0.20889,-1.1572,6.4135,7.7473,-0.045204,0.012828,-0.012523
0.20413,-1.3925,6.4332,7.7865,-0.043677,0.013134,-0.014966
0.21368,-1.1572,6.5116,7.7669,-0.043066,0.012523,-0.015577
0.20856,-1.1572,6.5312,7.7865,-0.044593,0.012217,-0.016493
0.20132,-1.3141,6.492,7.7865,-0.040317,0.012217,-0.017715
0.19443,-1.3925,6.4724,7.7473,-0.041844,0.010996,-0.017104
0.20773,-1.3925,6.4724,7.8649,-0.040623,0.01069,-0.018937
0.21918,-1.216,6.4724,7.6884,-0.037874,0.0076358,-0.0094684
0.22421,-1.3337,6.6489,7.6884,-0.038485,0.0064141,-0.009163
0.22369,-1.5887,6.6489,7.8649,-0.038179,0.0067195,-0.010385
0.22107,-1.4514,6.6293,7.6296,-0.036957,0.009163,-0.0088575
0.22311,-1.3141,6.5116,7.7669,-0.045815,0.011301,-0.011912
0.22116,-1.216,6.5116,7.7865,-0.040623,0.0082467,-0.014966
0.20248,-1.3925,6.5312,7.7669,-0.029932,0.0058032,-0.010079
0.19601,-1.216,6.4135,7.7669,-0.03146,0.0042761,-0.0076358
0.18231,-1.4514,6.5901,7.8649,-0.033292,0.0036652,-0.018021
0.16919,-1.4514,6.5116,7.6492,-0.03543,0.0027489,-0.018631
0.15652,-1.216,6.4135,7.7865,-0.03543,0.0039706,-0.016799
0.15018,-1.2945,6.5116,7.708,-0.03543,0.0073304,-0.015272
0.14282,-1.2945,6.5312,7.7865,-0.034819,0.010385,-0.013439
0.13013,-1.1572,6.492,7.7669,-0.031765,0.011606,-0.011912
0.10965,-1.216,6.5901,7.7473,-0.032987,0.013439,0.015577
0.094513,-1.118,6.5116,7.7865,-0.037263,0.012828,0.013439
0.087463,-1.3141,6.5116,7.6492,-0.036957,0.01069,0.026573
0.077026,-1.4514,6.5116,7.8453,-0.038179,0.0088575,0.02474
0.061584,-1.1768,6.4135,7.7865,-0.036957,0.0076358,0.023824
0.064606,-1.1768,6.5312,7.6884,-0.031154,0.0054978,0.022602
0.058807,-1.5298,6.5901,7.8649,-0.024435,0.0048869,0.019548
0.052917,-1.3337,6.5312,7.61,-0.022907,0.0039706,0.018631
0.059692,-1.3925,6.5312,7.7865,-0.029016,0.0051924,-0.0088575
0.04953,-1.2749,6.4724,7.7473,-0.035736,0.0076358,-0.0094684
0.042419,-1.216,6.5116,7.6884,-0.040317,0.0085521,0.013439
0.041138,-1.2945,6.5116,7.7865,-0.042761,0.0097738,0.011912
0.034729,-1.3141,6.492,7.6492,-0.04612,0.012523,0.0082467
0.030304,-1.3925,6.4724,7.7865,-0.051007,0.011301,0.0039706
0.039764,-1.4906,6.5116,7.9042,-0.052229,0.011912,0
0.035278,-1.4318,6.5116,7.8061,-0.048869,0.011606,-0.0054978
0.033234,-1.1572,6.5312,7.8649,-0.049786,0.014966,-0.0076358
0.069397,-1.4514,6.4724,7.9434,-0.040623,0.018631,-0.0088575
0.086731,-1.1572,6.3155,7.7865,-0.033598,0.015272,-0.0067195
0.10724,-1.1572,6.4135,7.7865,-0.024435,0.011606,-0.0051924
0.10861,-1.3141,6.4135,7.7865,-0.021075,0.0094684,-0.0027489
0.11737,-1.2945,6.492,7.7865,-0.021686,0.0039706,-0.0015272
0.12357,-1.3141,6.4724,7.7669,-0.020464,0.00030543,-0.0018326
0.12927,-1.2945,6.4724,7.7865,-0.019548,0,-0.0042761
0.142,-1.1572,6.5901,7.7865,-0.017715,0.0024435,-0.0097738
0.14325,-1.3337,6.5705,7.7865,-0.020464,0.0015272,-0.007025
0.13275,-1.1768,6.5116,7.7473,-0.026267,0.0045815,-0.0033598
0.13086,-1.3141,6.4724,7.6296,-0.033598,0.0051924,-0.00030543
0.12448,-1.3925,6.5116,7.6884,-0.037568,0,0.00061087
0.1268,-1.2945,6.5116,7.6884,-0.035736,-0.0067195,0
0.13397,-1.4906,6.6293,7.7865,-0.027184,-0.0088575,0.0009163
0.12936,-1.3141,6.6489,7.6492,-0.020159,-0.0082467,0.0027489
0.12524,-1.3141,6.6489,7.7473,0.0039706,0.011912,0.0018326
0.12207,-1.4318,6.4135,7.8061,-0.011912,0.013744,-0.00061087
0.12204,-1.3141,6.4135,7.7473,-0.029627,0.020464,-0.00061087
0.1178,-1.4318,6.3743,7.8649,-0.051313,0.024435,0.00061087
0.11011,-1.3141,6.5705,7.7865,-0.068417,0.0281,0.00061087
0.10217,-1.3925,6.5312,7.6492,-0.071166,0.029016,0.0015272
0.095245,-1.3925,6.4724,7.7669,-0.062614,0.028405,0.0033598
0.086121,-1.3337,6.3155,7.9238,-0.047953,0.025351,0.0024435
0.1055,-1.3337,6.4135,7.8649,-0.030543,0.020769,-0.0064141
0.097137,-1.216,6.4332,7.9238,-0.017104,0.015882,-0.0067195
0.082428,-1.1768,6.3547,7.8061,-0.014966,0.016188,-0.00030543
0.07373,-1.1572,6.4135,7.8649,-0.025351,0.018631,0.0009163
0.072205,-1.2945,6.5116,7.7865,-0.039401,0.018631,0.0018326
0.071106,-1.3729,6.5116,7.9042,-0.050091,0.016493,0.00061087
0.072052,-1.4514,6.492,7.8649,-0.054367,0.016493,-0.0027489
0.059998,-1.3141,6.3743,7.8061,-0.055283,0.015577,-0.0058032
0.070221,-1.3925,6.5116,7.8649,-0.012217,0.01069,0.0042761
0.064789,-1.3141,6.5116,7.7669,-0.01405,0.007025,0.0064141
0.072327,-1.3141,6.4135,7.6492,-0.018631,0.0073304,-0.0042761
0.079376,-1.3141,6.3547,7.7473,-0.024129,0.0079412,0.0018326
0.076202,-1.1572,6.4332,7.708,-0.025962,0.0076358,0.0058032
0.087585,-1.3141,6.5312,7.6884,-0.017715,0.0088575,0.0082467
0.087769,-1.2945,6.5901,7.7865,-0.016188,0.0094684,0.0079412
0.095245,-1.3141,6.5116,7.8649,-0.014966,0.010996,0.0048869
0.083344,-1.1768,6.5116,7.8453,-0.00030543,0.01069,0.029016
0.083282,-1.0787,6.4135,7.7473,-0.012828,0.0054978,0.025351
0.062317,-1.3141,6.4724,8.0022,-0.0281,-0.0012217,0.010385
0.084808,-1.1768,6.492,7.7669,-0.04215,-0.0054978,0.013744
0.091919,-1.1768,6.5705,7.7669,-0.052229,-0.0082467,0.018021
0.080811,-1.3141,6.492,7.6884,-0.056505,-0.0088575,0.022602
0.084991,-1.4122,6.492,7.6296,-0.053756,-0.0097738,0.029322
0.083771,-1.3141,6.5116,7.7865,-0.050702,-0.0085521,0.031154
0.0849,-1.2749,6.492,7.7473,-0.034514,-0.0079412,-0.026878
0.079987,-1.0787,6.4135,7.8453,-0.033598,-0.0088575,-0.034208
0.066711,-1.118,6.5116,7.7865,-0.033598,-0.0082467,0.019548
0.067566,-1.0199,6.5116,7.8649,-0.033903,-0.0079412,0.01405
0.064301,-1.1572,6.492,7.7865,-0.03207,-0.0048869,0.0067195
0.067841,-1.118,6.4135,7.8061,-0.023518,-0.0018326,-0.002138
0.057648,-1.216,6.3743,7.6884,-0.046426,0.002138,-0.013134
0.059875,-1.118,6.4135,7.9042,-0.039401,0.0039706,-0.02138
0.059235,-1.4906,6.4332,7.9042,-0.011912,0.0048869,-0.019853
0.052368,-1.2749,6.492,7.8649,-0.013744,0.0036652,-0.012828
0.049591,-1.3141,6.4724,7.8453,-0.015577,0.0051924,-0.037568
0.042755,-1.216,6.4724,7.8649,-0.017104,0.0058032,-0.036346
0.040863,-1.1572,6.3155,7.9042,-0.017715,0.007025,-0.034819
0.03717,-1.1376,6.3351,7.9434,-0.01741,0.0067195,-0.031765
0.040222,-1.216,6.3351,7.7865,-0.015882,0.0073304,-0.028711
0.030945,-1.1572,6.4332,7.9238,-0.012828,0.01069,-0.02474
0.020966,-1.0003,6.5116,7.9238,0.007025,0.014355,0.0073304
0.023926,-1.4514,6.492,8.0022,-0.0064141,0.018021,0.0045815
0.038055,-1.216,6.4135,7.6884,-0.0097738,0.015272,0.0030543
0.038177,-1.1572,6.4135,7.6492,-0.009163,0.012828,0.0067195
0.026794,-1.2749,6.6293,7.61,-0.010996,0.0097738,0.011912
0.017944,-1.3141,6.6489,7.6884,-0.0094684,0.0064141,0.012523
0.010193,-1.216,6.6685,7.7669,-0.0064141,0.0051924,0.010079
0.005249,-1.2749,6.5116,7.7865,-0.0030543,0.0030543,0.0079412
0.0055237,-1.4318,6.4724,7.7865,-0.0018326,0.0042761,-0.017715
0.0064392,-1.216,6.4135,7.7473,-0.0048869,0.0054978,-0.016493
0.00073242,-1.2356,6.5901,7.7865,-0.002138,0.0045815,0.0015272
0.0061035,-1.0787,6.5901,7.7865,0.00030543,0.0058032,-0.00030543
0.0044861,-1.3141,6.5312,7.7865,0,0.0073304,-0.0036652
0.010529,-1.4514,6.5312,7.7865,-0.0012217,0.0097738,-0.0097738
0.010559,-1.2945,6.4724,7.7669,-0.0012217,0.012828,-0.014966
0.0093689,-1.3337,6.5705,7.7865,-0.00030543,0.016188,-0.01741
0.016418,-1.1572,6.5312,7.7669,-0.0015272,0.018631,0.0039706
0.0079651,-1.0787,6.5901,7.7473,-0.0030543,0.015272,0.0027489
0.019409,-1.1768,6.7274,7.7669,-0.0085521,0.017104,-0.014661
0.025116,-1.3141,6.6489,7.5511,-0.016493,0.018326,-0.01069
0.025757,-1.3141,6.5901,7.6296,-0.022907,0.016799,-0.0039706
0.0070801,-1.2749,6.6685,7.708,-0.029627,0.01741,-0.0024435
0.0033264,-1.216,6.6293,7.6884,-0.03543,0.016493,0.00061087
0.0018921,-1.3337,6.5901,7.61,-0.039706,0.015272,0.0024435
0.0065918,-1.3141,6.5116,7.7865,-0.039401,0.016493,-0.0073304
-0.00024414,-1.2945,6.4724,7.8649,-0.036957,0.019853,-0.0036652
-0.0091553,-1.2945,6.5901,7.8453,-0.03207,0.020464,-0.0012217
-0.010651,-1.216,6.5116,7.7865,-0.026267,0.018937,-0.0042761
-0.011047,-1.1572,6.5116,7.7865,-0.02138,0.018937,-0.0067195
-0.014893,-1.1572,6.4724,7.7669,-0.018631,0.016799,-0.0088575
-0.014008,-1.1376,6.5116,7.8649,-0.01741,0.014355,-0.010079
-0.0071106,-1.3337,6.5901,7.9042,-0.019853,0.013744,-0.0097738
-0.010376,-1.1572,6.5705,7.8453,0.00030543,0.014355,-0.0061087
-0.0014954,-1.2945,6.5312,7.7669,0.00030543,0.014355,-0.007025
0.022888,-1.3141,6.5901,7.7473,-0.0024435,0.013134,-0.0079412
0.031769,-1.118,6.5116,7.8649,-0.0061087,0.012828,-0.0061087
0.033478,-1.3141,6.5116,7.6884,-0.010996,0.013439,-0.0058032
0.031372,-1.3141,6.5312,7.8453,-0.014966,0.014355,-0.0039706
0.026733,-1.1572,6.5116,7.7473,-0.013744,0.015577,-0.002138
0.019348,-1.1572,6.5901,7.7865,-0.010996,0.01405,-0.0042761
0.013458,-1.216,6.6293,7.6884,0.0033598,0.012828,-0.015577
0.017029,-1.3337,6.6489,7.7669,-0.0033598,0.0085521,-0.012828
0.014008,-1.1376,6.5901,7.708,-0.01405,0.010079,-0.0094684
0.011444,-1.0787,6.6489,7.708,-0.021991,0.011301,-0.012523
0.0021057,-1.3925,6.6489,7.7865,-0.025656,0.010385,-0.012828
-0.015167,-1.216,6.5901,7.6884,-0.02474,0.011606,-0.01405
-0.0096436,-1.3141,6.5901,7.7669,-0.0061087,0.0097738,-0.014355
-0.019775,-1.216,6.5901,7.6492,0.00061087,0.0088575,-0.014966
-0.01004,-1.2749,6.6293,7.61,-0.019548,0.0094684,-0.0064141
-0.0029907,-1.4514,6.6489,7.7669,-0.023824,0.0079412,-0.0082467
-0.0082092,-1.1572,6.492,7.6884,-0.03207,0.0054978,-0.011606
-0.0095215,-1.0787,6.4724,7.6884,-0.043066,0.0061087,-0.0094684
0.0031738,-1.2945,6.5705,7.7865,-0.04948,0.0064141,-0.0094684
0.018646,-1.118,6.5705,7.7669,-0.048258,0.0045815,-0.010079
0.020996,-1.216,6.5901,7.6884,-0.021686,0.0048869,-0.0079412
0.026306,-1.1572,6.4724,7.6492,-0.018326,0.0061087,-0.0061087
0.023468,-1.1376,6.4724,7.6884,-0.039706,0.0079412,-0.01069
0.031921,-1.2749,6.6685,7.6884,-0.03146,0.0088575,-0.0088575
0.035706,-1.0787,6.5705,7.6884,-0.022297,0.011301,-0.0073304
0.043915,-1.3141,6.6489,7.7865,-0.016493,0.012217,-0.0054978
0.049255,-1.1572,6.4724,7.7473,-0.017104,0.012217,-0.0045815
0.036896,-1.3141,6.5901,7.6492,-0.022602,0.012217,-0.0051924
0.031708,-1.1768,6.6489,7.7473,-0.03207,0.013744,-0.0033598
0.038055,-1.0787,6.6293,7.7473,-0.037568,0.014355,-0.010079
0.043915,-1.3337,6.7274,7.7865,0.0027489,0.018021,-0.0015272
0.058777,-1.4906,6.5901,7.9042,-0.0018326,0.019548,-0.0058032
0.075134,-1.216,6.6489,7.708,-0.0067195,0.020769,-0.010385
0.075836,-1.216,6.5312,7.7865,-0.0088575,0.021686,-0.007025
0.085449,-1.216,6.6293,7.7473,-0.013744,0.020464,-0.0039706
0.083679,-1.1376,6.6293,7.708,-0.020464,0.019853,-0.0024435
0.077148,-1.2356,6.6293,7.7669,-0.026878,0.020159,-0.0012217
0.068085,-1.4514,6.5508,7.8649,-0.030543,0.020769,0.00030543
0.072571,-1.1768,6.3547,7.8061,-0.03146,0.018021,-0.028711
0.059174,-1.118,6.3743,7.8061,-0.030849,0.014355,-0.027184
0.052612,-1.216,6.5116,7.7473,-0.02474,0.012523,-0.012217
0.049225,-1.0787,6.6489,7.8453,-0.015882,0.012828,-0.016493
0.043701,-1.2749,6.5901,7.8649,-0.0085521,0.015272,-0.019242
0.038177,-1.3141,6.5116,7.6884,-0.0058032,0.018631,-0.019242
0.029694,-1.1768,6.4135,7.7473,-0.01069,0.018631,-0.021686
0.026001,-1.3141,6.4135,7.6492,-0.021075,0.018631,-0.026267
0.013916,-1.1572,6.5116,7.7865,-0.0281,0.018937,0.012523
0.012695,-1.3141,6.5116,7.7865,-0.028711,0.020769,0.020159
0.017914,-1.4514,6.5116,7.8649,-0.019853,0.018021,-0.023518
0.0023499,-1.1572,6.5705,7.7865,-0.013134,0.016188,-0.019242
0.0080872,-1.216,6.5901,7.7669,-0.012217,0.016188,-0.013439
0.0033875,-1.216,6.492,7.7473,-0.012217,0.018326,-0.010996
-0.0029907,-1.1572,6.4135,7.8061,-0.018326,0.018326,-0.0039706
-0.010559,-1.3141,6.5312,7.7865,-0.024129,0.018631,0.0045815
-0.014099,-1.3925,6.5901,7.8453,-0.04215,0.018937,-0.014661
-0.019226,-1.2749,6.5312,7.61,-0.035125,0.022297,-0.010996
-0.028595,-1.1572,6.5116,7.7865,-0.029016,0.020464,-0.018631
-0.035553,-1.3925,6.3743,7.8061,-0.021686,0.01741,-0.018326
-0.042023,-1.216,6.3547,7.7669,-0.014661,0.017104,-0.020159
-0.04715,-1.1572,6.5705,7.7865,-0.0079412,0.015272,-0.018326
-0.043701,-1.3141,6.5312,7.7865,-0.002138,0.014966,-0.016188
-0.046265,-1.2945,6.5312,7.7669,-0.00030543,0.014966,-0.016188
-0.035583,-1.3337,6.6293,7.61,-0.031765,0.022907,-0.007025
-0.021088,-1.216,6.5901,7.6492,-0.022907,0.018326,-0.0088575
-0.0022278,-1.2945,6.5116,7.5511,-0.014355,0.021991,-0.015882
0.0082092,-0.98067,6.3547,7.6884,-0.0076358,0.025351,-0.011301
0.024292,-1.0199,6.5116,7.7865,-0.0054978,0.023518,-0.0058032
0.0354,-1.216,6.4332,8.0022,-0.010385,0.022907,-0.0036652
0.038818,-1.2945,6.4724,7.9042,-0.044899,0.02138,-0.0012217
0.041718,-1.2945,6.4724,7.8061,-0.040317,0.019548,-0.0030543
0.05545,-1.3141,6.5901,7.8649,-0.050396,0.021686,-0.0079412
0.066711,-1.216,6.4135,7.7669,-0.058643,0.027794,-0.0024435
0.077698,-1.3925,6.5116,7.6884,-0.064141,0.026573,-0.012828
0.074646,-1.4514,6.5116,7.8061,-0.066279,0.023213,-0.015272
0.081268,-1.216,6.5901,7.6884,-0.069944,0.020159,-0.017104
0.083313,-1.1572,6.6489,7.7473,-0.072998,0.015577,-0.01741
0.087463,-1.118,6.6489,7.7473,-0.020464,0.011301,-0.014355
0.09198,-1.3141,6.5901,7.6884,-0.034514,0.007025,-0.011606
0.085907,-1.4906,6.6293,7.7669,0.0045815,-0.0015272,-0.051924
0.090271,-1.3337,6.5116,7.6884,0.016188,0.0051924,-0.049786
0.10147,-1.4514,6.5312,7.7865,0.020159,0.010385,-0.010996
0.10742,-1.2945,6.5116,7.7473,0.017715,0.015272,-0.02138
0.11252,-1.2749,6.5312,7.7865,0.0073304,0.018937,-0.03146
0.1138,-1.1572,6.4135,7.8649,-0.0064141,0.023518,-0.041844
0.11993,-1.216,6.5116,7.7865,-0.018631,0.026573,-0.046426
0.12289,-1.3141,6.3743,7.7865,-0.024435,0.026267,-0.04948
0.1145,-1.118,6.3351,7.7669,-0.025045,0.027489,-0.021991
0.11841,-1.0199,6.4135,7.9042,-0.023824,0.026267,-0.018326
0.1203,-1.118,6.5116,7.8061,-0.024129,0.024129,-0.045509
0.1138,-1.216,6.4135,7.9434,-0.028405,0.021686,-0.041539
0.1109,-1.1376,6.3547,7.8453,-0.029932,0.018326,-0.034208
0.1001,-1.1572,6.4135,7.8649,-0.029932,0.018326,-0.0281
0.096649,-1.3141,6.3743,7.9042,-0.036346,0.018937,-0.025351
0.096191,-1.3925,6.4135,7.9238,-0.044288,0.021075,-0.024129
0.1001,-1.2749,6.3547,7.8649,-0.03543,0.0067195,-0.0085521
0.10889,-1.6083,6.3743,7.9434,-0.036652,0.0073304,-0.0067195
0.11121,-1.1572,6.4724,7.8649,-0.039401,0.0088575,-0.007025
0.12204,-1.1572,6.4135,7.8649,-0.041233,0.0094684,-0.0061087
0.11472,-1.1376,6.3547,7.7865,-0.040928,0.0079412,-0.0048869
0.10648,-1.216,6.4332,7.7865,-0.040317,0.0054978,-0.0048869
0.10184,-1.3141,6.4724,7.7473,-0.03879,0.0042761,-0.0064141
0.092529,-1.3141,6.4332,7.9042,-0.038179,0.0058032,-0.0088575
0.095276,-1.118,6.4332,7.7865,0.0061087,0.024435,0.0036652
0.088898,-1.2749,6.5312,7.7669,0.0094684,0.021075,0.0012217
0.082245,-1.3141,6.4724,7.8649,0.014355,0.021686,-0.0045815
0.076721,-1.3141,6.5116,7.6884,0.016493,0.020769,-0.0012217
0.072998,-1.216,6.4135,7.6884,0.012828,0.018937,0
0.076721,-1.2749,6.5312,7.7865,-0.0030543,0.018326,0.0009163
0.070129,-1.216,6.5312,7.7473,-0.019853,0.019242,0.0033598
0.065674,-1.1572,6.5705,7.7865,-0.03146,0.019853,0.0064141
0.062469,-1.0787,6.4724,7.8061,-0.037263,0.020769,-0.002138
0.05661,-1.1768,6.492,7.7865,-0.039706,0.022602,-0.0042761
0.052826,-1.2945,6.4135,7.8453,-0.039095,0.021991,0.002138
0.046692,-1.2945,6.4135,7.7473,-0.034514,0.022297,0.0033598
0.047852,-1.3141,6.4724,7.7669,-0.029627,0.021075,0.0039706
0.043762,-1.1572,6.4135,7.9042,-0.023824,0.018326,0.0030543
0.044037,-1.0787,6.3743,7.8453,-0.015882,0.015272,0
0.041351,-1.3141,6.4135,7.7865,-0.014661,0.01405,-0.00030543
0.04248,-1.0787,6.4135,7.8649,-0.018631,0.013134,-0.0054978
0.032654,-1.3141,6.492,7.9238,-0.029627,0.013744,-0.0051924
0.023956,-1.4318,6.5116,7.9434,-0.034819,0.011606,-0.0054978
0.025299,-1.1572,6.4724,7.9042,-0.032987,0.0085521,-0.0054978
0.01532,-1.1768,6.5116,7.8649,-0.031154,0.0079412,-0.0064141
0.0088501,-1.4514,6.5116,7.8649,-0.029627,0.007025,-0.0082467
0.011261,-1.3141,6.5116,7.7865,-0.03146,0.007025,-0.0079412
0.011414,-1.1572,6.492,7.8453,-0.034208,0.0067195,-0.0073304
0.0028076,-1.118,6.3547,7.7669,0.0042761,0.032376,-0.0076358
0.010315,-1.3141,6.4135,7.8649,-0.021686,0.032987,-0.0067195
0.025787,-1.2356,6.4135,7.6296,-0.019853,0.028405,-0.01741
0.028046,-1.1572,6.5116,7.7865,-0.015882,0.022907,-0.014355
0.024261,-1.3141,6.3743,7.9434,-0.010385,0.018937,-0.012217
0.031799,-1.216,6.3743,7.8649,-0.0033598,0.015272,-0.010996
0.020721,-1.2749,6.4135,7.8453,0.0051924,0.010996,-0.010079
0.020691,-1.1376,6.4724,7.8649,0.0079412,0.0094684,-0.0082467
0.0077209,-1.3141,6.4332,7.8649,-0.011606,0.013439,0
0.0068359,-1.1376,6.4135,7.9042,-0.0058032,0.012523,0.0061087
0.0052795,-1.1572,6.3547,7.8649,-0.0009163,0.013134,-0.013744
-0.0092773,-1.216,6.3547,7.7865,-0.00030543,0.014355,-0.010385
-0.0065613,-1.3141,6.4332,7.7865,0.00061087,0.01405,-0.0097738
6.1035e-05,-1.1376,6.5116,7.8649,0.0030543,0.012828,-0.0082467
0.0033569,-1.1376,6.492,7.9238,0.0076358,0.011301,-0.0045815
-0.0016174,-1.3141,6.3547,7.7669,0.011912,0.010079,-0.0027489
0.0018921,-1.1768,6.3547,7.8649,-0.0030543,0.010079,0.010079
-0.017487,-1.4514,6.3547,7.9434,-0.0082467,0.011606,0.0051924
-0.0039063,-1.216,6.3547,7.7865,-0.013134,0.012828,0.01069
-0.0021973,-1.1376,6.4135,7.8061,-0.014661,0.013744,0.012523
-0.015991,-1.2356,6.5312,7.6492,-0.0079412,0.013744,0.016188
-0.018188,-1.1376,6.5901,7.8061,0.0042761,0.012828,0.018326
-0.012146,-1.216,6.492,7.7865,0.012828,0.012217,0.017104
-0.011047,-1.4318,6.4135,7.9042,0.0048869,0.012828,0.013744
-0.015411,-1.0199,6.492,7.7865,0.02138,0.013134,-0.020769
-0.020874,-1.2945,6.5312,7.8649,0.015882,0.014966,-0.018631
-0.050812,-1.2945,6.5116,7.7865,0.0042761,0.016493,0.00061087
-0.027924,-1.2945,6.4724,7.7669,-0.0082467,0.019548,-0.0048869
-0.027771,-1.1572,6.3351,7.8649,-0.018631,0.022602,-0.01069
-0.035706,-1.1572,6.4135,7.8649,-0.025656,0.025351,-0.015577
-0.035461,-1.3141,6.4724,7.8453,0.013744,0.029016,-0.018631
-0.038696,-1.3925,6.5116,7.9238,0.019853,0.031765,-0.020769
-0.040375,-1.3925,6.4135,7.9238,-0.046426,0.016493,-0.0045815
-0.035156,-1.6475,6.4724,7.9434,-0.053756,0.015882,-0.0061087
-0.019958,-1.118,6.4135,7.7865,-0.056505,0.016188,-0.022297
-0.015167,-1.3337,6.5901,7.8453,-0.05284,0.016188,-0.019853
-0.011383,-1.1572,6.5901,7.6296,-0.046426,0.013744,-0.015882
-0.0097046,-1.1572,6.6489,7.7669,-0.037874,0.0097738,-0.011606
-0.01889,-1.0787,6.5312,7.6296,-0.029322,0.0042761,-0.0094684
-0.022766,-1.118,6.5312,7.7669,-0.021075,0.0009163,-0.0064141
-0.023895,-1.3337,6.492,7.61,-0.01741,-0.002138,-0.022907
-0.03717,-1.1572,6.492,7.7669,-0.015882,-0.0024435,-0.023518
-0.038055,-1.3141,6.5116,7.8649,-0.017715,-0.0048869,-0.0067195
-0.044586,-1.3729,6.6489,7.8061,-0.024435,-0.0054978,-0.007025
-0.035553,-1.216,6.5705,7.7865,-0.028405,-0.0039706,-0.011912
-0.027161,-1.2945,6.4724,7.8649,-0.030849,-0.0033598,-0.015577
-0.01886,-1.1572,6.3351,7.7865,-0.030543,-0.0036652,-0.019548
-0.024567,-1.2356,6.3547,7.7865,-0.029322,-0.0030543,-0.022602
-0.015076,-1.0787,6.3547,7.8649,-0.0281,-0.0012217,-0.018326
-0.010712,-1.1768,6.4332,7.7669,-0.025962,0.0015272,-0.020159
-0.0074158,-1.2356,6.492,7.7865,-0.02474,0.0039706,-0.023518
-0.00073242,-1.3729,6.5116,7.9434,-0.023824,0.0073304,-0.021991
0.00082397,-1.1572,6.5312,7.7669,-0.023824,0.010996,-0.019548
0.007782,-1.1768,6.4724,7.8061,-0.025045,0.013439,-0.01741
0.018372,-1.0787,6.4724,7.8649,-0.024129,0.014355,-0.016799
0.014282,-1.216,6.492,7.8453,-0.022297,0.014355,-0.016799
0.012054,-1.2945,6.4724,7.8649,-0.018937,0.015272,-0.018021
0.013397,-1.1768,6.4724,7.7865,-0.015272,0.013439,-0.019853
0.0067139,-1.1572,6.5312,7.7473,-0.013439,0.013439,-0.019853
0.0040588,-1.1572,6.492,7.7865,-0.011301,0.014355,-0.022297
0.002533,-1.216,6.5901,7.7865,-0.0094684,0.014355,-0.021686
0.0049744,-1.1768,6.6293,7.8061,-0.012217,0.013439,-0.02138
0.0047607,-1.1376,6.4135,7.7669,-0.014661,0.017104,-0.022602
0.0013123,-1.216,6.492,7.7669,-0.014661,0.020769,-0.019853
0.0027466,-1.471,6.5116,7.8649,0.00061087,0.018326,-0.0058032
0.015076,-1.2356,6.5116,7.7669,0.0018326,0.01405,-0.0061087
0.031647,-1.1572,6.5116,7.8453,0.00030543,0.013134,-0.013134
0.058228,-1.0787,6.5116,7.8649,0.0009163,0.011301,-0.012523
0.055298,-1.216,6.5312,7.7865,-0.0015272,0.013744,-0.01405
0.064178,-1.4514,6.5116,7.8649,-0.0048869,0.014661,-0.012828
0.072693,-1.3141,6.4724,7.708,-0.0079412,0.015882,-0.010385
0.067169,-1.3141,6.492,7.7865,-0.014966,0.018631,-0.007025
0.072327,-1.216,6.5116,7.7669,-0.031154,0.019853,-0.002138
0.070038,-1.1376,6.492,7.7865,-0.025656,0.022297,-0.0033598
0.076172,-1.3337,6.5116,7.8649,-0.019242,0.020159,-0.0048869
0.088898,-1.2945,6.5312,7.6296,-0.011912,0.018937,-0.0048869
0.075256,-1.3337,6.5901,7.7473,-0.0051924,0.018631,-0.0045815
0.093628,-1.4514,6.6489,7.8061,-0.0018326,0.016188,-0.0027489
0.09079,-1.3141,6.5705,7.7473,-0.022907,0.014966,-0.0024435
0.082428,-1.1572,6.5116,7.7865,-0.030849,0.013439,-0.0024435
0.08429,-1.1572,6.492,7.7669,-0.016188,0.010385,0.0042761
0.084839,-1.3925,6.5705,7.6884,-0.022297,0.0064141,0.0061087
0.079407,-1.4906,6.5901,7.7865,-0.026267,0.0094684,-0.0015272
0.076385,-1.216,6.5901,7.8061,-0.029322,0.014355,0
0.083435,-1.3925,6.5901,7.8061,-0.030238,0.014661,0.0036652
0.080688,-1.2749,6.5116,7.6884,-0.030238,0.014661,0.0033598
0.07901,-1.1572,6.5116,7.6884,-0.0012217,0.013744,0.0033598
0.075287,-1.2945,6.5312,7.6884,-0.0058032,0.01069,0.0039706
0.065155,-1.2356,6.5312,7.7865,0.0039706,0.016799,-0.014661
0.062378,-1.3925,6.6293,7.8453,-0.0027489,0.014966,-0.014661
0.059753,-1.1572,6.5901,7.8649,-0.0082467,0.019853,-0.023824
0.045959,-1.3141,6.5116,7.61,-0.012828,0.021991,-0.020769
0.049683,-1.3925,6.5705,7.7865,-0.017715,0.022602,-0.017715
0.040222,-1.3337,6.4135,7.8061,-0.018021,0.022907,-0.015577
0.034882,-1.1768,6.4135,7.7669,-0.013744,0.022297,-0.015577
0.026733,-1.4514,6.6489,7.8453,-0.0051924,0.021075,-0.014661
0.02594,-1.2945,6.6489,7.7865,-0.025351,0.011912,-0.0061087
0.022919,-1.4514,6.5705,7.7865,-0.032681,0.015577,-0.0073304
0.031921,-1.3141,6.5312,7.7473,-0.035125,0.015577,-0.0024435
0.042358,-1.118,6.492,7.7865,-0.034819,0.012828,-0.0030543
0.042084,-1.1572,6.5901,7.7865,-0.031765,0.013439,-0.0018326
0.043823,-1.3141,6.5901,7.8649,-0.022297,0.013134,-0.002138
0.042999,-1.2945,6.6293,7.7473,-0.01069,0.012523,-0.0033598
0.033691,-1.2356,6.6293,7.6884,0.002138,0.0082467,-0.0048869
0.033752,-1.0787,6.5116,7.6492,0.01405,0.0073304,-0.011301
0.030029,-1.216,6.6293,7.61,0.017715,0.0085521,-0.012828
0.047028,-1.216,6.5116,7.708,0.013744,0.0094684,-0.0076358
0.037354,-1.4906,6.5116,7.7865,0.0094684,0.01069,-0.0094684
0.042297,-1.0787,6.3743,7.7669,0.002138,0.012523,-0.010385
0.043854,-1.5298,6.5901,7.9042,-0.0097738,0.013439,-0.0085521
0.051147,-1.1572,6.492,7.7865,-0.019548,0.014661,-0.0097738
0.058807,-1.3337,6.5116,7.7865,-0.023518,0.016799,-0.010079
0.059052,-1.2945,6.4724,7.7473,-0.036652,0.017104,-0.0079412
0.057373,-1.1768,6.4724,7.6884,-0.027184,0.016493,-0.0073304
0.064117,-1.1376,6.5116,7.7669,-0.015577,0.014966,-0.0082467
0.069641,-1.2749,6.5901,7.7669,-0.0058032,0.013744,-0.0097738
0.074677,-1.2945,6.492,7.8649,-0.0030543,0.015272,-0.010385
0.074188,-1.2945,6.5116,7.6296,-0.009163,0.017715,-0.011606
0.078308,-1.2945,6.5312,7.7865,-0.020464,0.022297,-0.01069
0.070831,-1.216,6.5705,7.7865,-0.029627,0.025351,-0.0082467
0.068268,-1.3337,6.5116,7.61,-0.03146,0.026573,0.00030543
0.074707,-1.118,6.5901,7.8061,-0.025656,0.023213,-0.0009163
0.069397,-1.118,6.6489,7.708,-0.017715,0.020769,-0.0048869
0.063873,-1.1572,6.5901,7.6884,-0.013134,0.018631,-0.0027489
0.060699,-1.1768,6.5901,7.7473,-0.01069,0.018021,-0.0015272
0.058533,-1.1768,6.5901,7.7865,-0.0094684,0.01741,-0.0018326
0.059296,-1.1376,6.4135,7.6884,-0.012828,0.014661,-0.0018326
0.057404,-1.216,6.6489,7.7865,-0.018326,0.012217,0
0.050476,-1.1572,6.5312,7.6884,-0.0076358,0.01405,-0.0048869
0.062469,-1.3141,6.4724,7.7865,-0.0054978,0.013134,-0.0042761
0.087738,-1.3141,6.5116,7.61,-0.0036652,0.013134,0.0042761
0.098053,-1.2749,6.5116,7.7865,-0.0033598,0.010996,0.0036652
0.10818,-1.5887,6.5901,7.8453,-0.0076358,0.0097738,0.0024435
0.088562,-1.1572,6.5901,7.708,-0.01741,0.0097738,0.0009163
0.10587,-1.1572,6.5116,7.6884,-0.015882,0.010079,-0.002138
0.10117,-1.3141,6.4724,7.8061,-0.0094684,0.010079,-0.0036652
0.10715,-1.1768,6.5901,7.8649,-0.040623,0.010385,-0.0009163
0.11069,-1.216,6.5116,7.7865,-0.03879,0.0079412,-0.0030543
0.11295,-1.3141,6.3743,7.8649,-0.030238,0.011912,-0.0045815
0.11322,-1.3925,6.6489,7.8649,-0.018937,0.013744,-0.0058032
0.1058,-1.1768,6.6293,7.7865,-0.0097738,0.013744,-0.0030543
0.10541,-1.2945,6.6489,7.61,-0.0064141,0.01405,-0.0018326
0.10336,-1.216,6.5901,7.6884,-0.029932,0.012217,-0.00061087
0.11093,-1.1572,6.5116,7.7669,-0.038485,0.01069,0.00030543
0.10791,-1.2945,6.5116,7.708,-0.018937,0.011606,-0.0027489
0.096161,-1.3141,6.5116,7.7473,-0.030543,0.010385,-0.0024435
0.10733,-1.3141,6.5901,7.6296,-0.033292,0.016799,-0.012523
0.11502,-1.1572,6.6489,7.7473,-0.030238,0.020464,-0.0082467
0.10269,-1.216,6.6489,7.7473,-0.022602,0.018937,-0.0079412
0.1142,-1.1572,6.5312,7.708,-0.014661,0.017104,-0.0073304
0.11429,-1.3925,6.5116,7.7865,-0.0054978,0.013439,-0.0045815
0.12622,-1.4906,6.6293,7.7865,0.00030543,0.0094684,-0.0045815
0.12704,-1.1376,6.5705,7.7865,0.0045815,0.0088575,0.0039706
0.12714,-1.216,6.5901,7.7669,0.0042761,0.0067195,0.0051924
0.12793,-1.0591,6.5312,7.7473,-0.0061087,0.0085521,-0.0036652
0.11993,-1.0787,6.6489,7.7865,-0.020769,0.011606,-0.0045815
0.12607,-1.2749,6.5116,7.61,-0.03207,0.013744,-0.0039706
0.12732,-1.1768,6.4724,7.6884,-0.036957,0.015577,-0.00061087
0.12619,-1.4514,6.5312,7.8649,-0.033598,0.017104,0.0018326
0.11877,-1.2749,6.6293,7.6884,-0.025045,0.015882,0.0018326
0.11771,-1.1768,6.6489,7.7669,-0.025351,0.016799,-0.0033598
0.13644,-1.4514,6.5312,7.7865,-0.032987,0.019548,-0.007025
0.14655,-1.216,6.5312,7.7473,-0.031765,0.018326,-0.0018326
0.16211,-1.3337,6.5312,7.7669,-0.024435,0.018326,-0.00030543
0.16766,-1.1572,6.5901,7.6884,-0.019242,0.018021,0.007025
0.17511,-1.1572,6.6293,7.8061,-0.01069,0.018021,0.0067195
0.17456,-1.1572,6.7274,7.708,-0.00061087,0.015882,0.0048869
0.19022,-1.3141,6.6489,7.61,0.0048869,0.014661,0.0018326
0.17288,-1.1572,6.5312,7.7669,-0.027489,0.017104,-0.01069
0.17374,-1.118,6.4724,7.7865,-0.029932,0.020159,-0.013134
0.172,-1.216,6.492,7.6884,-0.030543,0.017715,0.007025
0.17886,-1.216,6.5901,7.7473,-0.030238,0.014355,0.0058032
0.17203,-1.2356,6.5901,7.6884,-0.030849,0.013134,0.0045815
0.17365,-1.1376,6.5116,7.6884,-0.023213,0.014661,0.0018326
0.17786,-1.0787,6.5116,7.7473,-0.012217,0.01405,-0.0018326
0.17175,-1.3141,6.5901,7.7865,-0.0018326,0.012217,-0.0058032
0.15729,-1.2356,6.5312,7.6884,0.0058032,0.0094684,-0.0036652
0.16232,-1.2749,6.5901,7.61,0.007025,0.0033598,-0.0033598
0.14975,-1.1768,6.6881,7.708,0.0024435,0.0061087,-0.014661
0.13937,-1.216,6.6293,7.6884,-0.0024435,0.0097738,-0.015272
0.13602,-1.1768,6.5312,7.7669,-0.01405,0.010996,-0.011912
0.13986,-1.3729,6.5901,7.7669,-0.02474,0.014355,-0.0064141
0.13953,-1.3141,6.4724,7.7865,-0.029627,0.016188,-0.0039706
0.13214,-1.1572,6.5705,7.7669,-0.028711,0.015272,-0.0042761
0.12494,-1.2356,6.5901,7.6884,-0.021991,0.014661,0.0036652
0.12189,-1.2356,6.6489,7.7669,-0.012828,0.015272,0.0024435
0.12396,-1.1572,6.6489,7.708,-0.0082467,0.011912,-0.00030543
0.12173,-1.3141,6.5116,7.7865,-0.0058032,0.007025,0.0027489
0.12027,-1.118,6.5312,7.7669,-0.0024435,0.0048869,0.0018326
0.11536,-1.0787,6.5312,7.708,-0.0042761,0.0061087,0.0030543
0.11768,-1.1572,6.6489,7.7865,-0.010996,0.0079412,0.0058032
0.11307,-1.2749,6.6293,7.7865,-0.018631,0.011301,0.0058032
0.11661,-1.2749,6.5901,7.61,-0.020159,0.01405,-0.00061087
0.13159,-1.2945,6.5116,7.6492,-0.01741,0.016799,-0.00061087
0.14911,-1.1768,6.5705,7.7865,-0.01741,0.013134,-0.0051924
0.16284,-1.2945,6.5901,7.6296,-0.022297,0.013134,-0.0048869
0.17633,-1.1572,6.5705,7.708,-0.0281,0.015882,-0.0030543
0.1806,-1.1572,6.6489,7.708,-0.029932,0.015882,-0.0018326
0.18665,-1.216,6.6489,7.7865,-0.029016,0.016188,-0.0009163
0.17624,-1.3141,6.5901,7.6884,-0.027184,0.016188,-0.00030543
0.18195,-1.216,6.6489,7.6884,-0.025962,0.016799,-0.015577
0.17511,-1.216,6.6293,7.61,-0.026878,0.01405,-0.016799
0.17365,-1.3141,6.6489,7.708,-0.026878,0.013439,0.0009163
0.18982,-1.1768,6.5116,7.6884,-0.025962,0.013744,-0.0009163
0.17505,-1.216,6.5705,7.61,-0.023518,0.012523,-0.0033598
0.17944,-1.216,6.6489,7.6884,-0.019853,0.012523,-0.0067195
0.186,-1.1768,6.6489,7.7473,-0.018937,0.01405,-0.010996
0.18036,-1.118,6.4724,7.7669,-0.021991,0.01405,-0.014355
0.17407,-1.1572,6.6293,7.7865,-0.012828,0.011912,-0.009163
0.18475,-1.216,6.5312,7.61,-0.017715,0.0076358,-0.0076358
0.17621,-1.3141,6.6293,7.7865,-0.027489,0.0088575,-0.018326
0.18237,-1.1768,6.6489,7.7865,-0.035125,0.012217,-0.017715
0.18262,-1.216,6.6489,7.7473,-0.037568,0.01405,-0.015577
0.1778,-1.118,6.5312,7.6492,-0.036652,0.016188,-0.013744
0.1806,-1.216,6.6293,7.61,-0.018021,0.018631,-0.011301
0.18555,-1.1768,6.6293,7.7669,-0.01069,0.017104,-0.010385
0.17511,-1.1572,6.5116,7.6884,-0.022297,0.015882,-0.010079
0.17276,-1.0787,6.4724,7.7865,-0.021075,0.015882,-0.010996
0.16977,-1.3729,6.6489,7.7865,-0.021991,0.01069,-0.0082467
0.15787,-1.3141,6.5116,7.8453,-0.020769,0.01069,-0.007025
0.1636,-1.0787,6.492,7.7669,-0.016493,0.010385,-0.0073304
0.16034,-1.2749,6.5901,7.6884,-0.011301,0.011606,-0.0079412
0.17429,-1.2749,6.6685,7.7865,-0.032376,0.013439,-0.010079
0.1795,-1.1768,6.6489,7.6884,-0.026878,0.015577,-0.010079
0.18347,-1.4514,6.6293,7.7865,-0.018021,0.019242,-0.017104
0.20438,-1.471,6.5901,7.708,-0.020464,0.022297,-0.014966
0.23721,-1.1376,6.6293,7.6884,-0.020769,0.020769,-0.016493
0.25,-1.2945,6.5312,7.8649,-0.017104,0.017715,-0.015882
0.25696,-1.2945,6.5901,7.7669,-0.01069,0.016799,-0.016799
0.26016,-1.118,6.5116,7.7473,-0.007025,0.015577,-0.01741
0.26447,-1.2749,6.6293,7.6884,-0.0039706,0.013744,-0.018326
0.26877,-1.1376,6.5901,7.7669,-0.0024435,0.01405,-0.018326
0.26611,-1.3141,6.5901,7.708,-0.0024435,0.01405,-0.020769
0.26642,-1.2945,6.5312,7.5903,-0.0045815,0.012523,-0.020769
0.26447,-1.0787,6.6489,7.6884,-0.0088575,0.016799,-0.014355
0.26984,-1.1376,6.5901,7.7473,-0.013134,0.022907,-0.014661
0.27704,-1.3141,6.5901,7.7865,-0.018937,0.023824,-0.015882
0.28201,-1.3141,6.5901,7.5903,-0.023824,0.021991,-0.017104
0.27979,-1.1572,6.6489,7.7473,-0.020464,0.019242,-0.018021
0.27811,-1.1572,6.5901,7.6884,-0.014355,0.016799,-0.019242
0.2753,-1.3141,6.6489,7.5903,-0.007025,0.016188,-0.019242
0.28766,-1.118,6.5901,7.7473,-0.0024435,0.017715,-0.019853
0.28226,-1.1768,6.5901,7.6884,0.0012217,0.016493,-0.021075
0.28198,-1.2945,6.5901,7.6296,0.0015272,0.016188,-0.022907
0.27933,-1.216,6.6489,7.6884,-0.0027489,0.015577,-0.022907
0.27792,-1.1572,6.5312,7.7473,-0.0082467,0.015577,-0.022602
0.27182,-1.216,6.5901,7.7473,-0.013439,0.015882,-0.022602
0.26175,-1.3141,6.5116,7.7865,-0.021991,0.017715,-0.021075
0.26535,-1.1572,6.5901,7.7865,-0.011912,0.019853,-0.012217
0.26251,-1.2945,6.6685,7.7473,-0.025045,0.019242,-0.011912
0.25394,-1.3337,6.6489,7.6296,-0.018937,0.018021,-0.018937
0.24753,-1.3141,6.5312,7.7865,-0.007025,0.016493,-0.017715
0.23962,-1.1376,6.4724,7.708,0.0045815,0.014661,-0.014355
0.22742,-1.3337,6.5705,7.6492,0.010079,0.013134,-0.011301
0.22546,-1.1768,6.6489,7.7669,0.0067195,0.011301,-0.011301
0.22208,-1.1572,6.6685,7.6884,-0.0018326,0.011606,-0.012217
0.21838,-1.3141,6.6489,7.8061,-0.03543,0.013134,0.0012217
0.22293,-1.216,6.6293,7.6884,-0.029932,0.011301,0.0009163
0.25519,-1.5298,6.5116,7.8061,-0.025045,0.012828,0.00061087
0.26608,-1.1572,6.5901,7.7473,-0.020464,0.013439,0.00061087
0.26611,-1.3141,6.6293,7.6492,-0.019853,0.012217,0.0015272
0.27823,-1.1572,6.6489,7.6492,-0.020769,0.011912,0.0015272
0.26105,-1.2749,6.6489,7.61,-0.03207,0.013134,0.0012217
0.26968,-1.3141,6.6293,7.6884,-0.036957,0.014661,0.00061087
0.26779,-1.3141,6.5116,7.7865,-0.025962,0.015272,0
0.26639,-1.1768,6.4135,7.6884,-0.025962,0.012828,0.0018326
0.26846,-1.216,6.6293,7.6884,-0.025045,0.014355,0.0015272
0.2688,-1.216,6.6489,7.708,-0.023213,0.015577,0.00061087
0.26685,-1.1376,6.5901,7.6884,-0.021686,0.014661,0
0.26544,-1.2356,6.6489,7.708,-0.021686,0.012828,0.0024435
0.26834,-1.3925,6.5901,7.7865,-0.02138,0.01069,0.0027489
0.25195,-1.3141,6.5116,7.6492,-0.022907,0.011301,0.0009163
0.24011,-1.2356,6.6293,7.5903,-0.033598,0.011912,0.0009163
0.24908,-1.3141,6.6881,7.7473,-0.03879,0.01405,0.00030543
0.25589,-1.1768,6.5901,7.61,-0.041233,0.01405,0.0042761
0.2421,-1.3141,6.5901,7.61,-0.03879,0.016188,0.0039706
0.25201,-1.3337,6.6489,7.7865,-0.034819,0.01741,0.002138
0.23911,-1.1572,6.6489,7.6884,-0.027489,0.016188,0.00061087
0.23557,-1.118,6.5116,7.7473,-0.02474,0.013439,0.0030543
0.23486,-1.216,6.6293,7.6884,-0.031765,0.010996,0.0030543
0.21338,-1.5298,6.6293,7.7865,-0.038485,0.015272,0.00030543
0.21201,-1.3925,6.6489,7.7865,-0.034819,0.015882,0.00061087
0.207,-1.216,6.5901,7.6884,-0.023824,0.012828,-0.0064141
0.18787,-1.1376,6.6293,7.6884,-0.011912,0.012523,-0.0051924
0.18564,-1.216,6.6489,7.6884,-0.0064141,0.01069,-0.0042761
0.17831,-1.2749,6.6489,7.708,-0.0085521,0.010996,-0.0030543
0.17236,-1.3925,6.5901,7.7865,-0.015882,0.01405,-0.0024435
0.15933,-1.1768,6.5901,7.7669,-0.025656,0.014661,-0.0015272
0.15637,-1.1572,6.6293,7.7669,-0.010996,0.01405,-0.0027489
0.15469,-1.3925,6.6489,7.9434,-0.01405,0.010385,-0.0024435
0.16086,-1.2749,6.7274,7.6492,-0.018631,0.013134,-0.011301
0.16174,-1.1768,6.5901,7.7473,-0.023518,0.014355,-0.012523
0.1658,-1.3141,6.5116,7.8453,-0.025351,0.013134,-0.010996
0.1767,-1.2945,6.5312,7.6884,-0.025045,0.013439,-0.010996
0.151,-1.1376,6.5116,7.7473,-0.023824,0.012217,-0.010996
0.14102,-1.1768,6.6293,7.7473,-0.024129,0.01069,-0.0076358
0.13589,-1.1572,6.7274,7.708,-0.02474,0.011912,-0.0018326
0.13342,-1.2749,6.6489,7.7473,-0.026573,0.016188,-0.0033598
0.12772,-1.4906,6.5901,7.8061,-0.0281,0.015272,-0.00061087
0.12888,-1.3141,6.5901,7.6884,-0.0281,0.015882,-0.0024435
0.1254,-1.216,6.5116,7.6884,-0.024129,0.01741,-0.0015272
0.1232,-1.2749,6.5901,7.61,-0.018631,0.016799,-0.0009163
0.12704,-1.2356,6.6489,7.6492,-0.014966,0.015577,-0.0018326
0.12973,-1.118,6.6489,7.7865,-0.009163,0.012828,-0.0018326
0.12735,-1.0199,6.6293,7.7669,-0.016799,0.011912,-0.0033598
0.12607,-1.3141,6.6293,7.7865,-0.015272,0.0085521,-0.0051924
0.13528,-1.1376,6.4135,7.708,-0.016493,0.0097738,0.0048869
0.12701,-1.1376,6.492,7.7473,-0.015882,0.010996,0.0058032
0.12592,-1.3141,6.5901,7.6492,-0.013744,0.011912,0.0039706
0.11441,-1.1768,6.6293,7.7473,-0.013744,0.011301,0
0.11755,-1.1376,6.5116,7.708,-0.018326,0.009163,-0.0030543
0.125,-1.3141,6.6293,7.708,-0.025045,0.009163,-0.0036652
0.13004,-1.4514,6.6489,7.8061,-0.030238,0.011606,-0.011606
0.11835,-1.216,6.6489,7.7669,-0.035125,0.01741,-0.0097738
0.11636,-1.1572,6.5901,7.7865,-0.034514,0.014966,-0.0067195
0.10544,-1.0787,6.6293,7.7865,-0.032376,0.012828,-0.0073304
0.096283,-1.3141,6.5705,7.6884,-0.026267,0.013439,-0.0079412
0.084167,-1.3141,6.5116,7.7865,-0.019242,0.014966,-0.0082467
0.082764,-1.1376,6.5901,7.7669,-0.014966,0.016188,-0.0076358
0.080353,-1.1376,6.6489,7.6884,-0.011912,0.015577,-0.010385
0.085236,-1.1376,6.5116,7.7473,0.045204,0.0054978,-0.0082467
0.086456,-1.2945,6.5901,7.6884,0.041844,0.0024435,-0.0085521
0.10306,-1.1572,6.6293,7.7865,0.021686,0.0024435,0.0015272
0.10672,-1.2749,6.6293,7.61,-0.0067195,0.0039706,-0.0027489
0.10562,-1.3141,6.5901,7.6884,-0.032376,0.0051924,-0.0048869
0.096344,-1.4514,6.6293,7.7865,-0.047037,0.0079412,-0.0054978
0.091431,-1.3337,6.6293,7.8061,0.010996,0.012217,-0.0073304
0.095734,-1.3729,6.6293,7.6884,0.030543,0.017715,-0.0088575
0.081818,-1.216,6.5901,7.6296,-0.016493,0.014661,-0.007025
0.083344,-1.1572,6.6489,7.7473,-0.010996,0.010996,-0.0097738
0.077209,-1.1376,6.5901,7.7669,-0.011912,0.013134,-0.0082467
0.066681,-1.216,6.5901,7.6296,-0.014355,0.014355,-0.0076358
0.063629,-1.3141,6.6293,7.6296,-0.016493,0.012828,-0.0067195
0.053802,-1.3141,6.5116,7.7865,-0.023213,0.01405,-0.0061087
0.049408,-1.0199,6.5901,7.7473,-0.029322,0.015272,-0.0051924
0.047241,-1.2945,6.5901,7.708,-0.03146,0.016799,-0.0058032
0.039063,-1.1572,6.5116,7.7473,-0.027184,0.019242,-0.013134
0.037079,-1.1768,6.6489,7.7669,-0.020159,0.02138,-0.013134
0.03186,-1.118,6.4724,7.708,-0.013439,0.018937,-0.0097738
0.031403,-1.2945,6.6489,7.6884,-0.0097738,0.016493,-0.0076358
0.023804,-1.216,6.6881,7.7473,-0.0064141,0.015577,-0.0094684
0.027618,-1.2749,6.6489,7.6492,-0.002138,0.014966,-0.010079
0.022888,-1.216,6.5116,7.7473,0.00061087,0.015272,-0.011606
0.0030518,-1.2356,6.492,7.61,-0.00061087,0.015882,-0.014661
0.0034485,-1.1572,6.5312,7.7669,-0.023518,0.013439,0
0.0010986,-1.4318,6.6489,7.8649,-0.026878,0.013744,0.0018326
-0.0096436,-1.2749,6.6881,7.61,-0.026878,0.013134,-0.011912
-0.012787,-1.118,6.7274,7.6884,-0.020159,0.012828,-0.010385
-0.013855,-1.4514,6.6881,7.8061,-0.011301,0.01405,-0.0067195
-0.011169,-1.1376,6.6293,7.7865,-0.00030543,0.01405,-0.00030543
-0.016418,-1.4318,6.5901,7.7865,-0.0042761,0.012523,0.0009163
-0.0083618,-1.1376,6.5116,7.6884,-0.014966,0.0094684,-0.00030543
0.0048523,-1.2945,6.5901,7.5511,-0.0073304,0.015272,-0.010385
0.016693,-1.4906,6.7274,7.8649,-0.010079,0.019242,-0.009163
0.036835,-1.1572,6.6685,7.6884,-0.013744,0.019242,-0.013134
0.043945,-1.216,6.6293,7.5903,-0.015272,0.018937,-0.014661
0.045319,-1.118,6.5901,7.8061,-0.01405,0.018326,-0.01405
0.053223,-1.4906,6.6489,7.7865,-0.01405,0.017104,-0.011912
0.049713,-1.1572,6.6293,7.708,-0.016188,0.016188,-0.011912
0.045319,-1.3141,6.6489,7.61,-0.016188,0.013744,-0.0097738
0.054352,-1.471,6.6489,7.7669,-0.034514,0.014966,-0.011606
0.05542,-1.118,6.5901,7.6296,-0.029016,0.013744,-0.010079
0.071106,-1.0787,6.5116,7.6296,-0.024435,0.012217,-0.0073304
0.056824,-1.0787,6.5116,7.6884,-0.02138,0.010385,-0.0079412
0.062653,-1.1572,6.6293,7.6884,-0.020159,0.010385,-0.0076358
0.056732,-1.3141,6.5312,7.7865,-0.020464,0.013744,-0.007025
0.065277,-1.0787,6.6293,7.7473,-0.022297,0.014355,-0.0082467
0.068359,-1.3925,6.6293,7.7865,-0.02138,0.014661,-0.010385
0.06427,-1.0199,6.4135,7.708,-0.019548,0.016493,-0.0088575
0.069153,-1.0787,6.5901,7.7473,-0.017104,0.018937,-0.0079412
0.066101,-1.2749,6.492,7.7865,-0.013744,0.018021,-0.010079
0.071442,-1.0199,6.5901,7.6884,-0.0094684,0.016799,-0.010079
0.07373,-1.216,6.6489,7.6884,-0.0048869,0.016493,-0.010996
0.054321,-1.4514,6.7274,7.8649,-0.0048869,0.016493,-0.0097738
0.057648,-1.2749,6.6685,7.6884,-0.012217,0.016493,-0.0088575
0.049377,-1.1768,6.5312,7.6884,-0.024129,0.014966,-0.0094684
0.037537,-1.2749,6.5312,7.61,-0.03146,0.014355,-0.011912
0.034637,-1.216,6.5901,7.6884,-0.032987,0.013439,-0.013134
0.033783,-1.118,6.5901,7.7669,-0.032376,0.014661,-0.0097738
0.038116,-1.0003,6.6489,7.708,-0.029322,0.014661,-0.012523
0.02298,-1.216,6.6881,7.6884,-0.022907,0.013744,-0.012523
0.021637,-1.1572,6.5116,7.6884,-0.014355,0.013134,-0.012523
0.0085449,-1.118,6.6489,7.7865,-0.0067195,0.012828,-0.011606
0.0084534,-1.2945,6.6293,7.7865,-0.0048869,0.011606,-0.011606
0.006073,-1.0591,6.6293,7.8061,-0.0039706,0.010079,-0.0088575
0.019958,-1.1572,6.6489,7.7669,-0.0012217,0.0061087,-0.007025
0.032532,-1.4514,6.6293,7.8061,-0.0012217,0.0061087,-0.010385
0.035278,-1.2356,6.6293,7.6884,-0.0033598,0.0088575,-0.010079
0.034943,-1.0787,6.6293,7.8061,-0.011301,0.011912,-0.011912
0.038391,-1.2945,6.6489,7.61,-0.021686,0.013134,-0.013439
0.04068,-1.118,6.5901,7.6884,-0.0281,0.015882,-0.01405
0.02948,-1.3925,6.6489,7.8061,-0.029932,0.016493,-0.012828
0.035553,-1.3925,6.6881,7.7865,-0.028405,0.018631,-0.01405
0.036499,-1.216,6.6685,7.6884,-0.026573,0.021686,-0.016188
0.035828,-1.2749,6.5901,7.61,-0.022907,0.019853,-0.0079412
0.033051,-1.0787,6.6293,7.7865,-0.017104,0.018326,-0.0079412
0.032593,-1.471,6.5901,7.8061,-0.011606,0.017104,-0.0097738
0.022186,-1.1572,6.5116,7.6884,-0.0088575,0.016799,-0.0094684
0.017578,-1.3141,6.6489,7.61,-0.0058032,0.01741,-0.0094684
0.015869,-1.3141,6.5901,7.7865,-0.0027489,0.01741,-0.012828
0.022644,-1.2356,6.6489,7.6884,-0.014355,0.017104,-0.020464
0.029755,-1.2749,6.5901,7.6492,-0.013744,0.016493,-0.021991
0.022614,-1.1572,6.5116,7.6884,-0.013744,0.018631,-0.01741
0.015656,-1.1768,6.6293,7.6884,-0.015272,0.020464,-0.018021
0.026154,-1.2945,6.5901,7.5903,-0.014661,0.019853,-0.020769
0.023346,-1.0591,6.6293,7.6492,-0.011301,0.019548,-0.022602
0.032532,-1.2749,6.5901,7.7669,-0.0073304,0.018937,-0.022907
0.02124,-1.3141,6.6881,7.7865,-0.013439,0.018631,-0.021686
0.024872,-1.3337,6.6489,7.7865,-0.0073304,0.018021,-0.026573
0.018066,-1.471,6.6293,7.8061,-0.0079412,0.016799,-0.027794
0.022034,-1.1768,6.6293,7.7473,-0.0094684,0.016493,-0.023213
0.017548,-1.216,6.6489,7.6884,-0.012523,0.016493,-0.021686
0.014099,-1.3141,6.6685,7.5511,-0.015272,0.016799,-0.022907
0.017761,-1.2945,6.6489,7.6296,-0.014661,0.016188,-0.022907
0.011658,-1.216,6.5901,7.6884,-0.0088575,0.016493,-0.023213
0.010681,-1.1572,6.5901,7.7669,-0.0067195,0.016493,-0.023213
0.013519,-1.1572,6.5901,7.6884,-0.01405,0.015272,-0.0048869
0.031036,-1.4318,6.7274,7.8061,-0.013744,0.014966,-0.0030543
0.041718,-1.1572,6.6489,7.6884,-0.016799,0.015577,-0.0064141
0.053375,-1.216,6.6489,7.6492,-0.016799,0.016188,-0.0073304
0.068604,-1.3337,6.5116,7.7669,-0.017715,0.015272,-0.0079412
0.068085,-1.1572,6.6489,7.7473,-0.021991,0.01405,-0.0085521
0.073792,-1.3925,6.6489,7.7865,-0.027794,0.014355,-0.0076358
0.06662,-1.216,6.6489,7.6296,-0.029627,0.014355,-0.007025
0.065857,-1.1572,6.6489,7.6884,-0.030238,0.014355,0.0058032
0.066956,-1.3141,6.6489,7.6492,-0.032376,0.016493,0.0058032
0.069611,-1.1572,6.6489,7.7865,-0.0281,0.013439,-0.0018326
0.06424,-1.3925,6.6489,7.7473,-0.019242,0.012523,-0.00030543
0.048126,-1.2356,6.6293,7.6492,-0.013744,0.013744,-0.0009163
0.049805,-1.216,6.6881,7.6296,-0.014966,0.012523,0.0018326
0.048218,-1.1768,6.6293,7.7473,-0.019548,0.010996,0.0036652
0.040833,-1.4514,6.6489,7.7669,-0.025656,0.010385,0.0036652
0.033539,-1.3925,6.5116,7.7473,-0.030849,0.011912,0.0061087
0.039764,-1.1572,6.5901,7.6884,-0.035125,0.012523,0.009163
0.042938,-1.2945,6.6489,7.6884,-0.036957,0.011912,0.0030543
0.036011,-1.3337,6.6489,7.5903,-0.031765,0.011606,0.0042761
0.031067,-1.3925,6.6685,7.7865,-0.025656,0.0097738,0.0054978
0.02829,-1.2749,6.5901,7.6492,-0.018631,0.007025,0.0039706
0.038452,-1.1572,6.492,7.6884,-0.016188,0.0082467,0.002138
0.024231,-1.2356,6.6489,7.6884,-0.01741,0.0094684,0.0030543
0.016632,-1.3141,6.6489,7.5511,-0.015577,0.016799,-0.0085521
0.0093079,-1.2945,6.6489,7.6296,-0.019242,0.016188,-0.0058032
-0.00021362,-1.5298,6.6489,7.7865,-0.023824,0.016493,-0.01405
-0.00042725,-1.3141,6.6489,7.7473,-0.026267,0.015882,-0.015272
-0.012848,-1.3141,6.6489,7.6884,-0.025351,0.015882,-0.014966
-0.017273,-1.1768,6.6685,7.6492,-0.020464,0.016799,-0.013134
-0.022339,-1.2945,6.6489,7.6492,-0.016188,0.016799,-0.011606
-0.022308,-1.3141,6.5901,7.708,-0.015882,0.015882,-0.010996
-0.036041,-1.1572,6.5116,7.6884,-0.028405,0.015882,0.0012217
-0.030029,-1.0591,6.5312,7.6492,-0.028405,0.017715,0.0012217
-0.011749,-1.216,6.6881,7.7669,-0.026267,0.015577,0.002138
-0.0068359,-1.118,6.6489,7.7473,-0.023213,0.014355,0.002138
0.0043335,-1.3141,6.5901,7.5903,-0.020159,0.01405,0.0018326
-0.0018005,-1.3729,6.6489,7.7669,-0.01741,0.014661,0.0030543
-0.0036011,-1.3141,6.5312,7.7865,-0.025656,0.01405,0.0033598
-0.0072327,-1.1572,6.5705,7.6884,-0.029322,0.013744,0.0015272
-0.0099487,-1.1376,6.6489,7.7669,-0.020159,0.014966,-0.0033598
-0.0052795,-1.1572,6.6489,7.6884,-0.019548,0.017715,-0.0033598
-0.015686,-1.3141,6.5901,7.708,-0.018631,0.016493,0.00061087
-0.010712,-1.3141,6.5901,7.7669,-0.014966,0.013439,0.0009163
-0.011841,-1.0787,6.5116,7.6884,-0.015882,0.013134,0.0015272
-0.0036926,-1.1572,6.5312,7.6884,-0.017715,0.013134,0.00061087
-0.013641,-1.3729,6.6489,7.8061,-0.018631,0.012828,0
-0.010254,-1.216,6.6489,7.6296,-0.02138,0.013439,-0.0024435
-0.0079956,-1.2945,6.6489,7.5511,-0.0073304,0.01405,-0.0048869
-0.018158,-1.3141,6.6293,7.61,-0.018326,0.012523,-0.0054978
-0.01413,-1.1572,6.6489,7.708,-0.017715,0.014355,-0.0048869
-0.017548,-1.1376,6.6489,7.7669,-0.025045,0.015272,-0.0048869
-0.013275,-1.1768,6.6881,7.708,-0.027184,0.015272,-0.0036652
-0.011902,-1.0787,6.5116,7.6884,-0.023518,0.014355,-0.002138
-0.0041809,-1.1376,6.5901,7.7669,-0.017715,0.012523,-0.0033598
-0.0089417,-1.4318,6.6489,7.7865,-0.010385,0.011301,-0.0048869
-0.026733,-1.1376,6.5705,7.7669,-0.016188,0.010079,-0.0012217
-0.031494,-1.1572,6.6293,7.6884,-0.018631,0.0076358,0.0009163
-0.028778,-1.3141,6.5116,7.7669,-0.023213,0.010996,-0.0042761
-0.035431,-1.3141,6.6293,7.7865,-0.0281,0.013439,-0.0030543
-0.036102,-1.0787,6.5312,7.6884,-0.029322,0.01405,-0.0015272
-0.042267,-1.1572,6.6881,7.7473,-0.028405,0.016188,-0.0027489
-0.046967,-1.0787,6.5901,7.7865,-0.027184,0.016188,-0.0033598
-0.049164,-1.3141,6.5901,7.708,-0.023824,0.015272,-0.0030543
-0.045868,-1.3141,6.5116,7.7865,-0.02474,0.014355,-0.00061087
-0.038666,-1.6279,6.6489,7.9238,-0.034514,0.016188,0.0009163
-0.026947,-1.1768,6.6489,7.7473,-0.037874,0.019548,0.00061087
-0.017426,-1.216,6.6489,7.6884,-0.032987,0.020769,0.00061087
-0.018707,-1.3141,6.5116,7.7865,-0.021686,0.020464,0.00030543
-0.023956,-1.118,6.6489,7.7865,-0.01069,0.018021,0.00030543
-0.015747,-1.1376,6.6489,7.6884,-0.0039706,0.016188,-0.0012217
-0.029175,-1.1376,6.5901,7.6296,-0.0030543,0.014661,-0.0030543
-0.025879,-1.216,6.6489,7.5903,-0.009163,0.011606,-0.0097738
-0.025574,-1.0787,6.5901,7.7473,-0.013744,0.0088575,-0.009163
-0.028778,-1.216,6.6293,7.7473,-0.015577,0.012523,0.0009163
-0.02713,-1.3141,6.6293,7.61,-0.01741,0.014355,-0.0024435
-0.03302,-1.2356,6.5705,7.61,-0.020159,0.012828,-0.0061087
-0.041565,-1.3141,6.5312,7.7865,-0.020159,0.011606,-0.0085521
-0.04187,-1.2749,6.6489,7.708,-0.019242,0.01069,-0.0094684
-0.041321,-1.3141,6.6685,7.6884,-0.022907,0.011912,-0.0094684
-0.04541,-1.4514,6.6881,7.7865,-0.01405,0.016493,-0.0030543
-0.041229,-1.0787,6.5901,7.7865,-0.014355,0.015577,-0.0042761
-0.049469,-1.0787,6.5705,7.7473,-0.011301,0.014966,-0.010079
-0.054932,-1.216,6.5705,7.6884,-0.0085521,0.01405,-0.0097738
-0.049652,-1.3141,6.6489,7.708,-0.009163,0.012828,-0.011606
-0.055023,-1.0591,6.5901,7.6884,-0.012828,0.012217,-0.011912
-0.059662,-1.216,6.6881,7.6296,-0.019853,0.014355,-0.01069
-0.062408,-1.118,6.5901,7.6884,-0.025962,0.016188,-0.0061087
-0.061798,-1.1376,6.5901,7.7473,-0.028711,0.017715,0.00030543
-0.06192,-1.216,6.5901,7.6296,-0.024435,0.017715,-0.00061087
-0.057037,-1.1572,6.6881,7.7669,-0.019548,0.015882,-0.0027489
-0.056458,-1.2356,6.6489,7.7473,-0.013744,0.014966,-0.00030543
-0.06546,-1.0787,6.5901,7.708,-0.0082467,0.013134,0.00061087
-0.055023,-1.0787,6.5116,7.6296,-0.0012217,0.010385,0
-0.054291,-1.2749,6.6685,7.6884,-0.0018326,0.010385,0
-0.046021,-1.1572,6.5901,7.6884,-0.010996,0.012217,0.0009163
-0.042114,-1.2356,6.5901,7.6296,-0.030543,0.014966,-0.010385
-0.030121,-1.3337,6.6293,7.7865,-0.023824,0.013744,-0.0094684
-0.014496,-1.2749,6.6881,7.5511,-0.015882,0.014661,-0.0073304
-0.0044861,-1.2749,6.6881,7.6884,-0.011301,0.015882,-0.0079412
0.003418,-1.1768,6.6489,7.6296,-0.011912,0.015272,-0.0094684
0.0036926,-1.3141,6.5901,7.7865,-0.012828,0.015577,-0.01069
0.0064392,-1.2356,6.5901,7.6884,-0.024129,0.013134,-0.0088575
0.003479,-1.0787,6.5312,7.708,-0.03207,0.012828,-0.009163
-0.0075378,-1.4906,6.6685,7.7865,-0.012523,0.014966,-0.0094684
0.018921,-1.0787,6.6489,7.7865,-0.01069,0.016188,-0.011301
0.029083,-1.2749,6.6293,7.61,-0.014661,0.01405,-0.0061087
0.02948,-1.3141,6.492,7.8061,-0.019548,0.011606,-0.0039706
0.032806,-1.3141,6.6293,7.7865,-0.025351,0.011912,-0.0045815
0.038544,-1.2749,6.5312,7.7865,-0.029016,0.012523,-0.0045815
0.033417,-1.0591,6.5116,7.6884,-0.023213,0.013744,-0.0030543
0.036255,-1.1572,6.6489,7.6884,-0.014661,0.013439,-0.0048869
0.048798,-1.3141,6.5901,7.6884,-0.007025,0.011606,-0.0097738
0.058533,-1.216,6.5901,7.61,-0.010996,0.0082467,-0.0097738
0.048401,-1.0787,6.6293,7.7865,-0.015882,0.010079,-0.010079
0.047577,-1.1376,6.6685,7.7473,-0.022602,0.012217,-0.010385
0.04422,-1.2749,6.6489,7.6884,-0.025351,0.012217,-0.010385
0.033508,-1.3141,6.6489,7.6492,-0.025351,0.01405,-0.010079
0.052856,-1.1376,6.6489,7.7865,-0.0097738,0.014966,-0.0082467
0.050049,-1.216,6.6489,7.6296,-0.007025,0.016188,-0.0076358
0.045929,-1.3141,6.5901,7.7865,-0.019548,0.016493,-0.0064141
0.048065,-1.0787,6.6489,7.6296,-0.016799,0.018937,-0.007025
0.04538,-1.118,6.5901,7.6884,-0.013744,0.015882,-0.0082467
0.042419,-1.0787,6.6489,7.7669,-0.012217,0.013744,-0.0076358
0.043915,-1.118,6.5901,7.708,-0.015272,0.013134,-0.0076358
0.038086,-1.1572,6.6881,7.7473,-0.017715,0.012217,-0.0085521
0.041626,-1.1572,6.6489,7.61,-0.024435,0.012828,-0.0079412
0.035858,-1.1768,6.6489,7.7865,-0.02138,0.01405,-0.0076358
0.042114,-1.3141,6.5901,7.7865,-0.0082467,0.011301,-0.009163
0.058441,-1.4514,6.6293,7.8649,-0.0094684,0.013134,-0.0088575
0.068451,-1.1768,6.6293,7.61,-0.013744,0.010079,-0.010385
0.090057,-1.216,6.6489,7.7473,-0.022602,0.0097738,-0.011606
0.091461,-1.2749,6.6489,7.7473,-0.027489,0.01405,-0.010996
0.096039,-1.118,6.7274,7.7865,-0.030849,0.016799,-0.0094684
0.10086,-1.2749,6.6489,7.61,-0.029016,0.019853,-0.0094684
0.090027,-1.3141,6.6489,7.61,-0.022907,0.019853,-0.010385
0.092712,-1.216,6.5312,7.6492,-0.016493,0.017715,-0.021686
0.10764,-1.3337,6.5116,7.7865,-0.012217,0.015882,-0.022602
0.10413,-1.2749,6.6293,7.6884,-0.011301,0.014966,-0.0088575
0.1051,-1.118,6.5901,7.6884,-0.0082467,0.014966,-0.0094684
0.10226,-1.2356,6.6489,7.5511,-0.0051924,0.016188,-0.010996
0.10159,-1.2356,6.6489,7.6884,-0.0036652,0.016493,-0.012828
0.11255,-1.3141,6.5901,7.61,-0.0030543,0.015272,-0.014355
0.1185,-1.3141,6.5116,7.7865,-0.0058032,0.014966,-0.018631
0.1239,-1.2945,6.6489,7.6884,-0.011912,0.014966,-0.020464
0.13736,-1.1572,6.5901,7.7473,-0.021686,0.012523,-0.022907
0.13715,-1.0199,6.5116,7.6492,-0.029322,0.01405,-0.023213
0.14276,-1.1376,6.6489,7.6492,-0.029322,0.018326,-0.023518
0.15045,-1.1376,6.6489,7.708,-0.025962,0.021075,-0.022297
0.15485,-1.216,6.6489,7.6492,-0.019853,0.020464,-0.019853
0.16501,-1.1572,6.5116,7.7473,-0.010385,0.01741,-0.019548
0.16556,-1.3337,6.5312,7.7865,-0.0012217,0.016493,-0.019548
0.16257,-1.2749,6.6489,7.61,0.0042761,0.017104,-0.020159
0.16476,-1.216,6.6881,7.6492,0.0051924,0.018021,-0.019548
0.16885,-1.3337,6.6489,7.7473,0.0015272,0.016188,-0.022907
0.1705,-1.1572,6.5705,7.6884,-0.0067195,0.014661,-0.024435
0.17432,-1.2749,6.6489,7.6296,-0.016493,0.014661,-0.026267
0.17276,-1.1572,6.6293,7.7865,-0.02138,0.016493,-0.025351
0.17319,-1.3141,6.6489,7.61,-0.022297,0.01741,-0.023518
0.18506,-1.3141,6.7274,7.6492,-0.021686,0.016188,-0.022297
0.19223,-1.3141,6.6489,7.7865,-0.0088575,0.019548,-0.010996
0.20697,-1.1572,6.5901,7.6884,-0.011912,0.021686,-0.0097738
0.24005,-1.216,6.6293,7.61,-0.0088575,0.019242,-0.012828
0.24423,-1.216,6.5901,7.6884,-0.0067195,0.016493,-0.012828
0.24921,-1.3141,6.6293,7.7865,-0.009163,0.015882,-0.011606
0.25171,-1.2749,6.5312,7.7865,-0.012523,0.016188,-0.0076358
0.26373,-1.118,6.6489,7.708,-0.014966,0.016188,-0.0082467
0.259,-1.3925,6.6489,7.7865,-0.016799,0.016799,-0.0097738
0.2637,-1.216,6.6685,7.6884,-0.014355,0.017104,-0.002138
0.25528,-1.3141,6.6489,7.708,-0.014355,0.01405,-0.0024435
0.24722,-1.216,6.5705,7.6296,-0.014355,0.014966,-0.007025
0.25076,-1.1376,6.5901,7.7865,-0.017104,0.014966,-0.0045815
0.24353,-1.3337,6.6293,7.6296,-0.017715,0.016799,-0.0048869
0.25235,-1.3141,6.5705,7.61,-0.019242,0.016493,-0.0042761
0.25046,-1.1572,6.6489,7.7669,-0.018326,0.015882,-0.0012217
0.24677,-1.3337,6.6489,7.7473,-0.015882,0.016799,0.00030543
0.24075,-1.1572,6.5705,7.61,-0.034208,0.018021,-0.0061087
0.24197,-1.3141,6.6489,7.5903,-0.030543,0.018021,-0.0076358
0.24414,-1.4514,6.6489,7.7865,-0.02474,0.015882,-0.0018326
0.23505,-1.1572,6.6489,7.7669,-0.020464,0.015882,-0.0018326
0.24051,-1.3925,6.6293,7.7473,-0.014355,0.014966,-0.0015272
0.23837,-1.216,6.6685,7.6492,-0.012217,0.013744,-0.0015272
0.23004,-1.3141,6.6489,7.6492,-0.02474,0.013744,-0.0030543
0.22293,-1.2749,6.6685,7.6296,-0.030238,0.010385,-0.0054978
0.21786,-1.3141,6.5901,7.5511,-0.024129,0.009163,-0.0018326
0.2049,-1.4318,6.6489,7.7669,-0.024129,0.0088575,-0.00061087
0.19922,-1.3337,6.6489,7.6296,-0.022602,0.0088575,-0.0076358
0.19339,-1.1572,6.7274,7.7669,-0.019548,0.011912,-0.0048869
0.1879,-1.1572,6.6489,7.7669,-0.016799,0.012828,-0.0048869
0.18112,-1.3141,6.6293,7.5511,-0.015577,0.012828,-0.0036652
0.16943,-1.4318,6.6293,7.7669,-0.01405,0.011912,-0.0027489
0.16446,-1.1572,6.5901,7.61,-0.019242,0.0088575,-0.0015272
0.16498,-1.1376,6.6489,7.6884,-0.044288,0.014355,0.0039706
0.18066,-1.5298,6.6685,7.9042,-0.04215,0.014661,0.0045815
0.18689,-1.216,6.6881,7.6884,-0.03543,0.012217,-0.0036652
0.18976,-1.4906,6.6489,7.8061,-0.0281,0.010996,-0.0015272
0.1821,-1.2945,6.6489,7.6492,-0.022907,0.011912,-0.0015272
0.1955,-1.1768,6.5901,7.61,-0.020464,0.011301,-0.00061087
0.20139,-1.2749,6.6881,7.5511,-0.023824,0.012828,0.0024435
0.21255,-1.1376,6.6489,7.7669,-0.029322,0.013439,0.0042761
0.20975,-1.1572,6.6489,7.7473,-0.03146,0.012828,-0.00061087
0.21091,-1.2356,6.6489,7.7473,-0.028405,0.012523,0
0.20792,-1.3141,6.6293,7.7473,-0.025962,0.012523,0.0030543
0.20566,-1.216,6.5901,7.6884,-0.023213,0.012217,0
0.21414,-1.118,6.6685,7.7473,-0.020769,0.012217,0
0.21167,-1.3141,6.6489,7.7473,-0.018631,0.012523,0.00030543
0.21356,-1.216,6.6881,7.6884,-0.016799,0.011912,-0.002138
0.21338,-1.3141,6.6489,7.6492,-0.018021,0.013134,-0.0018326
0.21365,-1.3141,6.6489,7.6296,-0.022602,0.01405,0.0015272
0.22015,-1.1572,6.6489,7.6884,-0.023213,0.017715,0.0024435
0.21616,-1.3141,6.5901,7.6884,-0.022907,0.016799,-0.00030543
0.21231,-1.1768,6.6489,7.7473,-0.020464,0.015577,-0.0009163
0.22314,-1.3141,6.5901,7.7865,-0.016799,0.015577,0
0.21274,-1.2356,6.6685,7.6884,-0.015272,0.013439,-0.0012217
0.20978,-1.216,6.6489,7.6884,-0.015272,0.012217,-0.0012217
0.2106,-1.1572,6.6489,7.6884,-0.016799,0.01069,0.00030543
0.19638,-1.216,6.6489,7.6884,-0.010996,0.0097738,-0.0048869
0.19171,-1.1572,6.6881,7.6884,-0.0085521,0.011606,-0.0048869
0.17581,-1.3141,6.6489,7.5511,-0.011912,0.01069,0.00030543
0.17108,-1.0787,6.6489,7.7865,-0.016799,0.01069,-0.00030543
0.15762,-1.3141,6.6489,7.7865,-0.022602,0.010385,-0.0018326
0.15921,-1.1572,6.6293,7.7865,-0.031765,0.0097738,-0.0030543
0.14981,-1.118,6.6489,7.7865,-0.039095,0.0097738,-0.0033598
0.13654,-1.2945,6.6489,7.6884,-0.043066,0.012523,-0.0039706
0.13565,-1.4514,6.6489,7.7865,-0.0073304,0.010079,-0.0009163
0.13376,-1.118,6.5312,7.6884,-0.0085521,0.0061087,-0.00030543
0.13947,-1.0787,6.6293,7.7865,-0.012523,0.0079412,0.0024435
0.1528,-1.216,6.6489,7.7865,-0.023518,0.0097738,-0.0009163
0.14432,-1.2749,6.6489,7.6884,-0.032376,0.010079,-0.0027489
0.14822,-1.1572,6.6685,7.7669,-0.03543,0.01069,-0.0027489
0.13596,-1.0787,6.6489,7.7473,-0.0082467,0.013439,-0.0030543
0.11752,-1.1376,6.6489,7.7669,-0.0073304,0.015272,-0.0024435
0.12476,-1.0787,6.6489,7.7473,-0.018021,0.017715,-0.0042761
0.11679,-1.1572,6.6293,7.7473,-0.012217,0.020464,-0.0067195
0.10217,-1.216,6.6489,7.6884,-0.0097738,0.018631,0.00030543
0.093933,-1.1572,6.6489,7.7669,-0.01405,0.015882,0.00061087
0.086975,-1.3141,6.5901,7.6884,-0.018631,0.014661,0
0.077667,-1.216,6.6489,7.61,-0.021075,0.01405,-0.00030543
0.080566,-1.3141,6.6685,7.6884,-0.032376,0.014355,-0.0015272
0.075836,-1.0787,6.6489,7.7669,-0.025351,0.013744,-0.0027489
0.070374,-1.1768,6.7274,7.708,-0.011301,0.01741,-0.011606
0.065216,-1.3141,6.6489,7.7669,-0.01069,0.014966,-0.010079
0.05542,-1.1376,6.5116,7.6492,-0.012217,0.013744,-0.0042761
0.052032,-1.2945,6.6293,7.61,-0.014661,0.013439,-0.0067195
0.033936,-1.2749,6.5901,7.708,-0.015882,0.014661,-0.0088575
0.028809,-1.1768,6.6293,7.6492,-0.014966,0.016799,-0.010079
0.03125,-1.2356,6.6489,7.5903,-0.014355,0.016188,-0.011301
0.028931,-1.3141,6.7274,7.7669,-0.012217,0.014661,-0.012217
0.023804,-1.4514,6.6489,7.7865,-0.014661,0.015272,0.0009163
0.018829,-1.1572,6.5116,7.7473,-0.020769,0.015882,0.0030543
0.022766,-1.216,6.6293,7.6884,-0.027184,0.013134,-0.010079
0.012787,-1.216,6.6489,7.6884,-0.032681,0.013744,-0.0076358
0.01651,-1.3141,6.6685,7.7865,-0.031154,0.017104,-0.0048869
0.020233,-1.0787,6.5901,7.708,-0.026267,0.018326,-0.0036652
0.012817,-1.0787,6.5116,7.6884,-0.019548,0.015272,-0.00030543
0.019928,-1.2749,6.6489,7.6884,-0.011912,0.012523,0.0009163
0.0084534,-1.0787,6.5312,7.6296,-0.012217,0.010385,-0.007025
0.031738,-1.4906,6.6293,7.6884,-0.0061087,0.0079412,-0.0061087
0.043396,-1.1376,6.6489,7.708,0.0051924,0.0076358,-0.0094684
0.049194,-1.3729,6.6489,7.7865,0.015577,0.0088575,-0.0094684
0.06427,-1.216,6.6489,7.6884,0.020769,0.0085521,-0.010385
0.050537,-1.1572,6.7274,7.6884,0.013439,0.010385,-0.0097738
0.056732,-1.1572,6.5901,7.6884,0,0.01405,-0.011301
0.058228,-1.3925,6.6489,7.7669,-0.014355,0.01741,-0.010079
0.061127,-1.4514,6.6489,7.7865,-0.029627,0.018631,-0.007025
0.080627,-1.1376,6.5901,7.6492,-0.039095,0.020769,-0.0073304
0.069458,-1.1572,6.6489,7.708,-0.039095,0.019548,-0.0067195
0.063934,-1.3925,6.6489,7.7865,-0.034819,0.016493,-0.0067195
0.065521,-1.2749,6.6489,7.6884,-0.025962,0.015577,-0.0076358
0.063629,-1.216,6.6293,7.6884,-0.014355,0.015577,-0.01069
0.059174,-1.216,6.5901,7.5511,-0.0079412,0.014661,-0.0085521
0.067413,-1.1768,6.6293,7.6492,-0.009163,0.013439,-0.0048869
0.072235,-1.2749,6.5705,7.7865,-0.012523,0.015577,-0.0076358
0.06424,-1.0787,6.6489,7.6884,-0.0097738,0.017104,-0.007025
0.07312,-1.3141,6.6489,7.7865,-0.010385,0.014661,-0.0051924
0.06601,-1.1376,6.492,7.6492,-0.013744,0.014355,-0.0033598
0.06543,-1.0787,6.5901,7.7865,-0.016188,0.014355,-0.0045815
0.057312,-1.4514,6.6685,7.7669,-0.018631,0.015577,-0.0061087
0.052551,-1.1572,6.6489,7.7473,-0.020769,0.015272,-0.0067195
0.056824,-1.216,6.6489,7.6492,-0.021991,0.014661,-0.0076358
0.045746,-1.3141,6.5116,7.7473,-0.021686,0.014355,-0.0097738
0.042694,-1.2356,6.5901,7.6884,-0.021075,0.013744,-0.01069
0.03894,-1.216,6.6293,7.6884,-0.017104,0.013744,-0.0079412
0.040802,-1.0591,6.5901,7.61,-0.014661,0.01405,-0.0073304
0.036407,-1.0787,6.6489,7.6884,-0.014661,0.014661,-0.0082467
0.030762,-1.2749,6.6489,7.5903,-0.013744,0.014355,-0.0094684
0.021545,-1.0787,6.6293,7.7669,-0.011912,0.013744,-0.0088575
0.015259,-1.1572,6.6489,7.7473,-0.012217,0.010996,-0.009163
0.013153,-1.0199,6.6489,7.7669,-0.0064141,0.017104,-0.016799
0.013031,-1.3337,6.6881,7.7473,-0.0088575,0.017715,-0.017715
0.032227,-1.1572,6.6489,7.708,-0.013134,0.014966,-0.016188
0.038055,-1.1572,6.6489,7.6884,-0.015882,0.013134,-0.018631
0.033264,-1.1768,6.6489,7.6884,-0.017715,0.014355,-0.020159
0.031372,-1.4318,6.6685,7.7865,-0.018631,0.01405,-0.020769
0.023407,-1.0787,6.5116,7.6884,-0.011606,0.015272,-0.019242
0.034882,-1.0787,6.7274,7.708,-0.0073304,0.018021,-0.016799
0.020294,-1.216,6.7274,7.7473,-0.01405,0.010996,-0.0024435
0.015472,-1.1572,6.5901,7.7473,-0.015577,0.011301,-0.0042761
0.011353,-1.1572,6.6293,7.6884,-0.022907,0.011912,-0.0082467
0.0054932,-1.2356,6.6489,7.6884,-0.029627,0.014355,-0.010996
-0.0036011,-1.118,6.5901,7.6492,-0.029932,0.015272,-0.010385
-0.0081177,-1.1768,6.6489,7.61,-0.025656,0.015882,-0.0073304
-0.0070801,-1.1376,6.7274,7.6884,-0.019853,0.01741,-0.0058032
-0.0064392,-1.216,6.6293,7.7473,-0.016799,0.016799,-0.0033598
0.0010376,-1.4514,6.5901,7.7865,-0.016188,0.014966,-0.01069
0.009491,-1.1572,6.6489,7.6884,-0.016493,0.016493,-0.013744
0.014679,-1.216,6.6489,7.6884,-0.016493,0.01405,-0.0036652
0.013306,-1.2749,6.6685,7.61,-0.019242,0.013134,-0.002138
0.019714,-1.1572,6.6489,7.6884,-0.019853,0.012523,-0.002138
0.012909,-1.0787,6.6489,7.7669,-0.021075,0.011301,-0.0061087
0.016235,-1.216,6.5901,7.6492,-0.022602,0.011606,-0.0085521
0.032318,-1.1572,6.6489,7.6884,-0.020769,0.011606,-0.0085521
0.025452,-1.2749,6.6293,7.61,-0.014966,0.011912,-0.012828
0.030548,-1.0787,6.6489,7.6492,-0.01405,0.007025,-0.015882
0.024109,-1.2749,6.6489,7.61,-0.012828,0.0082467,-0.015272
0.028168,-1.118,6.6881,7.708,-0.012523,0.011606,-0.014661
0.022675,-1.216,6.6489,7.6492,-0.014355,0.01405,-0.012828
0.02243,-1.216,6.6489,7.61,-0.013744,0.015577,-0.012523
0.032104,-1.2945,6.6685,7.6492,-0.019242,0.01741,-0.012523
0.032867,-1.216,6.6685,7.6884,-0.01741,0.01741,-0.012217
0.032928,-1.2945,6.6489,7.61,-0.012217,0.017715,-0.01741
0.049255,-1.4514,6.6489,7.7669,-0.01405,0.015272,-0.017104
0.069244,-1.3141,6.5901,7.7865,-0.01405,0.016493,-0.018021
0.080627,-1.1376,6.5901,7.6492,-0.013744,0.018631,-0.018631
0.087738,-1.216,6.6293,7.708,-0.014355,0.018021,-0.018937
0.094391,-1.2356,6.6293,7.7473,-0.010996,0.017104,-0.018326
0.097198,-1.216,6.7274,7.6492,-0.0061087,0.018326,-0.018937
0.095215,-1.2749,6.5901,7.7669,-0.0042761,0.015882,-0.018631
0.098938,-1.1376,6.6489,7.6492,-0.002138,0.015577,-0.018326
0.097809,-1.3729,6.6489,7.7669,-0.0009163,0.019242,-0.018631
0.10052,-1.2749,6.6489,7.5903,-0.0054978,0.018937,-0.016493
0.10242,-1.3337,6.6489,7.7865,-0.012828,0.019548,-0.016493
0.1073,-1.118,6.6489,7.7669,-0.016799,0.020769,-0.01741
0.097168,-1.216,6.6489,7.6492,-0.016799,0.021686,-0.016799
0.096741,-1.3925,6.6881,7.7865,-0.014966,0.021075,-0.016493
0.10037,-1.1768,6.6489,7.708,-0.0085521,0.019548,-0.018326
0.10062,-1.1376,6.6881,7.6884,0.00061087,0.019548,-0.015882
0.09491,-1.1376,6.6489,7.7473,0.002138,0.020464,-0.017104
0.085907,-1.0787,6.7274,7.6492,0.0027489,0.021075,-0.019242
0.086639,-1.4514,6.7274,7.7473,0.0051924,0.019853,-0.018937
0.085297,-1.118,6.6293,7.6884,0.0042761,0.020159,-0.018937
0.07962,-1.3141,6.6293,7.6884,-0.0018326,0.020769,-0.019548
0.079559,-1.0787,6.5116,7.6492,-0.0094684,0.021075,-0.018631
0.077057,-1.3141,6.6685,7.7669,-0.016799,0.021075,-0.01741
0.074738,-1.2749,6.7274,7.6884,-0.015577,0.021686,-0.012523
0.0672,-1.3141,6.6685,7.5903,-0.012828,0.020769,-0.012523
0.075317,-1.216,6.6489,7.6884,-0.010385,0.020159,-0.014661
0.048828,-1.216,6.6489,7.61,-0.0082467,0.020464,-0.011301
0.051483,-1.1376,6.6489,7.6884,-0.0088575,0.021075,-0.011912
0.042297,-1.216,6.7274,7.6884,-0.0088575,0.020464,-0.012828
0.038513,-1.1572,6.5116,7.6296,-0.010996,0.019548,-0.012828
0.031403,-1.1572,6.5705,7.6492,-0.013439,0.018326,-0.012828
0.031586,-1.216,6.6685,7.6884,-0.03543,0.0079412,0.0009163
0.035706,-1.216,6.7862,7.7865,-0.036652,0.0054978,0.0009163
0.058807,-1.1572,6.6685,7.6492,-0.038485,0.0097738,-0.0015272
0.064514,-1.1572,6.6685,7.6492,-0.037568,0.011301,-0.002138
0.065491,-1.3337,6.5901,7.6884,-0.03146,0.010079,-0.0015272
0.052002,-1.3925,6.7274,7.61,-0.024435,0.0085521,-0.0018326
0.047333,-1.216,6.6489,7.6884,-0.016493,0.0073304,-0.0012217
0.044983,-1.2945,6.5705,7.7276,-0.010385,0.0073304,0.00030543
0.040863,-1.0787,6.6489,7.6884,-0.031154,0.007025,0
0.039063,-1.3141,6.6881,7.7473,-0.044593,0.0088575,0.00030543
0.057495,-1.3141,6.6293,7.5511,-0.051924,0.010996,0.00061087
0.03302,-1.3141,6.5901,7.6492,-0.053451,0.012217,0.00061087
0.041992,-1.3337,6.5901,7.7669,-0.052229,0.012828,0.00030543
0.042603,-1.1376,6.7274,7.6492,-0.047037,0.013744,-0.00030543
0.038544,-1.3337,6.7274,7.708,-0.01069,0.013134,-0.00030543
0.034363,-1.216,6.7274,7.6296,-0.018021,0.012217,-0.00061087
0.029663,-1.0787,6.6881,7.6492,-0.02474,0.0097738,0.0054978
0.036194,-1.118,6.5312,7.6492,-0.021686,0.0079412,0.0048869
0.035583,-1.3337,6.5901,7.5511,-0.024435,0.0082467,-0.00030543
0.044067,-1.2945,6.6489,7.61,-0.032376,0.0094684,-0.002138
0.034241,-1.4514,6.6881,7.7865,-0.040317,0.0097738,-0.0018326
0.039673,-1.1376,6.6293,7.6492,-0.043677,0.0097738,0.0018326
0.045135,-1.3141,6.5901,7.6884,-0.037263,0.011606,0.0058032
0.0354,-1.118,6.6489,7.7473,-0.030543,0.011912,0.0064141
0.035614,-1.216,6.6293,7.6884,-0.024435,0.01405,0.0012217
0.032959,-1.216,6.5312,7.6296,-0.019242,0.013744,-0.0012217
0.021088,-1.3141,6.5901,7.7669,-0.014355,0.012523,0.0076358
0.021942,-1.3141,6.6489,7.61,-0.010996,0.0097738,0.0067195
0.01889,-1.3141,6.6489,7.6884,-0.013439,0.009163,0.0036652
0.01236,-1.216,6.6489,7.6884,-0.018937,0.0097738,0.0051924
-0.0025024,-1.1376,6.5312,7.6884,-0.022907,0.011301,0.0039706
-0.0065002,-1.1572,6.6881,7.6884,-0.028405,0.011301,0.0039706
-0.011719,-1.3141,6.5901,7.7865,-0.016493,0.018326,-0.0067195
-0.011261,-1.3141,6.6293,7.8061,-0.014355,0.021686,-0.0097738
0.0057068,-1.2749,6.5901,7.6884,-0.013134,0.019242,-0.0082467
0.010834,-1.1572,6.5901,7.6884,-0.010996,0.015272,-0.0079412
0.014099,-1.2945,6.6293,7.5511,-0.010996,0.012828,-0.0073304
-0.0016785,-1.1376,6.6881,7.708,-0.012828,0.011606,-0.0064141
-0.0016174,-1.4514,6.8058,7.7865,-0.016188,0.012523,-0.0058032
-0.011108,-1.0787,6.6293,7.6884,-0.020464,0.015577,-0.0051924
-0.01239,-1.1572,6.6489,7.6884,-0.020159,0.015882,-0.0076358
-0.019196,-1.3141,6.5901,7.61,-0.020769,0.015882,-0.007025
-0.026489,-1.3141,6.6293,7.6884,-0.019548,0.014661,-0.010079
-0.02887,-1.1768,6.6489,7.6884,-0.016799,0.011912,-0.01069
-0.042419,-1.3141,6.6489,7.5511,-0.016799,0.012523,-0.011912
-0.045471,-1.2945,6.6489,7.6296,-0.020769,0.013439,-0.012217
-0.047913,-1.216,6.6489,7.6296,-0.024435,0.015272,-0.0097738
-0.056122,-1.2945,6.6489,7.6884,-0.020769,0.018937,-0.0076358
-0.050476,-1.1572,6.6293,7.6296,-0.029016,0.019242,-0.0030543
-0.067352,-1.0787,6.6489,7.7473,-0.014661,0.01741,-0.0039706
-0.076569,-1.3141,6.6293,7.7865,-0.011606,0.015272,-0.0061087
-0.081512,-1.1572,6.6293,7.708,-0.011301,0.013439,-0.0048869
-0.078583,-1.2749,6.6489,7.708,-0.0094684,0.012217,-0.0009163
-0.082977,-1.2749,6.6489,7.6492,-0.010996,0.011912,-0.002138
-0.088562,-1.3141,6.5901,7.7669,-0.015882,0.012523,-0.0024435
-0.096924,-1.3141,6.6881,7.6296,-0.023213,0.013439,-0.0024435
-0.10403,-1.216,6.6881,7.708,-0.027184,0.014966,-0.0064141
-0.11124,-1.216,6.6489,7.5511,-0.026878,0.010996,-0.0076358
-0.11584,-1.3141,6.5901,7.61,-0.025656,0.012828,-0.0042761
-0.12607,-1.1768,6.5901,7.6884,-0.023824,0.015272,-0.0058032
-0.13242,-1.1376,6.5901,7.7865,-0.023518,0.014966,-0.0039706
-0.13531,-1.216,6.6881,7.7669,-0.022297,0.013134,-0.0033598
-0.14188,-1.118,6.6881,7.7865,-0.020769,0.014661,-0.0048869
-0.1517,-1.3925,6.6685,7.7669,-0.020159,0.016493,-0.0048869
-0.14764,-1.1572,6.6489,7.7473,-0.022907,0.017104,-0.0036652
-0.14401,-1.2945,6.5901,7.6884,-0.01741,0.018631,-0.0061087
-0.11642,-1.1768,6.6489,7.6884,-0.013439,0.016799,-0.0051924
-0.1048,-1.4514,6.6489,7.7865,-0.011606,0.016188,-0.0042761
-0.10489,-1.0787,6.6489,7.6492,-0.012523,0.01405,-0.0042761
-0.097504,-1.1768,6.6881,7.6884,-0.01741,0.01405,-0.0039706
-0.094727,-1.0787,6.5901,7.7669,-0.028711,0.014966,-0.0039706
-0.094971,-1.0591,6.6293,7.708,-0.025962,0.014355,-0.0039706
-0.096344,-1.216,6.6489,7.6884,-0.029932,0.014355,-0.01069
-0.092529,-1.3141,6.6293,7.7865,-0.029016,0.012217,-0.011301
-0.083496,-1.1376,6.6489,7.6884,-0.023518,0.014661,-0.0082467
-0.074127,-1.1572,6.6489,7.6884,-0.017104,0.015577,-0.0094684
-0.068787,-1.3141,6.6489,7.5903,-0.011606,0.013134,-0.0094684
-0.068665,-1.216,6.6489,7.6884,-0.0079412,0.013439,-0.010996
-0.058533,-1.2749,6.6685,7.6492,-0.023824,0.013439,-0.012828
-0.054932,-1.1768,6.6489,7.6492,-0.027489,0.012828,-0.011301
-0.048981,-1.3141,6.6685,7.7473,-0.0048869,0.011606,-0.0039706
-0.056152,-1.3337,6.6293,7.61,-0.0067195,0.0073304,-0.0042761
-0.050934,-1.1376,6.5901,7.7865,-0.010079,0.0082467,-0.013134
-0.04126,-1.3141,6.6489,7.6884,-0.014355,0.010079,-0.010079
-0.04715,-1.2749,6.5705,7.7865,-0.019853,0.013134,-0.0097738
-0.039551,-1.118,6.5116,7.6884,-0.024435,0.015882,-0.009163
-0.037231,-1.2749,6.5901,7.7865,-0.028711,0.015882,-0.0079412
-0.036011,-1.118,6.5705,7.7473,-0.030849,0.018021,-0.0045815
-0.03949,-1.1572,6.6685,7.708,-0.020159,0.016188,-0.0039706
-0.047394,-1.1376,6.5901,7.6884,-0.020769,0.011301,-0.0039706
-0.05191,-1.1572,6.6881,7.6884,-0.019853,0.011606,-0.0024435
-0.057373,-1.1376,6.6293,7.7473,-0.021075,0.012828,-0.00061087
-0.056519,-1.118,6.6489,7.6884,-0.024129,0.014355,-0.0015272
-0.059845,-1.1572,6.6489,7.6884,-0.026878,0.014355,-0.0009163
-0.063568,-1.216,6.6881,7.6492,-0.027794,0.013134,-0.0024435
-0.069244,-1.1376,6.6489,7.7865,-0.022297,0.015272,-0.0036652
-0.056152,-1.1572,6.6881,7.6884,-0.011301,0.015577,-0.0058032
-0.054077,-1.2749,6.5116,7.7865,-0.022907,0.016799,-0.0076358
-0.035553,-1.216,6.6489,7.6884,-0.031154,0.018937,-0.010385
-0.019989,-1.1572,6.5901,7.6492,-0.031154,0.020769,-0.0058032
-0.019379,-1.2749,6.5901,7.7865,-0.02474,0.021686,-0.0064141
-0.004425,-1.216,6.6489,7.6884,-0.016799,0.019853,-0.0051924
-0.0082703,-1.2749,6.6685,7.708,-0.0064141,0.018021,-0.0036652
-0.01767,-1.216,6.6489,7.6492,-0.0012217,0.017715,-0.0061087
-0.012207,-1.216,6.6489,7.61,-0.016188,0.016799,-0.016799
-0.013428,-1.2749,6.6489,7.708,-0.018937,0.018937,-0.018631
-0.0085144,-1.2945,6.6489,7.6492,-0.016493,0.019548,-0.017104
-0.0015564,-1.1572,6.6685,7.7473,-0.01741,0.019853,-0.016188
-0.0011902,-1.3141,6.6489,7.7669,-0.019242,0.019242,-0.015577
-0.015106,-1.1768,6.5901,7.61,-0.018021,0.016188,-0.015882
0.00030518,-1.3141,6.5312,7.7669,-0.017104,0.01405,-0.015272
0.0022583,-1.2945,6.6489,7.6296,-0.015272,0.012217,-0.015882
-0.0016785,-1.1572,6.5901,7.6296,-0.01069,0.011301,-0.018937
0.0077209,-1.2945,6.6293,7.61,-0.0045815,0.0082467,-0.015272
0.0055542,-1.118,6.7274,7.6884,-0.0027489,0.011912,-0.020159
0.0073853,-1.3141,6.6881,7.61,-0.0036652,0.014661,-0.020159
0.017395,-1.3141,6.5705,7.7473,-0.0073304,0.014661,-0.020769
0.011047,-1.216,6.6489,7.6492,-0.014355,0.014355,-0.019242
0.021698,-1.1572,6.6489,7.7865,-0.019242,0.014966,-0.018631
0.0086365,-1.0787,6.5116,7.6492,-0.021075,0.016188,-0.019548
0.016998,-1.216,6.6489,7.61,-0.020159,0.018326,-0.012523
0.0075073,-1.1572,6.6881,7.7473,-0.017715,0.023824,-0.012828
0.0035706,-1.3141,6.6489,7.6492,-0.014966,0.021686,-0.013134
0.012634,-1.1572,6.5116,7.6884,-0.010079,0.016799,-0.01069
0.020172,-1.0787,6.5116,7.6884,-0.0064141,0.012523,-0.012217
0.011932,-1.1572,6.6881,7.7473,-0.0012217,0.0097738,-0.011606
0.0067139,-1.216,6.747,7.5511,0.00061087,0.010996,-0.010996
0.026733,-1.2945,6.7274,7.6296,-0.002138,0.013744,-0.011912
0.028778,-1.3141,6.5312,7.8061,-0.0054978,0.017104,-0.011301
0.045776,-1.0787,6.6489,7.6492,-0.015882,0.023213,-0.011606
0.068298,-1.2749,6.5901,7.61,-0.021686,0.021686,-0.011912
0.088379,-1.1768,6.6881,7.6884,-0.025962,0.019853,-0.011301
0.097565,-1.0787,6.5901,7.6492,-0.027489,0.020159,-0.012217
0.1058,-1.2356,6.7274,7.6884,-0.026878,0.019548,-0.012217
0.11218,-1.216,6.6489,7.61,-0.021991,0.017104,-0.011301
0.11279,-1.2749,6.6489,7.6296,-0.014966,0.016188,-0.011301
0.11725,-1.216,6.6293,7.6296,-0.013744,0.016799,-0.0045815
0.12213,-1.3141,6.5901,7.4923,-0.01405,0.015882,-0.0039706
0.12741,-1.2945,6.6685,7.5511,-0.011606,0.014661,-0.010996
0.14902,-1.3141,6.7274,7.6884,-0.011606,0.015272,-0.0094684
0.15359,-1.1572,6.6293,7.6296,-0.014355,0.01741,-0.0082467
0.16022,-1.3141,6.6489,7.5511,-0.016188,0.018021,-0.009163
0.15192,-1.216,6.6489,7.6884,-0.015272,0.015882,-0.0097738
0.15848,-1.1376,6.5901,7.6492,-0.016493,0.018937,-0.0079412
0.16544,-1.1376,6.6489,7.7473,-0.025351,0.018326,-0.0018326
0.15887,-1.3925,6.6489,7.61,-0.023824,0.016188,0
0.15955,-1.216,6.6685,7.6884,-0.018937,0.015577,-0.0030543
0.16797,-1.118,6.5705,7.6492,-0.01741,0.01405,-0.0048869
0.16721,-1.3337,6.5901,7.7473,-0.016799,0.012217,-0.0061087
0.15585,-1.216,6.5901,7.6884,-0.018631,0.010996,-0.0039706
0.15567,-1.1768,6.6685,7.7473,-0.020769,0.011301,-0.0045815
0.15814,-1.216,6.6685,7.6884,-0.023518,0.011912,-0.0042761
0.15833,-1.3141,6.7274,7.6296,-0.032681,0.013439,0.0045815
0.15775,-1.1768,6.6489,7.61,-0.03207,0.016493,0.0018326
0.14874,-1.216,6.7274,7.6884,-0.029016,0.015577,0.0015272
0.14612,-1.3337,6.6881,7.6296,-0.025045,0.013744,0.0027489
0.14911,-1.3141,6.6489,7.61,-0.022602,0.013134,0.0024435
0.15515,-1.118,6.6489,7.6884,-0.022907,0.012217,0.0018326
0.14447,-1.3141,6.6489,7.61,-0.022602,0.012217,0.0024435
0.14404,-1.3141,6.6685,7.61,-0.028711,0.012523,0.0045815
0.1387,-1.1376,6.5901,7.6884,-0.016188,0.0082467,0.0042761
0.14951,-1.6083,6.7077,7.8061,-0.014966,0.0082467,0.0045815
0.15613,-1.1572,6.492,7.61,-0.017104,0.0085521,0.010385
0.17175,-1.0787,6.6881,7.6492,-0.020159,0.010996,0.0085521
0.15652,-1.3141,6.5901,7.7669,-0.026878,0.012828,0.0076358
0.15451,-1.1376,6.6685,7.7473,-0.036346,0.015577,0.0076358
0.14438,-1.3141,6.6489,7.61,-0.038179,0.01741,0.0064141
0.13956,-1.3337,6.6489,7.7473,-0.033598,0.018326,0.0048869
0.12582,-1.2749,6.6685,7.7473,-0.028711,0.019548,-0.01741
0.1011,-1.2749,6.747,7.61,-0.024435,0.017715,-0.018937
0.10007,-1.2749,6.6293,7.5903,-0.019242,0.01741,0.0045815
0.083344,-1.3141,6.6489,7.6296,-0.019853,0.016188,0.0015272
0.078094,-1.1572,6.6489,7.708,-0.023213,0.015882,-0.0012217
0.075348,-1.0199,6.6489,7.6884,-0.02138,0.015882,-0.0048869
0.08609,-1.3141,6.6881,7.7669,-0.017715,0.016493,-0.0094684
0.054382,-1.0787,6.5116,7.6884,-0.016799,0.013744,-0.013744
0.042023,-1.1376,6.7274,7.6884,-0.01741,0.010079,-0.0027489
0.043549,-1.216,6.5705,7.7865,-0.018937,0.012217,0.00030543
0.045593,-1.1376,6.6293,7.7865,-0.025045,0.012217,-0.017104
0.045563,-1.2749,6.6489,7.61,-0.029932,0.012828,-0.013744
0.041473,-1.4318,6.6489,7.7865,-0.027794,0.014966,-0.01069
0.046082,-1.0787,6.6489,7.708,-0.021075,0.013744,-0.0088575
0.042847,-1.216,6.6881,7.6884,-0.01405,0.011606,-0.0073304
0.049042,-1.118,6.6489,7.7669,-0.014661,0.0097738,-0.0054978
0.048889,-1.118,6.6293,7.7473,-0.020159,0.0079412,-0.010385
0.049225,-1.3337,6.6293,7.61,-0.026573,0.0064141,-0.0085521
0.049866,-1.5298,6.747,7.708,-0.030238,0.0076358,0.002138
0.041931,-1.216,6.747,7.7473,-0.034819,0.009163,0
0.033661,-1.1572,6.7274,7.6884,-0.036041,0.010996,-0.0048869
0.037323,-1.4514,6.6489,7.7865,-0.034819,0.012828,-0.0064141
0.033203,-1.118,6.4135,7.6492,-0.029016,0.016188,-0.0051924
0.031311,-1.118,6.5901,7.7669,-0.020464,0.019242,-0.0079412
0.031921,-1.0787,6.5901,7.6296,-0.011912,0.012523,-0.0048869
0.032227,-1.216,6.6685,7.5511,-0.017104,0.012523,-0.0058032
0.056244,-1.3337,6.7274,7.7669,-0.022602,0.014355,-0.0036652
0.061249,-1.0787,6.5901,7.6296,-0.027184,0.014661,-0.0024435
0.064148,-1.2749,6.5901,7.6492,-0.029627,0.01405,-0.0024435
0.06723,-1.3141,6.5116,7.7865,-0.027794,0.014355,-0.0033598
0.069366,-1.118,6.5901,7.6884,0.0015272,0.014966,-0.0027489
0.057648,-1.3141,6.6489,7.7865,-0.0058032,0.016799,-0.0048869
0.0578,-1.1376,6.5705,7.6296,-0.013134,0.017715,-0.010079
0.051788,-1.2945,6.5116,7.7473,-0.014355,0.015882,-0.010385
0.048523,-1.216,6.6489,7.6492,-0.013744,0.01741,-0.0064141
0.042511,-1.2945,6.7274,7.61,-0.013439,0.018021,-0.0058032
0.034485,-1.1572,6.7274,7.7473,-0.015882,0.01741,-0.0079412
0.023743,-1.2356,6.6489,7.61,-0.018631,0.015272,-0.0085521
0.025482,-1.2749,6.6293,7.7473,-0.022602,0.015272,-0.0082467
0.030121,-1.216,6.5901,7.61,-0.014661,0.014355,-0.0088575
0.029053,-1.216,6.5901,7.6884,-0.026878,0.014966,-0.0051924
0.027679,-1.3337,6.7274,7.7473,-0.0281,0.018021,-0.0076358
0.023926,-1.1572,6.7274,7.6884,-0.027184,0.017104,-0.009163
0.019714,-1.2749,6.6881,7.7865,-0.023518,0.015882,-0.007025
0.021088,-1.216,6.6489,7.6884,-0.018937,0.014966,-0.0058032
0.020569,-1.1572,6.5901,7.6492,-0.015272,0.013134,-0.0039706
0.0098572,-1.2749,6.5901,7.6884,-0.019853,0.010385,-0.0036652
0.0029602,-1.2749,6.6881,7.6492,-0.024435,0.009163,-0.0042761
-0.012787,-1.0787,6.6685,7.6884,-0.03207,0.0088575,-0.0051924
-0.017273,-1.216,6.7274,7.6884,-0.037263,0.012217,-0.0039706
-0.0097351,-1.216,6.6489,7.5511,-0.033598,0.013439,-0.010996
-0.013733,-1.3141,6.6881,7.6296,-0.025962,0.014355,-0.011301
-0.019348,-1.4514,6.6489,7.7865,-0.019853,0.014966,-0.010079
-0.023895,-1.216,6.6489,7.61,-0.012523,0.014355,-0.011606
-0.035583,-1.0787,6.6489,7.6884,-0.0042761,0.012828,-0.010385
-0.035126,-1.0787,6.6881,7.7865,0.0018326,0.012828,-0.0067195
-0.043335,-1.216,6.7862,7.6884,-0.010079,0.011912,-0.011912
-0.048737,-1.4514,6.6685,7.708,-0.011606,0.010996,-0.011912
-0.010834,-1.0787,6.6685,7.6296,-0.011606,0.012828,-0.016493
-0.011993,-1.1768,6.6881,7.6884,-0.013134,0.014966,-0.019853
