-0.85983,-2.0594,8.5318,6.4332,-0.15211,-0.43799,0.44776
-0.80087,-1.8437,7.61,5.6682,-0.11576,-0.43097,0.4441
-0.74811,-1.471,7.3158,5.884,-0.10293,-0.43219,0.46365
-0.69214,-0.98067,7.9042,6.5312,-0.12034,-0.44349,0.47098
-0.64902,-0.82376,8.2376,6.9235,-0.14416,-0.4496,0.46976
-0.59564,-0.68647,8.2964,6.7077,-0.15547,-0.45021,0.45845
-0.5379,-0.49033,8.0611,6.5116,-0.17379,-0.45601,0.45296
-0.4512,-0.35304,7.8453,6.5116,-0.19761,-0.46334,0.44838
-0.36566,-0.23536,7.8257,6.8058,-0.21319,-0.46487,0.30574
-0.25562,-0.13729,7.9042,6.9235,-0.20769,-0.4667,0.25779
-0.15695,-0.13729,7.8453,6.8254,-0.18173,-0.47006,0.43707
-0.085724,0.078453,7.5315,6.5312,-0.1518,-0.48167,0.43097
-0.0081482,-0.21575,7.5315,6.5508,-0.17807,-0.4609,0.42944
0.047058,-0.05884,7.7276,6.9823,-0.3262,-0.42699,0.42883
0.08905,0.27459,7.6688,7.1589,-0.48319,-0.416,0.41294
0.12079,0.33343,7.7669,7.1589,-0.55558,-0.40592,0.35339
0.12814,0.45111,7.6688,7.1196,-0.5452,-0.42058,0.38362
0.13004,0.66685,7.61,6.8647,-0.4609,-0.45418,0.26359
0.12402,0.66685,7.5119,7.1785,-0.27489,-0.48381,0.2303
0.085449,0.98067,7.3746,7.1589,-0.051313,-0.52229,0.26573
0.014648,1.0395,7.2961,7.0019,-0.01741,-0.55497,0.31673
-0.082062,1.118,7.0412,7.1392,-0.21105,-0.60323,0.37232
-0.17642,1.1964,7.6688,7.2765,-0.52626,-0.63744,0.46365
-0.21646,0.70608,8.2964,8.2572,-0.83078,-0.64752,0.48381
-0.12686,-0.05884,8.2572,8.7083,-0.99754,-0.64568,0.17043
0.11093,0.82376,7.4727,7.7865,-0.93737,-0.6466,0.15516
0.41891,0.92183,6.5705,7.3746,-0.78588,-0.65882,0.28802
0.7551,1.4906,7.0412,7.4727,-0.74006,-0.63561,0.3207
0.98892,1.3337,6.9039,7.2765,-0.8094,-0.59865,0.31582
1,1.4318,6.1782,6.747,-0.92424,-0.56994,0.33964
1,1.5887,6.2566,7.3158,-0.98197,-0.54398,0.29352
1,1.6867,6.9823,8.316,-0.92882,-0.53909,0.21716
1,1.6475,7.2961,8.6299,0.23732,-0.79382,0.31857
1,1.118,6.3351,8.3357,0.26512,-0.77397,0.29108
1,1.824,5.0995,7.7669,0.26939,-0.74892,0.49419
1,2.8047,5.5702,8.2572,0.25229,-0.71777,0.4554
1,3.9423,7.1,8.8848,0.2135,-0.68142,0.41997
1,4.3149,7.61,8.5514,0.16402,-0.63805,0.39065
1,4.1972,7.5315,7.9238,0.10873,-0.59193,0.36591
1,4.2169,6.8058,7.2373,0.045204,-0.54245,0.34331
1,4.3738,6.0409,6.9823,-0.010996,-0.4948,0.14722
1,4.413,6.0409,7.0804,-0.04612,-0.44929,0.13683
1,4.1972,6.4135,7.5511,-0.056505,-0.40714,0.26176
1,4.06,6.3547,7.4727,-0.040317,-0.37324,0.2364
1,4.0011,6.0213,7.1785,0.0018326,-0.34514,0.21136
1,4.0207,5.3937,6.9627,0.059865,-0.31765,0.18295
1,3.8834,5.0014,6.8647,0.11209,-0.28619,0.16463
0.93536,3.9423,4.8053,6.9627,0.13775,-0.2532,0.15516
0.59979,3.805,5.1779,7.0019,0.13073,-0.21991,0.057116
0.2522,3.8442,5.4329,6.8254,0.09896,-0.18631,0.041539
-0.099213,4.158,5.4721,6.6489,0.041539,-0.15455,0.13042
-0.42499,4.2757,5.374,6.3939,-0.026573,-0.12492,0.1237
-0.72394,4.06,5.2564,6.4332,-0.075442,-0.10599,0.11668
-0.96237,4.4718,5.021,6.3939,-0.090408,-0.097738,0.10873
-0.99997,4.413,5.021,6.3547,-0.072082,-0.094073,0.091019
-0.99997,4.3738,5.1779,6.3351,-0.03543,-0.09163,0.072998
-0.99997,4.668,5.5506,6.5116,0.11606,-0.9108,0.56536
-0.99997,4.4718,5.8644,6.845,0.045815,-0.88881,0.53267
-0.99997,4.6484,5.7075,6.747,-0.019853,-0.8659,0.71257
-0.99997,4.7856,5.4721,6.7666,-0.057727,-0.84574,0.69303
-0.99997,4.9622,5.3348,6.6685,-0.048869,-0.82833,0.67501
-0.99997,4.9622,5.6879,6.747,0.0073304,-0.81795,0.65485
-0.99997,5.1191,5.8644,6.7077,0.092852,-0.81184,0.62889
-0.99997,5.2956,5.7859,6.6097,0.17746,-0.80481,0.59712
-0.99997,5.0602,5.7075,6.6685,0.082467,0.06017,-0.011912
-0.99997,5.2564,5.6879,6.6685,0.050702,0.065057,-0.013134
-0.99997,5.2956,5.7075,6.6881,0.01741,0.073915,-0.018326
-0.99997,5.5113,5.7075,6.6097,-0.0027489,0.083078,-0.014355
-0.99997,5.5702,5.8448,6.6489,-0.0058032,0.09499,-0.015577
-0.99997,5.4721,6.0213,6.6685,-0.0012217,0.10599,-0.019242
-0.99997,5.4329,5.6879,6.5312,0.08094,0.11698,-0.019548
-0.99997,5.4329,5.531,6.6097,0.096211,0.12584,-0.015882
-0.99997,5.4329,5.6486,6.6489,0.058338,0.13256,-0.087965
-0.99997,5.4525,5.8448,6.6489,0.069333,0.13592,-0.10812
-0.99997,5.4721,5.884,6.6489,0.055589,0.13775,-0.018631
-0.99997,5.5898,5.7075,6.5116,0.023824,0.14386,-0.029322
-0.99997,5.4721,5.5506,6.5312,-0.013134,0.15333,-0.038485
-0.99997,5.5113,5.5702,6.6685,-0.033903,0.16738,-0.044899
-0.99997,5.4525,5.7859,6.6097,0.012828,0.18662,-0.054672
-0.99997,5.3544,5.8448,6.6685,0.035125,0.20372,-0.071166
-0.99997,5.4329,5.6879,6.6097,0.039706,0.21655,-0.22083
-0.99997,5.3152,5.3937,6.4528,0.065668,0.22907,-0.2361
-0.99997,5.3152,5.5898,6.4332,0.072388,0.24923,-0.12859
-0.99997,5.4329,5.8448,6.5508,0.062919,0.27031,-0.14264
-0.99997,5.4329,5.8644,6.6489,0.039706,0.28924,-0.15852
-0.99997,5.4329,5.884,6.5508,0.011606,0.30788,-0.17471
-0.99997,5.1387,5.7075,6.4332,-0.025656,0.32926,-0.18815
-0.99997,5.276,5.5898,6.5508,0.0042761,0.35003,-0.20311
-0.99997,5.1583,5.6879,6.5901,0.045204,0.032376,-0.016188
-0.99997,5.1387,5.884,6.6881,0.029322,0.040317,-0.017715
-0.99997,4.9033,5.8644,6.5312,-0.002138,0.047953,0.00030543
-0.99997,4.9622,5.5506,6.3939,-0.036346,0.054672,-0.00030543
-0.99997,5.0995,5.5506,6.492,-0.054672,0.058338,-0.0012217
-0.99997,4.8445,5.629,6.3547,-0.044593,0.062919,-0.0048869
-0.99997,4.8053,5.7271,6.5508,-0.0048869,0.061697,-0.010385
-0.99997,4.3345,5.7859,6.6097,0.043677,0.058338,-0.014355
-0.99997,4.1972,5.629,6.4332,0.967,1.6371,-1.412
-0.99997,4.06,5.6486,6.747,0.91752,1.7526,-1.4716
-0.99997,4.5111,5.9036,6.9235,0.73762,1.8561,-1.0638
-0.99997,4.3345,6.0605,7.0216,0.45907,1.9471,-1.0583
-0.99997,4.5111,5.9036,6.8647,0.18051,2.0229,-1.0513
-0.99997,4.2561,5.6486,6.8254,0.017715,2.094,-1.1246
-0.99997,3.903,5.6486,6.6881,0.065973,2.1655,-1.2468
-0.99997,3.8638,6.1193,7.0019,0.33139,2.2568,-1.3418
-0.99997,4.1972,6.3547,7.2373,0.74862,2.3607,-1.3949
-0.99997,4.1972,6.2763,7.0216,1.1945,2.4639,-1.4609
-0.99997,3.7265,5.9036,6.8254,1.4948,2.5644,-1.5076
-0.99997,3.3735,5.6879,6.5312,1.5656,2.6292,-1.4364
-0.99997,3.1185,6.3351,6.8254,1.2935,2.6618,-1.1952
-0.99997,3.1774,7.2961,7.2373,0.66371,2.7003,-1.0033
-0.99997,3.0793,7.5315,7.0019,-0.055894,2.7498,-1.0275
-0.99997,2.9028,6.7274,6.5116,-0.57299,2.8002,-1.2113
-0.99997,2.4517,5.7075,6.0409,0.45051,0.6802,-0.58674
-0.99997,2.0202,5.7075,5.9821,0.35552,0.72082,-0.61239
-0.99997,1.9809,6.492,5.9036,0.18631,0.76236,-0.47281
-0.99997,1.9221,6.8058,5.5702,0.007025,0.80909,-0.46762
-0.92392,1.8437,6.4724,4.9426,-0.1127,0.85857,-0.478
-0.79837,1.3533,6.5901,4.5503,-0.11881,0.90133,-0.49847
-0.67975,1.3337,7.7473,5.2368,-0.0030543,0.93951,-0.52168
-0.57626,0.56879,9.0025,5.9821,0.19548,0.97433,-0.55344
-0.51804,0.27459,8.3749,5.6682,0.41325,1.007,-0.96883
-0.46997,0.11768,6.6685,4.2953,0.59712,1.0443,-1.0336
-0.39886,-0.27459,5.8448,3.1577,0.71196,1.0931,-0.62492
-0.31061,-1.0199,7.61,4.6484,0.75075,1.1533,-0.63835
-0.20667,-2.687,10.728,6.9039,0.74342,1.2254,-0.6744
-0.12115,-3.0204,10.807,7.1785,0.75595,1.3118,-0.74067
-0.066498,-2.5693,8.5514,5.6682,0.82375,1.4083,-0.8152
-0.030853,-3.0989,6.7274,4.5503,0.91233,1.5171,-0.88698
0.016663,-3.8834,5.6486,4.2365,0.062308,-0.39279,1.3766
0.091339,-4.3542,5.7075,4.3542,0.0039706,-0.54734,1.5186
0.19788,-5.0406,6.0213,4.7856,-0.037568,-0.69883,0.3375
0.28546,-6.0017,6.3155,5.1387,-0.065973,-0.83414,0.57513
0.37885,-6.4135,7.0608,5.6682,-0.083078,-0.96608,0.76541
0.45963,-7.8061,8.3749,6.0213,-0.083078,-1.0965,0.92974
0.5127,-8.218,8.6887,6.4332,0.30055,-1.212,1.0806
0.54398,-8.3749,7.7276,5.5898,0.15394,-1.3103,1.2263
0.53787,-8.4533,6.5901,4.8249,1.5113,2.1832,-2.0064
0.51968,-8.4926,5.8448,4.158,1.6915,2.102,-1.9884
0.51379,-8.6102,5.9036,3.8442,1.7956,2.021,-1.8732
0.51218,-8.5514,6.3351,3.7854,1.8396,1.9655,-1.9374
0.53973,-8.6102,7.0019,3.4519,1.8503,1.9248,-2.0049
0.57602,-8.6887,7.2177,2.9224,1.8418,1.8766,-2.0372
0.64185,-9.0221,7.6296,2.5693,1.7929,1.8228,-2.0272
0.73163,-9.3752,8.0415,2.2948,1.6967,1.7565,-2.0119
0.85336,-9.6497,8.218,2.0398,1.5739,1.6814,-1.6863
0.97708,-10.375,7.8453,1.6867,1.471,1.6139,-1.4933
1,-11.101,7.4334,1.216,1.4135,1.5369,-1.9743
1,-11.474,7.2961,1.0199,1.4197,1.4386,-1.9716
1,-11.415,7.9826,0.8826,1.4981,1.3369,-1.9777
1,-11.042,8.3945,0.90221,1.6105,1.2214,-1.9746
1,-10.375,8.1591,1.0199,1.6982,1.1057,-1.9267
1,-9.3752,7.6688,1.0003,1.7239,0.99388,-1.8338
1,-9.5517,7.5903,1.0983,1.4755,0.84116,-0.22419
1,-9.7478,7.0412,0.74531,1.3042,0.66309,0.058032
1,-10.003,6.5901,0.72569,1.1435,0.49388,-1.3124
1,-10.277,6.1782,0.64724,0.96822,0.32193,-1.1796
1,-10.219,5.9036,0.43149,0.74556,0.16799,-1.0446
1,-10.415,5.884,0.41188,0.50732,0.032376,-0.88545
1,-10.434,5.531,0.41188,1.6994,-0.10476,-0.70708
1,-10.415,5.1583,0.47072,1.6246,-0.24648,-0.48564
1,-10.552,4.9229,0.5884,-0.76053,1.0305,-1.3274
1,-10.905,4.4326,0.64724,-0.056505,1.2086,-1.4481
1,-10.199,4.3345,1.0003,-0.22602,1.3766,-1.5843
1,-9.9243,4.4326,1.3729,-0.37324,1.5443,-1.6765
1,-9.5909,4.5503,1.7456,-0.48778,1.7171,-1.719
1,-10.12,4.5307,1.7456,-0.58429,1.8766,-1.7685
1,-9.8655,4.2169,1.5887,-0.68264,2.0143,-1.8586
1,-9.3752,3.8442,1.5887,-0.72693,2.1408,-1.9007
1,-8.6102,3.4519,1.6279,0.90683,-1.6325,0.091019
1,-8.0415,3.4519,1.726,0.76328,-1.6124,0.08094
1,-7.5903,3.5892,1.9613,0.64599,-1.5959,0.52473
1,-7.1196,3.6677,2.0986,0.55039,-1.5699,0.45326
1,-6.5116,3.7658,1.9809,0.48808,-1.543,0.35552
1,-6.0213,3.805,1.9025,0.46456,-1.5238,0.26176
1,-5.374,3.9815,1.9613,0.46334,-1.5024,0.18601
1,-4.8445,4.0796,1.9025,0.47434,-1.47,0.12462
1,-4.6091,4.158,1.8044,0.49541,-1.4325,-0.35888
1,-4.2169,3.8442,1.6279,0.52046,-1.3824,-0.46181
1,-3.7265,3.55,1.5102,0.56291,-1.3198,0.069333
1,-3.4912,3.4519,1.2749,0.62766,-1.233,0.044288
1,-3.8246,3.3735,1.0983,0.72296,-1.1109,0.0012217
1,-3.6285,3.1185,0.94144,0.84299,-0.96395,-0.05681
1,-4.1188,3.0204,1.0003,0.95051,-0.80146,-0.14203
0.92618,-4.4522,3.3343,1.2749,1.0229,-0.63255,-0.25198
0.82462,-4.6091,3.903,1.6279,1.051,-0.46517,-1.2013
0.72198,-4.766,4.0207,1.726,1.0253,-0.29352,-1.2721
0.63071,-4.8837,4.06,1.6475,0.94379,-0.11912,-0.5681
0.54276,-5.1583,4.2953,1.8044,0.82589,0.059254,-0.67714
0.4606,-5.7075,4.3934,1.7456,0.68875,0.24587,-0.78954
0.39279,-5.7859,4.3149,1.726,0.54764,0.43952,-0.894
0.3295,-6.0213,4.2169,1.7456,0.38851,0.63805,-1.0018
0.27533,-6.7862,3.903,1.6475,0.18631,0.83933,-1.1051
0.2153,-7.0412,3.8246,1.7456,-2.8482,1.5892,-0.39309
0.17651,-7.61,3.8442,1.726,-2.6774,1.5229,-0.32467
0.15353,-8.1787,4.0011,1.9613,-2.4331,1.449,-0.6072
0.098938,-8.6495,3.9619,1.8044,-2.1478,1.3653,-0.50427
0.049316,-9.2771,4.158,1.6475,-1.8512,1.2752,-0.44074
0.0015564,-10.474,5.021,1.726,-1.5476,1.1805,-0.42089
-0.062195,-10.807,5.2368,1.9809,-1.226,1.0776,-0.43433
-0.11942,-10.591,5.2564,2.1575,-0.91019,0.97983,-0.43799
-0.19196,-10.63,5.2171,1.8829,-0.4835,0.8998,-0.12767
-0.27551,-11.062,5.3152,1.6475,-0.50763,0.82009,-0.053145
-0.31018,-10.493,5.7859,1.2749,-0.52779,0.73823,-0.28283
-0.36288,-9.2379,5.6486,1.0983,-0.51374,0.65607,-0.27122
-0.41357,-8.3945,5.5506,0.70608,-0.48839,0.56627,-0.27672
-0.44443,-8.0807,5.0798,0.64724,-0.46762,0.4722,-0.26848
-0.48181,-7.7473,4.8053,0.41188,-0.65607,0.38332,-0.23793
-0.5061,-7.8061,4.4522,0.54917,-0.51343,0.30574,-0.19303
-0.53726,-7.8845,4.7072,0.70608,-0.38271,0.24496,0.13042
-0.55521,-7.6688,5.021,0.078453,-0.35705,0.19609,0.13989
-0.57422,-7.4531,5.7859,-0.098066,-0.32406,0.146,-0.0039706
-0.57568,-6.8647,6.2763,0.31381,-0.27794,0.092546,0.032681
-0.58624,-6.3155,6.2174,0.33343,-0.22174,0.037568,0.062919
-0.59491,-5.8448,6.0997,0.33343,-0.17623,-0.020769,0.087354
-0.59326,-5.7663,6.0017,0.23536,-0.44471,-0.07758,0.10812
-0.58438,-5.2171,6.0997,0.05884,-0.41356,-0.12767,0.12187
-0.58212,-5.3937,6.2566,0.33343,-0.055589,-0.18173,0.25534
-0.5882,-5.7075,6.0997,0.41188,-0.015882,-0.2416,0.31001
-0.5817,-6.4135,6.0997,0.33343,0.032681,-0.29749,0.14478
-0.58231,-6.9627,6.1586,0.47072,0.090103,-0.35858,0.146
-0.57269,-6.9823,6.1586,0.47072,0.16829,-0.4273,0.15913
-0.57193,-7.1981,6.1782,0.5884,0.27184,-0.50366,0.17623
-0.56116,-7.4138,6.0213,0.68647,-0.13531,-0.58613,0.19242
-0.55188,-7.4531,5.8644,0.78453,-0.092546,-0.67256,0.21869
-0.54697,-7.5511,6.0213,0.84337,1.1435,-2.0598,1.1292
-0.51715,-8.218,5.8644,0.64724,1.0953,-2.0275,1.0318
-0.48215,-8.0218,5.6486,0.64724,1.0516,-1.9777,1.5702
-0.45648,-8.0611,5.4917,0.74531,1.0284,-1.9056,1.5134
-0.41721,-8.2768,5.2171,0.70608,1.0195,-1.8149,1.4624
-0.35849,-8.5318,5.2564,0.70608,0.99266,-1.7159,1.4013
-0.32022,-8.5318,5.374,0.84337,0.94134,-1.62,1.3161
-0.24945,-8.6102,5.6486,0.90221,0.87506,-1.5385,1.2239
-0.18451,-8.7475,5.9624,0.64724,0.81581,-1.4609,0.47678
-0.11755,-8.9241,6.3155,0.8826,0.76541,-1.3799,0.39187
-0.042511,-9.1398,6.1782,1.0199,0.71349,-1.3066,0.93829
0.024597,-9.2771,5.7467,1.1768,0.65485,-1.2468,0.85918
0.09314,-9.0613,5.2564,0.8826,0.58429,-1.1805,0.79321
0.14249,-8.8652,5.0995,0.41188,0.52137,-1.1066,0.70708
0.19974,-8.2964,5.3348,0.15691,0.48869,-1.0421,0.62003
0.2261,-8.1199,5.7075,0.43149,0.49114,-0.9841,0.54917
0.24149,-8.0218,5.5506,0.64724,0.51007,-0.9218,-0.1686
0.24701,-8.0218,5.3937,0.78453,0.53726,-0.85796,-0.26145
0.2244,-7.4138,5.276,0.25497,0.56047,-0.78221,0.30818
0.2157,-7.355,5.5506,0.15691,0.57177,-0.69272,0.23091
0.18903,-6.8647,5.5506,0.05884,0.56627,-0.60048,0.17104
0.16071,-6.6293,5.5702,0.15691,0.5339,-0.51191,0.11942
0.13654,-6.4135,5.531,0.05884,0.48411,-0.42058,0.036957
0.10269,-6.492,5.6486,0.019613,0.43097,-0.31979,-0.064446
0.070343,-6.2959,5.4721,-0.23536,1.1139,-2.2892,1.6921
0.035858,-6.3939,5.276,-0.37265,1.1567,-2.2984,1.6319
0.0014954,-6.1586,5.0995,-0.37265,1.2245,-2.2898,1.8149
-0.01825,-6.3351,5.2564,-0.54917,1.2914,-2.2565,1.7947
-0.043274,-6.4135,5.4721,-0.23536,1.3299,-2.2058,1.7895
-0.050995,-6.5508,5.3937,-0.039227,1.3192,-2.1548,1.7969
-0.06662,-6.1586,5.3937,-0.078453,1.266,-2.1163,1.7859
-0.077087,-6.3547,5.4721,0.078453,1.1997,-2.0876,1.7446
-0.089539,-6.1782,5.3937,-0.05884,0.041233,0.94623,-1.3094
-0.08374,-6.237,5.3348,-0.039227,0.24587,0.88148,-1.3097
-0.070709,-6.4135,5.3348,0.078453,0.51771,0.82742,-1.4682
-0.065765,-6.7862,5.4721,0.25497,0.83322,0.76938,-1.4499
-0.070892,-7.1196,5.4721,0.27459,1.1417,0.6918,-1.4288
-0.073547,-7.0412,5.4721,0.25497,1.4303,0.61942,-1.4123
-0.077789,-7.4138,5.3937,0.15691,-0.40561,0.56749,-1.3592
-0.080292,-7.4334,5.3937,0.23536,-0.17104,0.51954,-1.3155
-0.092072,-7.4531,5.276,0.11768,2.0873,0.46823,-1.2828
-0.10675,-7.5903,5.3348,0.25497,2.1893,0.43158,-1.252
-0.11191,-7.8649,5.4721,0.33343,2.2098,0.40073,-1.3317
-0.11188,-7.8061,5.7075,0.37265,2.1322,0.38362,-1.3732
-0.11783,-7.963,5.9036,0.47072,1.916,0.36744,-1.3717
-0.12125,-8.0807,5.7271,0.47072,1.5699,0.34056,-1.3375
-0.1257,-8.5122,5.7075,0.56879,1.6875,0.31796,-1.3066
-0.11774,-8.826,5.7859,0.52956,1.9099,0.30238,-1.2975
-0.10876,-9.0613,5.884,0.64724,0.051618,1.1695,-1.6942
-0.10867,-9.0025,5.5898,0.74531,-0.029932,1.1949,-1.6753
-0.10178,-9.0613,5.0995,0.8826,-0.14294,1.2162,-1.6878
-0.10626,-8.4337,4.4522,0.64724,-0.26237,1.2382,-1.6906
-0.11362,-8.3553,4.2953,0.72569,-0.37171,1.2581,-1.7052
-0.10629,-8.3553,4.158,0.54917,-0.46395,1.2752,-1.7208
-0.10532,-8.6102,3.8246,0.37265,-0.54978,1.2889,-1.7226
-0.095734,-8.2964,3.9815,0.25497,-0.62736,1.2956,-1.7153
-0.088379,-8.4337,4.2365,0.15691,-0.69547,1.2966,-1.5137
-0.10025,-8.9241,4.5307,0.25497,-0.76267,1.288,-1.4716
-0.11823,-8.6102,4.9033,0.15691,-0.84696,1.2624,-1.6573
-0.12564,-8.5122,5.7075,0.54917,-0.92241,1.2327,-1.6512
-0.14423,-8.218,6.5901,0.8826,-0.94318,1.2004,-1.6512
-0.15515,-8.1199,7.0019,1.1572,-0.89583,1.1542,-1.6338
-0.15973,-7.4923,6.8254,1.0003,-0.78527,1.0925,-1.6063
-0.18362,-7.1981,6.4135,0.54917,-0.61972,1.0174,-1.5718
-0.19736,-7.2569,6.0997,0.47072,1.0898,-1.7404,1.7672
-0.20859,-7.6492,5.884,0.23536,1.0742,-1.6796,1.6701
-0.1991,-7.3942,5.8055,0.17652,1.051,-1.6173,2.2724
-0.21744,-7.6688,5.884,0.37265,1.0146,-1.5565,2.2003
-0.23105,-7.7473,5.7859,0.56879,0.97128,-1.4954,2.127
-0.24463,-7.8845,5.6879,0.64724,0.92393,-1.4337,2.0504
-0.24533,-8.1199,5.3937,0.52956,0.87934,-1.3674,1.9642
-0.23975,-8.3749,5.0798,0.54917,0.84758,-1.2892,1.8692
-0.24377,-8.5514,5.1583,0.72569,0.832,-1.2052,0.90927
-0.23538,-8.6887,5.2564,0.84337,0.83505,-1.1252,0.78557
-0.21817,-8.6495,5.1583,0.94144,0.84941,-1.0455,1.5782
-0.20279,-8.8652,4.7856,0.96105,0.86101,-0.96364,1.481
-0.1868,-9.2967,4.9033,1.0199,0.85735,-0.87445,1.3696
-0.17908,-9.1594,5.1191,1.2749,0.83383,-0.78313,1.2541
-0.15225,-9.2379,5.3937,1.5887,0.79596,-0.69211,1.138
-0.11911,-9.4732,5.629,1.8829,0.74923,-0.60567,1.0253
-0.10236,-9.6497,5.7075,1.9025,0.4331,-1.339,2.3017
-0.08075,-9.689,5.374,1.5887,0.46792,-1.416,2.3555
-0.052734,-9.5909,5.0995,1.5691,0.47617,-1.5036,1.9893
-0.048981,-9.3163,5.3348,1.6671,0.49511,-1.5898,2.0895
-0.029877,-8.9633,5.4329,1.726,0.54,-1.6652,2.1667
-0.009491,-8.8652,5.5506,1.7848,0.59987,-1.7349,2.2046
-0.00094604,-8.3553,5.5506,1.5102,0.68173,-1.7966,2.2294
0.014923,-8.0218,5.3937,1.471,0.79077,-1.839,2.2611
0.032104,-8.1787,5.5506,1.6475,0.90439,-1.8647,2.3833
0.033813,-7.355,5.4721,1.471,1.0037,-1.8833,2.3369
0.035736,-7.2569,5.276,1.471,1.0776,-1.8931,2.4038
0.025787,-6.7077,5.021,1.118,1.1167,-1.8925,2.4309
0.020996,-6.6293,4.9033,1.118,1.1261,-1.8848,2.4358
0.03186,-6.3939,4.9426,0.96105,1.1261,-1.8665,2.4349
0.027832,-6.0801,4.9229,0.96105,1.1179,-1.8375,2.4288
0.029938,-5.7271,4.9229,0.86299,1.1038,-1.7935,2.4135
0.026245,-5.7859,5.021,0.8826,-2.2856,1.2761,-1.6304
0.041229,-5.7075,4.8445,0.74531,-2.2981,1.2691,-1.6353
0.072235,-5.7271,4.7464,0.64724,-2.2743,1.2569,-1.7376
0.085785,-5.4721,4.4522,0.41188,-2.2193,1.2437,-1.6982
0.084625,-5.7859,4.4718,0.37265,-2.1396,1.2272,-1.6609
0.073944,-5.4721,4.3934,0.15691,-2.0351,1.2034,-1.6368
0.070313,-5.8448,4.5307,0.15691,-2.149,1.1683,-1.624
0.04718,-5.884,4.5307,-0.098066,-2.2312,1.1261,-1.6222
0.025482,-6.237,4.3934,-0.15691,0.75533,0.96914,-2.5766
0.023041,-6.7862,4.5307,-0.15691,0.68081,0.9838,-2.5537
0.0011902,-7.355,4.766,-0.21575,0.58002,1.0095,-2.4764
0.0069885,-8.218,4.9426,-0.078453,0.42394,1.033,-2.5302
0.028839,-8.5122,5.2564,-0.078453,0.21319,1.0403,-2.5745
0.042358,-9.0613,5.0798,-0.23536,-0.029627,1.0437,-2.5861
0.060242,-9.3752,5.2564,0.019613,-0.2868,1.054,-2.5775
0.085358,-9.689,5.6486,0.11768,-0.54642,1.0669,-2.5785
0.10287,-9.7674,5.7271,0.15691,-0.79962,1.0733,-2.0559
0.12402,-9.7674,5.5702,0.25497,-1.0507,1.077,-1.9792
0.13071,-9.6301,5.3937,0.098066,-1.266,1.0919,-2.5128
0.12604,-9.4928,5.021,-0.098066,-1.4047,1.1127,-2.4493
0.13055,-9.6301,5.0995,0.019613,-1.5159,1.1255,-2.3708
0.12372,-9.4732,4.6287,-0.078453,-1.6524,1.1283,-2.295
0.11676,-9.2379,4.4522,-0.2942,-1.7691,1.1338,-2.2208
0.11487,-9.3752,3.9619,-0.52956,-1.8775,1.1402,-2.1444
0.11618,-9.3752,3.7658,-0.68647,-2.1258,1.1451,-1.7834
0.12079,-9.0613,3.8442,-0.52956,-2.105,1.153,-1.7657
0.11264,-8.5122,3.7658,-0.25497,-2.051,1.1668,-1.9199
0.10904,-8.5514,3.7069,-0.21575,-2.0064,1.19,-1.8665
0.090912,-7.9238,3.5108,-0.52956,-2.0104,1.2184,-1.8311
0.070923,-8.5122,3.5108,-0.78453,-2.0659,1.2483,-1.8195
0.062592,-8.3945,3.55,-1.0199,-1.9936,1.2712,-1.8161
0.04776,-8.3553,3.3735,-1.2945,-2.0873,1.2798,-1.8027
0.038452,-7.8845,3.5304,-1.5691,-0.13073,-0.25779,1.0513
0.010803,-7.9238,4.1384,-1.5102,-0.10537,-0.35125,1.1649
-0.0048828,-6.9627,4.9622,-1.0395,-0.06689,-0.4444,0.2306
-0.044586,-6.9627,5.5506,-0.86299,-0.0015272,-0.5342,0.36774
-0.082916,-6.5116,6.0017,-0.92183,0.091019,-0.62003,0.51129
-0.12573,-6.4135,6.0997,-0.98067,0.20525,-0.70066,0.65973
-0.17905,-6.7862,6.3547,-0.86299,0.33506,-0.7761,0.80054
-0.23257,-6.5116,6.3743,-1.0003,0.45968,-0.85002,0.93065
-0.28775,-6.6293,6.4135,-0.72569,0.57146,-0.92516,1.8402
-0.33237,-6.4135,6.3547,-0.86299,0.68111,-1.0006,1.9361
-0.37515,-6.4332,6.4135,-0.84337,0.78863,-1.0721,1.2761
-0.4278,-6.4135,6.6293,-0.60801,0.89644,-1.1402,1.3803
-0.4729,-6.5508,6.5116,-0.54917,1.0119,-1.2074,1.4786
-0.508,-6.6097,6.1586,-0.52956,1.131,-1.2703,1.5681
-0.53925,-7.0804,5.884,-0.47072,1.2474,-1.3335,1.653
-0.55829,-7.1196,5.7075,-0.2942,1.3641,-1.3983,1.7422
-0.54269,-7.4923,5.6879,-0.21575,1.489,-1.4597,2.7055
-0.5127,-7.7473,5.531,-0.37265,1.6191,-1.5189,2.8198
-0.47101,-8.4337,5.3937,-0.15691,1.748,-1.5757,2.0293
-0.41605,-8.6102,5.2171,-0.23536,1.8815,-1.6273,2.1246
-0.35211,-8.8456,5.1583,-0.25497,2.0085,-1.6793,2.2242
-0.27219,-9.179,4.8445,-0.2942,2.1133,-1.7278,2.3283
-0.1824,-9.9047,4.8445,-0.23536,2.2031,-1.7712,2.4462
-0.10547,-10.219,4.9426,-0.078453,2.2917,-1.817,2.5827
-0.023102,-10.395,4.8053,-0.098066,2.4288,-1.8827,3.2715
0.053894,-10.944,4.5307,0.05884,2.4868,-1.879,3.2663
0.1192,-10.866,5.1583,-0.039227,2.4034,-1.8176,2.9337
0.1839,-10.572,5.1191,0.15691,2.3033,-1.8103,3.021
0.22644,-10.689,5.4721,0.74531,2.1909,-1.803,3.1044
0.26083,-10.709,5.5506,1.0003,2.0287,-1.7678,3.1716
0.29599,-10.63,5.0995,0.64724,1.8008,-1.7269,3.2174
0.33435,-10.552,4.6287,0.5884,1.5159,-1.6887,3.2568
0.36377,-9.9439,4.1384,0.56879,0.15821,0.059865,-2.0198
0.3949,-9.4928,4.1384,0.72569,0.15638,0.1576,-2.229
0.4314,-9.4144,4.3149,0.72569,0.14386,0.25259,-0.69852
0.46295,-9.6301,4.2953,0.64724,0.13286,0.34117,-0.91416
0.48935,-8.9633,4.2953,0.84337,0.12278,0.42516,-1.1307
0.49091,-8.3945,4.2953,1.0199,0.11423,0.51129,-1.3537
0.51337,-7.6688,4.158,1.1768,0.10446,0.59682,-1.5788
0.5192,-7.4334,3.8442,1.118,0.096211,0.6747,-1.8005
0.51489,-6.7862,3.7658,0.78453,0.06353,0.74312,-3.5158
0.51447,-6.6489,3.197,0.64724,0.059254,0.8094,-3.685
0.52039,-6.4724,2.9616,0.64724,0.071166,0.87842,-2.4288
0.51746,-6.3547,3.0204,0.56879,0.1011,0.94745,-2.6185
0.50446,-6.2566,2.8635,0.41188,0.12095,1.0198,-2.7956
0.49371,-6.1782,2.5693,0.33343,0.10324,1.0907,-2.9642
0.47903,-6.139,2.6478,0.41188,0.092546,1.1753,-3.1356
0.46271,-6.1782,2.9616,0.54917,0.081245,1.2584,-3.3139
0.4498,-6.4724,3.1774,0.72569,-0.24526,1.3213,-4.1062
0.42749,-6.9235,3.2754,0.8826,-0.5058,1.3729,-4.0177
0.41119,-7.4531,3.3343,0.78453,-0.74892,1.4346,-3.817
0.40378,-7.8061,3.3735,0.72569,-1.0519,1.4985,-3.9071
0.39713,-7.9826,3.4519,0.86299,-1.2917,1.5467,-3.9792
0.38879,-8.5318,3.55,0.72569,-1.4902,1.5852,-4.0607
0.40372,-9.5517,3.8442,0.70608,0.039095,1.638,-4.0925
0.42484,-10.238,4.158,0.80415,-0.061392,1.6906,-4.0888
0.44757,-10.552,4.4522,0.84337,-1.6848,1.7013,-3.2205
0.49872,-10.944,5.2564,1.0199,-1.8308,1.722,-3.0381
0.59286,-11.846,5.6879,1.1768,-1.9688,1.7434,-2.8317
0.71829,-11.493,5.6486,1.0199,-2.2135,1.7181,-2.6029
0.85535,-12.043,5.1583,0.8826,-2.5439,1.6564,-3.8414
0.98807,-12.454,5.3152,1.0199,-2.8503,1.598,-3.6673
1,-12.454,6.1782,1.3337,-3.1191,1.551,-3.5229
1,-12.003,6.0605,0.8826,-3.342,1.5076,-3.3689
1,-11.572,5.9624,0.019613,0.5452,-0.37049,1.4856
1,-11.336,5.0995,-0.86299,0.52443,-0.48839,1.6524
1,-9.8066,4.5307,-0.70608,0.48655,-0.61484,0.24068
1,-9.0025,4.2953,-0.60801,0.45632,-0.74831,0.46181
1,-8.0415,4.2169,-0.62763,0.44043,-0.88331,0.68478
1,-7.7473,4.3149,-0.41188,0.44196,-1.0119,0.8995
1,-7.4334,4.5307,-0.15691,0.45968,-1.1353,1.106
1,-7.1196,4.6287,0.019613,0.49633,-1.2581,1.303
1,-6.6293,4.8445,-0.039227,0.55894,-1.3787,2.5494
1,-6.8058,5.3348,-0.078453,0.65424,-1.496,2.6909
1,-6.7274,5.7859,0.25497,0.79199,-1.6136,1.8042
1,-6.7666,5.8644,-0.05884,0.96486,-1.726,1.9398
1,-6.3351,5.7075,-0.078453,1.1536,-1.8195,2.0629
1,-6.6097,5.6879,0.078453,1.3494,-1.901,2.1857
1,-6.1586,5.7075,0.078453,1.5595,-1.9792,2.3075
1,-5.7859,5.7859,0.25497,1.7798,-2.0504,2.4224
1,-5.5702,6.1193,0.39227,2.0033,-2.1102,3.7761
1,-5.8448,6.3351,0.47072,2.2171,-2.1591,3.9679
1,-6.237,6.6685,0.86299,2.4093,-2.2126,2.8375
1,-6.7862,6.5312,0.96105,2.5833,-2.2706,2.9942
1,-7.2373,6.492,0.90221,2.718,-2.3265,3.1536
1,-7.9238,6.2174,0.54917,2.7993,-2.376,3.2813
1,-8.8456,5.9036,0.27459,2.8311,-2.3973,3.4105
1,-9.3163,5.6486,0.098066,2.8362,-2.3653,3.5907
1,-9.6301,5.4721,-0.039227,-0.43952,0.42913,-0.13164
1,-10.258,5.2564,0.05884,-0.28344,0.33781,0.039401
1,-10.434,4.9229,-0.039227,-0.10507,0.24435,-0.81673
1,-10.866,5.1583,0.078453,0.076664,0.15119,-0.75717
1,-11.493,5.2368,0.019613,0.23549,0.055894,-0.68203
1,-11.788,5.1779,0.019613,0.36805,-0.037568,-0.58643
1,-12.101,5.2564,-0.2942,0.46792,-0.13744,-0.46304
1,-11.984,5.7075,-0.52956,0.52595,-0.25045,-0.3036
1,-12.925,6.4724,0.098066,-0.36744,0.551,-4.2064
1,-13.533,6.4724,0.52956,-0.3653,0.63744,-4.4673
1,-13.71,5.884,0.47072,-0.35186,0.72601,-2.5455
1,-12.886,4.7464,0.21575,-0.3262,0.81734,-2.8149
1,-11.905,3.9815,0.11768,-0.28497,0.91385,-3.091
1,-10.081,3.4912,-0.078453,-0.2361,1.0171,-3.3759
1,-8.8456,3.3735,0,-0.3543,1.1237,-3.6606
1,-8.4533,3.1774,0.25497,-0.36255,1.2294,-3.9346
1,-8.1984,3.1381,0.25497,-0.067806,1.3341,-5.1646
1,-8.0611,3.1774,0.098066,-0.011301,1.438,-5.1013
1,-7.8061,3.2754,0.25497,0.015577,1.5412,-4.7015
1,-7.1196,3.4519,0.54917,-0.030543,1.6344,-4.9043
1,-6.5705,3.5304,0.72569,-0.15088,1.7113,-5.0659
1,-5.9232,3.3735,0.72569,-0.35339,1.7703,-5.1832
1,-5.531,3.1381,0.68647,-0.18265,1.7941,-5.2449
1,-5.1975,3.2166,0.72569,-0.12828,1.7868,-5.2324
1,-4.9229,3.1185,0.78453,0.75259,-0.86987,-0.40287
1,-4.766,3.0401,0.86299,0.60598,-0.75869,-0.58399
1,-5.0602,2.9812,0.8826,0.4609,-0.64294,1.0052
1,-5.4133,2.9812,0.80415,0.31673,-0.5287,0.73334
1,-5.8448,3.2166,0.64724,0.17959,-0.42333,0.47525
1,-6.3351,3.3931,0.56879,0.051313,-0.32376,0.23579
1,-7.1,3.4519,0.52956,-0.07758,-0.22541,0.0076358
1,-8.1787,3.6873,0.49033,-0.19456,-0.13531,-0.20678
0.99088,-8.9241,3.903,0.33343,-0.28314,-0.05284,-2.0369
0.96158,-10.179,4.2757,0.15691,-0.33781,0.026878,-2.2862
0.94321,-11.513,4.5307,-0.078453,-0.36469,0.10507,-0.75931
0.94281,-13.219,5.021,-0.21575,-0.37263,0.17715,-0.93737
0.94638,-13.553,5.531,-0.23536,-0.36744,0.24709,-1.1267
0.94678,-14.298,6.0213,0.41188,-0.35766,0.31796,-1.3332
0.95941,-13.769,6.5116,0.92183,-0.3543,0.39279,-1.5553
0.992,-13.553,7.2765,1.0199,-0.35064,0.47098,-1.7929
1,-12.474,7.61,0.68647,0.22938,-1.1206,1.9117
1,-12.141,7.0019,0.17652,0.35491,-1.2028,1.9936
1,-11.023,5.884,-0.37265,0.47709,-1.27,1.171
1,-11.121,4.9229,-0.78453,0.57544,-1.3323,1.3167
1,-10.787,4.6091,-0.41188,0.63866,-1.4022,1.4511
1,-10.591,4.3149,-0.05884,0.66981,-1.4768,1.5788
1,-10.258,4.2365,0.27459,0.686,-1.5498,1.7
0.98886,-9.7674,4.2169,0.62763,0.70983,-1.6218,1.8149
0.92471,-9.179,4.2169,1.0199,-1.6759,1.2697,-0.82436
0.81912,-8.3553,4.3934,0.90221,-1.6909,1.2175,-0.8262
0.73648,-7.355,4.5307,0.78453,-1.6872,1.1515,-0.6295
0.6557,-6.6097,4.8445,0.72569,-1.6325,1.0791,-0.70158
0.60516,-5.8448,4.7072,0.56879,-1.4975,1.004,-0.75106
0.55188,-5.2956,4.2757,0.33343,-1.2691,0.93187,-0.78069
0.51797,-5.1583,3.903,0.019613,-0.95906,0.85949,-0.79901
0.48898,-5.2956,4.0796,-0.13729,-0.59804,0.77946,-0.81337
0.46954,-5.374,4.5307,0.019613,-0.22083,0.69058,-0.4777
0.44415,-5.7271,5.1779,0.27459,0.12248,0.59529,-0.38637
0.41772,-6.6489,5.8055,0.33343,0.40592,0.49877,-0.82467
0.39426,-7.2961,6.4135,0.25497,0.6182,0.39279,-0.81123
0.38367,-7.2569,6.747,-0.098066,0.7422,0.27672,-0.77305
0.38004,-6.7862,6.9431,-0.54917,0.78649,0.15302,-0.71563
0.37079,-6.3939,6.6489,-0.86299,0.76694,0.021075,-0.64232
0.35611,-6.1586,6.0997,-0.68647,0.70555,-0.11393,-0.56139
0.34311,-6.4135,5.7467,-0.52956,0.62247,-0.25168,0.80604
0.31909,-6.8058,5.7859,-0.52956,0.50274,-0.38362,1.0012
0.30771,-7.4923,6.0017,-0.45111,0.36377,-0.50244,-0.27581
0.31534,-8.8064,6.0997,-0.25497,0.23305,-0.61789,-0.12859
0.33167,-9.2379,5.884,-0.37265,0.12889,-0.74067,0.047647
0.39014,-9.689,5.5898,-0.31381,0.065973,-0.85765,0.22846
0.43671,-10.709,5.2564,-0.37265,0.064141,-0.95723,0.41325
0.48978,-10.689,5.021,-0.39227,0.12431,-1.0394,0.60628
0.55524,-10.944,4.9622,-0.35304,-0.37782,0.71868,-4.4379
0.61636,-11.042,5.0995,-0.21575,-0.2981,0.83414,-4.6423
0.68073,-10.866,5.021,-0.23536,-0.18265,0.95295,-2.9749
0.73642,-10.807,4.9033,-0.35304,-0.11209,1.0757,-3.2321
0.7814,-10.728,5.0995,-0.62763,-0.10049,1.2037,-3.5
0.80603,-10.905,5.5506,-0.23536,-0.13134,1.3344,-3.7504
0.82126,-11.415,5.6486,0.098066,-0.18876,1.4609,-3.9902
0.82126,-12.199,5.4917,0.33343,-0.27122,1.5748,-4.2217
0.82532,-12.278,4.9033,0.31381,0.9502,-1.5507,1.3467
0.81555,-11.846,4.1972,0.078453,0.79474,-1.4875,1.0046
0.80975,-10.807,3.805,0.019613,0.65424,-1.4166,2.7245
0.79288,-9.434,3.6677,0.019613,0.52534,-1.3451,2.6368
0.76694,-8.5122,3.805,0.25497,0.3937,-1.2813,2.4884
0.73331,-7.4923,3.5892,0.47072,0.36255,-1.1671,2.2724
0.69705,-6.6293,3.4912,0.70608,0.45815,-1.0128,2.011
0.66284,-6.7862,3.2362,0.70608,0.54856,-0.87904,1.7006
0.62497,-7.5119,3.0597,0.56879,0.50305,-0.76419,-1.0519
0.60065,-7.8845,2.6086,0.25497,0.30238,-0.64294,-1.2028
0.57364,-7.963,2.6478,0.41188,0.036041,-0.53726,0.65485
0.55429,-7.3942,3.3735,0.70608,-0.25565,-0.44838,0.28405
0.54095,-6.6097,4.0796,1.1768,-0.52076,-0.36285,-0.069639
0.51657,-5.7075,4.1188,1.2749,-0.73395,-0.28069,-0.38576
0.49664,-4.8837,3.4519,0.94144,0.59407,-0.20128,-0.65699
0.47925,-4.7464,3.3539,0.70608,0.59773,-0.12431,-0.87659
0.44666,-4.8837,3.1381,0.43149,-1.0162,-0.048869,-2.4798
0.409,-5.374,3.0793,0.41188,-0.98869,0.030543,-2.7287
0.35718,-5.8644,2.8832,0.15691,-0.905,0.11393,-1.3442
0.31296,-6.8647,3.4323,0.17652,-0.77458,0.19823,-1.4988
0.27158,-8.3553,3.7658,0.15691,-0.62186,0.28619,-1.6671
0.25085,-9.3359,4.2953,0.25497,-0.47006,0.38057,-1.843
0.24255,-10.238,4.7464,0.25497,-0.89186,0.48564,-2.0372
0.24899,-11.199,5.1191,0.23536,-0.98533,0.60018,-2.2483
0.28638,-12.199,5.3937,0.33343,-2.5629,1.4334,-0.43066
0.34637,-13.376,5.6486,0.41188,-2.4761,1.3851,-0.478
0.44049,-13.376,5.9036,0.54917,-2.3714,1.3372,-0.48564
0.50909,-13.396,6.0213,0.72569,-2.2156,1.2889,-0.42394
0.54526,-12.984,6.0213,0.68647,-2.003,1.2413,-0.37782
0.56793,-12.258,6.4332,0.86299,-1.7517,1.1884,-0.34789
0.57837,-11.121,6.2566,0.54917,-1.4749,1.1322,-0.35094
0.57776,-11.003,5.884,0.23536,-1.2016,1.0708,-0.38423
0.55637,-11.631,5.276,-0.098066,-0.94195,1.0037,-0.76205
0.52338,-11.788,4.9229,0.25497,-0.71044,0.93401,-0.80451
0.49042,-11.062,4.6287,0.64724,-0.51832,0.86407,-0.51649
0.44086,-10.179,4.4522,0.54917,-0.36438,0.79077,-0.54703
0.37454,-9.1594,4.4522,0.72569,-0.23457,0.71227,-0.57177
0.32724,-7.8845,4.3149,0.80415,-0.11973,0.63041,-0.60048
0.30356,-7.0412,4.1776,0.41188,-0.013439,0.54306,-0.64599
0.2793,-6.7666,3.903,0.11768,0.077885,0.45112,-0.70524
0.26874,-6.4724,3.8638,0.25497,0.14997,0.35705,-0.24832
0.25656,-5.7663,4.06,0.39227,0.21197,0.2584,-0.059559
0.2514,-5.0798,4.2169,0.39227,0.27245,0.15333,-0.82161
0.22797,-5.1583,4.4718,0.25497,0.33781,0.036652,-0.80787
0.20346,-5.9232,4.9622,0.25497,0.40348,-0.08827,-0.76083
0.16998,-6.3939,5.2564,0.098066,0.45845,-0.21044,-0.6802
0.14514,-6.4724,5.7075,-0.039227,0.49847,-0.32376,-0.56688
0.13333,-6.5508,5.884,-0.23536,0.52046,-0.43066,-0.42211
0.13766,-6.1782,6.0213,-0.39227,0.53512,-0.53878,1.0275
0.15112,-5.8252,6.0409,-0.66685,0.54092,-0.64294,1.1484
0.16754,-5.5506,6.0017,-0.47072,0.55131,-0.73701,0.12431
0.17865,-5.7859,5.884,-0.098066,0.57544,-0.82833,0.29932
0.18887,-6.3351,5.8644,0.019613,0.61209,-0.91569,0.46731
0.19574,-7.1,5.884,-0.50995,0.66401,-0.99693,0.62827
0.2392,-7.4923,5.5506,-1.0003,0.74617,-1.0693,0.77427
0.2886,-7.6688,5.6486,-0.78453,0.84025,-1.1506,0.90225
0.34,-8.3553,5.4721,-0.60801,0.86407,-1.3882,2.5736
0.39728,-8.8456,5.1583,-0.60801,0.74006,-1.3289,2.3512
0.47421,-9.434,5.276,-0.78453,0.6185,-1.2709,3.3726
0.5358,-9.4732,5.2564,-1.0199,0.50946,-1.215,3.3219
0.58261,-9.8655,5.0995,-0.94144,0.43982,-1.1551,3.2296
0.61972,-9.6497,4.9229,-1.0199,0.40775,-1.0925,3.1084
0.65189,-9.7674,4.9229,-0.92183,0.39798,-1.0278,2.9581
0.68704,-10.101,4.7856,-0.78453,0.39981,-0.96242,2.7782
0.69177,-10.552,4.7856,-0.78453,0.41508,-0.89431,0.59529
0.70441,-11.493,4.6484,-0.72569,0.40287,-0.82222,0.35919
0.71729,-12.101,4.6287,-0.92183,0.37415,-0.74678,2.1188
0.72549,-11.944,4.766,-0.92183,0.33964,-0.67104,1.8708
0.72327,-11.572,5.0602,-0.50995,0.29077,-0.59223,1.609
0.72861,-10.689,4.8445,-0.15691,0.21655,-0.51435,1.3482
0.72995,-9.9439,4.4914,-0.25497,0.40745,-0.44654,1.091
0.70932,-9.2379,4.2953,-0.039227,0.41172,-0.39065,0.83963
0.68524,-8.8064,4.0207,0.019613,-0.12401,-0.33689,-0.99785
0.65817,-8.7475,3.903,0.25497,-0.20953,-0.28497,-1.1964
0.61911,-8.9241,3.7069,0.33343,-0.26481,-0.23335,0.13378
0.58554,-8.8456,3.4519,0.33343,-0.28924,-0.18448,-0.075442
0.55954,-8.3553,3.197,0.27459,-0.28253,-0.13592,-0.26664
0.53671,-7.8845,3.2754,0.54917,-0.25595,-0.087659,-0.44685
0.51584,-7.4334,3.197,0.54917,0.11332,-0.041844,-0.62614
0.50702,-6.9823,3.2166,0.68647,-0.0094684,0.0042761,-0.80756
0.48599,-6.4724,3.197,0.78453,1.9099,-1.6875,3.3821
0.45767,-5.9232,3.3735,0.90221,1.7361,-1.6878,3.3918
0.43372,-5.6094,3.3735,0.72569,1.5907,-1.653,3.2614
0.4028,-5.2956,2.8635,0.5884,1.4658,-1.605,3.3063
0.39331,-5.4525,3.0401,0.5884,1.3424,-1.5678,3.3314
0.37582,-5.7075,3.0401,0.54917,1.2275,-1.5336,3.3463
0.3671,-6.0017,3.197,0.41188,1.1044,-1.4954,3.3524
0.36746,-6.5116,3.3735,0.43149,0.98288,-1.4471,3.3622
0.37253,-7.0412,3.4912,0.23536,-1.9239,1.2373,-0.7816
0.38434,-8.1787,3.6677,0.11768,-1.5308,1.2217,-0.85552
0.41174,-8.3945,4.1188,-0.05884,-1.1698,1.1949,-0.44715
0.43329,-9.3752,4.4522,-0.23536,-0.85582,1.1637,-0.45907
0.45447,-10.493,4.8445,-0.15691,-0.58857,1.1267,-0.49327
0.47714,-10.807,5.1191,-0.25497,-0.37232,1.084,-0.54184
0.49448,-11.474,5.5506,0.05884,-0.22235,1.0379,-0.6127
0.51663,-11.67,5.7467,0.25497,-0.14355,0.98594,-0.69822
0.52921,-11.984,6.0997,0.37265,-0.12248,0.92913,-0.93279
0.55957,-11.827,6.4724,0.41188,-0.14264,0.86407,-0.85827
0.57458,-11.748,6.5312,0.47072,-0.17501,0.79504,-0.92057
0.58459,-11.591,6.3547,0.47072,-0.20403,0.72021,-0.97494
0.57462,-11.886,6.1978,0.21575,-0.22419,0.63835,-1.0091
0.56888,-11.572,5.8055,0.15691,-0.22755,0.54703,-1.0211
0.5694,-11.533,5.2564,0.11768,-0.21472,0.45051,-1.0113
0.57608,-10.552,4.7072,-0.15691,-0.19578,0.34178,-0.98288
0.58344,-9.179,4.4522,0.019613,-0.18021,0.21686,-0.14844
0.57996,-8.218,4.0207,0.05884,-0.1631,0.091019,0.029016
0.5712,-7.355,3.6088,-0.15691,-0.12492,-0.039401,0.20189
0.54181,-6.7862,3.3735,0,-0.063835,-0.16952,0.36408
0.49738,-6.4135,3.4912,0.27459,0.020464,-0.2923,-0.75961
0.45554,-6.1782,4.0796,0.37265,0.12095,-0.40745,-0.63316
0.39114,-5.884,4.5307,0.21575,0.2364,-0.51313,-0.48564
0.33755,-5.9232,4.9622,0.39227,0.37049,-0.613,-0.32193
0.28186,-6.139,5.1583,0.41188,-4.1429,1.5259,-0.52718
0.2348,-6.5705,5.276,0.31381,-3.992,1.4789,-0.46548
0.1965,-7.1,5.5506,0.15691,-3.8011,1.4328,-1.3955
0.17639,-7.1785,5.7859,-0.039227,-3.594,1.3894,-1.2065
0.16928,-7.1,6.0017,-0.039227,-3.3555,1.3525,-1.0409
0.17218,-6.6293,5.9624,-0.37265,-3.0586,1.3231,-0.88942
0.18536,-6.237,5.7859,-0.70608,-2.7061,1.2889,-0.74923
0.18127,-6.0997,5.6879,-0.86299,-2.3198,1.2562,-0.62644
0.1889,-6.0017,5.531,-0.8826,0.39156,-1.2898,2.6142
0.19586,-6.3155,5.6486,-0.60801,0.26389,-1.2507,2.4358
0.20306,-6.6489,5.5702,-0.60801,0.17013,-1.2052,3.1991
0.21942,-7.2961,5.7075,-0.86299,0.10599,-1.1698,3.1566
0.22681,-7.2569,5.5898,-1.0983,0.067806,-1.142,3.0937
0.24371,-7.5511,5.3937,-1.1376,0.057421,-1.1121,3.0082
0.25226,-7.8061,5.1583,-0.92183,0.71868,-1.0763,2.9059
0.26678,-8.218,4.9622,-0.92183,0.54367,-1.0372,2.7697
0.28262,-8.6102,5.0798,-0.78453,0.10965,-0.99266,1.0855
0.30722,-8.9829,5.0995,-0.72569,0.11729,-0.94348,0.86499
0.33578,-9.0613,4.9229,-0.70608,0.10873,-0.89522,2.2471
0.37573,-9.0025,4.9229,-0.70608,0.095295,-0.84299,2.0537
0.4072,-9.2183,4.7856,-0.70608,0.097433,-0.78374,1.8625
0.44452,-9.4928,4.8445,-0.56879,0.11332,-0.7196,1.6698
0.4783,-10.062,4.7072,-0.52956,0.067195,-0.65027,1.4786
0.49564,-10.63,4.6287,-0.52956,0.088881,-0.57513,1.2886
0.52808,-11.219,4.5307,-0.47072,2.0253,-1.5647,3.0336
0.56979,-11.336,4.8053,-0.47072,2.0565,-1.5757,3.1121
0.59567,-11.493,5.0995,-0.078453,2.0937,-1.5922,2.441
0.62378,-10.807,5.1583,0,2.1386,-1.6084,2.543
0.62845,-10.003,4.9229,0.05884,2.1802,-1.6188,2.6435
0.63818,-9.179,4.6287,0.05884,2.2006,-1.6203,2.74
0.62683,-8.9241,4.5895,0.37265,2.1848,-1.616,2.8366
0.6001,-8.6887,4.4326,0.52956,2.1194,-1.6118,2.9352
0.57565,-8.9241,3.9815,0.43149,1.6716,-1.6084,3.2348
0.53793,-9.1594,3.7658,0.47072,1.5128,-1.6023,3.2248
0.51248,-8.9241,3.7069,0.37265,1.3671,-1.5831,3.1744
0.47748,-8.2964,3.5108,0.41188,1.2236,-1.5513,3.2141
0.46533,-7.5119,3.295,0.52956,1.0653,-1.5098,3.2321
0.45947,-6.9627,3.3735,0.64724,0.89522,-1.4563,3.237
0.45081,-6.7862,3.197,0.54917,2,-1.3934,3.2354
0.44928,-6.4528,3.2362,0.5884,1.8405,-1.335,3.2348
0.43243,-6.4724,3.4519,0.70608,-2.5168,1.2865,-0.51771
0.42996,-6.1782,3.5108,0.70608,-2.3317,1.2449,-0.58277
0.42593,-5.8252,3.6677,0.90221,-2.1127,1.2055,-0.61484
0.41684,-5.531,3.6481,0.70608,-1.8549,1.1652,-0.54703
0.40036,-5.7271,3.6873,0.52956,-1.5666,1.1286,-0.49847
0.384,-5.9232,3.7658,0.37265,-1.2822,1.0953,-0.46792
0.36191,-6.0997,3.7658,0.21575,-1.0452,1.0623,-0.45632
0.34421,-6.6293,3.9619,0.078453,-0.87323,1.0278,-0.47495
0.3226,-7.1196,3.9815,0.078453,-0.03543,1.573,-3.8643
0.3071,-8.0415,4.158,-0.039227,-0.1011,1.6396,-3.7269
0.30215,-8.9044,4.3345,-0.098066,-0.22449,1.7034,-4.0296
0.29279,-10.277,4.7464,-0.098066,-0.41447,1.7572,-4.0983
0.289,-10.866,4.8445,-0.19613,-0.6634,1.7862,-4.1276
0.29507,-11.395,5.276,-0.05884,-0.96517,1.7886,-4.113
0.29626,-11.67,5.7859,0.078453,-1.2984,1.7779,-4.0711
0.32794,-11.886,6.1586,0.31381,-1.6338,1.7669,-3.9886
0.36353,-11.474,6.2763,0.54917,-1.974,1.7565,-2.0772
0.40457,-11.356,6.4135,0.54917,-2.3109,1.7404,-1.8641
0.42111,-11.435,6.0605,0.39227,-2.6231,1.7092,-3.5565
0.44159,-11.474,5.6486,0.41188,-2.8866,1.6729,-3.3393
0.45068,-11.415,5.3937,0.25497,-3.0864,1.6362,-3.0809
0.44397,-10.944,4.9622,0.05884,-3.2403,1.6014,-2.8051
0.42389,-9.7674,4.6287,0.25497,-3.3475,1.5693,-2.5436
0.39017,-8.7083,4.4326,0.25497,-3.3952,1.5314,-2.3024
0.35303,-7.8845,4.4914,0.25497,-3.379,1.4859,-0.81489
0.31393,-7.5707,4.3345,0.11768,-3.3063,1.4383,-0.70433
0.26578,-7.1392,4.0011,0.23536,-3.1994,1.4029,-1.6756
0.24265,-7.1196,3.8246,0.098066,-3.0885,1.3775,-1.5076
0.22165,-6.9627,3.8442,-0.078453,-2.981,1.3592,-1.3482
0.18546,-6.6293,4.3149,-0.078453,-2.8756,1.3552,-1.1976
0.1459,-6.237,4.8445,0.05884,-2.7742,1.3503,-1.0638
0.12552,-6.3351,5.1583,0.23536,-2.6625,1.3265,-0.93829
0.10498,-6.6489,5.1583,0.17652,0.69914,-0.91721,1.2944
0.098022,-6.8254,4.9229,-0.2942,0.73945,-0.98258,1.3613
0.096375,-6.6489,4.8053,-0.60801,0.79657,-1.0446,0.90652
0.092712,-6.6097,5.021,-0.52956,0.86987,-1.1026,0.98716
0.077087,-6.4135,5.4329,-0.66685,0.95784,-1.157,1.0547
0.065033,-6.2959,5.7859,-0.52956,1.0522,-1.2068,1.1157
0.046082,-5.9821,6.0017,-0.68647,1.1518,-1.2556,1.175
0.053497,-6.2959,6.0605,-0.60801,1.2559,-1.3036,1.2339
0.038177,-6.4135,5.9624,-0.72569,1.3696,-1.3531,2.0742
0.024658,-6.7862,6.0017,-0.78453,1.5009,-1.3958,2.1961
0.023193,-7.0412,5.884,-0.52956,1.6386,-1.4346,1.4328
0.021515,-7.1785,5.6486,-0.52956,1.77,-1.4676,1.5146
0.021576,-7.61,5.374,-0.56879,1.8833,-1.4972,1.6084
0.019257,-7.9042,5.2171,-0.52956,1.9676,-1.5302,1.7135
0.035187,-8.3553,5.2171,-0.41188,2.0195,-1.5626,1.8305
0.066589,-8.3553,5.0798,-0.54917,2.054,-1.5922,1.9532
0.097504,-8.4337,4.8053,-0.54917,2.1845,-1.6283,3.0033
0.12265,-8.5318,4.8445,-0.47072,2.273,-1.6664,3.1035
0.1601,-8.6887,4.9622,-0.56879,2.3894,-1.6976,2.3152
0.20691,-8.9829,5.0995,-0.41188,2.5116,-1.7281,2.4303
0.24911,-9.2967,4.9229,-0.37265,2.6139,-1.7578,2.5446
0.28333,-9.7674,4.7856,-0.52956,2.6695,-1.7712,2.6631
0.32733,-10.532,4.5503,-0.54917,2.084,-1.766,2.7782
0.3663,-11.18,4.5307,-0.60801,2.124,-1.752,2.8906
0.38843,-11.474,4.9033,-0.54917,2.4383,-1.7367,3.5082
0.41473,-11.356,5.2368,-0.078453,2.259,-1.7132,3.5296
0.43655,-11.042,5.2564,0.33343,2.0708,-1.693,3.1854
0.45206,-10.591,5.0995,0.33343,1.8827,-1.6799,3.2718
0.46069,-10.081,4.6287,0.078453,1.715,-1.6695,3.3616
0.46295,-9.5909,4.3149,0.33343,1.5653,-1.6469,3.4303
0.45374,-9.3752,4.3149,0.72569,2.6683,-1.5989,3.4725
0.43134,-9.0613,4.2757,0.90221,2.5892,-1.5348,3.4926
0.41217,-9.0025,3.9227,0.8826,-0.043066,0.60689,-3.955
0.40942,-9.2379,3.5108,0.56879,-0.015272,0.7813,-4.1487
0.40088,-8.3553,3.1774,0.62763,-0.022602,0.99266,-2.6701
0.38535,-7.8649,3.0401,0.64724,-0.087048,1.2306,-2.8873
0.39139,-7.5903,2.8832,0.72569,-0.23854,1.4432,-3.109
0.37762,-7.1196,2.7459,0.68647,-0.49999,1.6063,-3.3378
0.37,-6.9627,2.9616,0.72569,-0.83017,1.744,-3.554
0.36826,-6.6293,3.1381,0.70608,-1.1887,1.8515,-3.7532
0.366,-5.9821,3.3343,0.72569,-1.58,1.9196,-4.284
0.35773,-5.5506,3.3343,0.64724,-1.9416,1.9875,-4.1481
0.34348,-5.2956,3.197,0.41188,-2.2306,2.0485,-4.2907
0.3432,-5.4133,3.197,0.25497,-2.4569,2.0959,-4.3952
0.32135,-5.8448,3.197,0.21575,-2.6218,2.1478,-4.4642
0.30774,-6.0801,3.3539,-0.078453,-2.7474,2.1823,-4.4822
0.27527,-7.2569,3.6677,-0.39227,-2.8249,2.1939,-4.4712
0.25281,-7.5903,4.1188,-0.92183,-2.8689,2.1927,-4.3921
0.24268,-8.7475,4.6287,-0.70608,-2.8888,2.1722,-2.2086
0.21509,-9.5909,5.0995,0.41188,-2.8753,2.1393,-1.9389
0.19995,-10.277,5.3152,1.216,-2.8207,2.1145,-3.9502
0.18781,-10.866,5.5506,1.0003,-2.7492,2.084,-3.7028
0.18298,-11.356,5.4329,0.25497,-2.6826,2.0284,-3.4068
0.18802,-11.65,5.531,-0.45111,-2.6518,1.9615,-3.0861
0.21716,-12.278,5.2171,-0.54917,-2.6707,1.8894,-2.773
0.2514,-11.827,5.021,-0.15691,-2.7333,1.8158,-2.4823
0.28445,-11.827,4.766,0.15691,-2.77,1.7413,-0.50916
0.31104,-12.043,4.9229,0.37265,-2.8595,1.6582,-0.37232
0.32086,-12.454,5.531,0.90221,-2.9673,1.5766,-1.675
0.3208,-11.984,5.7467,0.8826,-3.0638,1.5088,-1.4358
0.315,-11.18,5.6486,0.5884,-3.1176,1.4554,-1.2214
0.30765,-9.7674,5.3348,0.54917,-3.1026,1.4218,-1.029
0.29907,-8.6495,4.6287,0.019613,-3.0262,1.4035,-0.85338
0.28293,-7.8649,4.158,-0.15691,-2.9123,1.3909,-0.67867
0.26352,-7.2569,3.9619,0.078453,1.065,-1.1561,1.3051
0.24307,-6.8843,3.8442,0.25497,1.1051,-1.204,1.3644
0.23401,-6.6489,3.6873,0.41188,1.146,-1.2547,0.91874
0.20071,-6.7077,3.903,0.31381,1.1802,-1.3048,1.015
0.1792,-5.8252,4.0207,0.31381,1.2086,-1.3497,1.0938
0.13531,-5.8448,4.4914,0.41188,1.2471,-1.3961,1.157
0.11313,-5.8448,4.7856,0.41188,1.2987,-1.4459,1.2077
0.098999,-6.3547,4.9229,0.33343,1.3659,-1.4917,1.2541
0.073395,-7.0216,4.9426,0.25497,1.7071,-1.5345,2.1057
0.06427,-7.0216,5.2564,0.05884,1.8589,-1.5794,2.2462
0.056854,-7.0412,5.6486,0.078453,2.0091,-1.6167,1.4355
0.044128,-6.6293,5.7859,-0.078453,2.1533,-1.6481,1.5204
0.034393,-6.237,5.6486,-0.47072,2.2892,-1.6799,1.6157
0.02713,-6.0017,5.4917,-0.56879,2.4242,-1.7135,1.7242
0.01532,-5.8644,5.3937,-0.52956,1.4557,-1.7455,1.8488
0.0020142,-6.6293,5.6879,-0.66685,1.5696,-1.7712,1.9786
-0.0024719,-6.7862,5.629,-0.70608,2.7822,-1.7947,3.3637
-0.0046082,-7.1785,5.5506,-0.60801,2.7981,-1.8112,3.4373
-0.0021057,-7.4334,5.3937,-0.70608,2.7211,-1.8137,2.4022
0.0058289,-8.0415,5.276,-0.54917,2.5662,-1.795,2.572
0.018311,-8.5122,5.2564,-0.52956,2.3341,-1.762,2.7501
0.030731,-8.8064,5.0995,-0.68647,2.0528,-1.7385,2.9334
0.058075,-8.8652,4.9622,-0.70608,2.5638,-1.7257,3.1124
0.10645,-9.3359,4.8445,-0.56879,2.6884,-1.7187,3.2568
0.15207,-9.2967,4.8445,-0.56879,0.52351,-0.61025,0.70891
0.20663,-9.2967,4.8445,-0.54917,0.59437,-0.69883,0.81245
0.25992,-9.434,4.7856,-0.70608,0.66371,-0.77,0.036346
0.31665,-9.8066,4.7072,-0.70608,0.7419,-0.83658,0.16585
0.35764,-10.493,5.1583,-0.66685,0.83078,-0.90164,0.28833
0.4075,-11.317,5.629,-0.47072,0.91019,-0.97066,0.40561
0.46106,-11.846,5.7271,-0.078453,0.97372,-1.0409,0.51221
0.51151,-11.964,5.2564,0.019613,1.0241,-1.1023,0.61178
0.5419,-11.572,4.4718,-0.19613,-0.90286,0.9279,-3.8414
0.57086,-11.062,3.8442,-0.70608,-0.83383,1.0049,-3.9401
0.60559,-9.9439,3.903,-0.078453,-0.7254,1.1029,-2.8488
0.60321,-9.2771,4.0796,0.47072,-0.57024,1.222,-3.0333
0.60248,-8.9633,3.9815,0.54917,-0.41539,1.3463,-3.2125
0.59137,-9.179,3.7658,0.47072,-0.28588,1.4679,-3.3995
0.58194,-8.6102,3.55,0.27459,-0.18265,1.5876,-3.5653
0.55853,-8.2376,3.4519,0.41188,-0.11698,1.6948,-3.715
0.54367,-7.5903,3.2754,0.41188,-0.13958,1.7712,-3.7333
0.52887,-7.0412,3.197,0.56879,-0.25107,1.8314,-3.5183
0.51096,-6.4135,3.1381,0.52956,-0.40928,1.8937,-4.0079
0.4968,-6.2959,3.2754,0.43149,-0.67073,1.9138,-4.0326
0.48254,-5.7271,3.197,0.33343,-1.0082,1.8995,-4.0558
0.47571,-6.0017,3.4519,0.5884,-1.3271,1.9001,-4.032
0.45731,-5.9232,3.5892,0.74531,-1.6444,1.8986,-3.9566
0.42783,-5.9821,3.7461,0.84337,-2.0049,1.8546,-3.8692
0.42542,-5.8448,3.805,0.74531,0.25259,-0.47739,-0.87629
0.40482,-6.3155,3.7658,0.64724,0.2474,-0.32865,-1.0999
0.3941,-6.1586,3.7658,0.47072,0.19181,-0.19853,0.64904
0.37204,-6.6293,4.0011,0.43149,0.09499,-0.086437,0.36866
0.36063,-7.1392,4.0207,0.43149,-0.021075,0.020464,0.10415
0.36835,-7.8061,4.0796,0.15691,-0.13714,0.11942,-0.15455
0.36209,-8.2964,4.158,-0.2942,-0.24984,0.20647,-0.40623
0.38303,-9.1398,4.2953,-0.21575,-0.36835,0.29199,-0.64477
0.38666,-9.9636,4.766,-0.039227,-0.48594,0.37599,-2.4819
0.40247,-10.689,5.276,0.41188,-0.59529,0.45418,-2.6563
0.41177,-11.356,5.9036,0.78453,-0.69028,0.5287,-1.3146
0.43246,-11.65,6.5901,0.90221,-0.77213,0.59987,-1.5241
0.46829,-11.65,6.8058,1.0003,-0.84116,0.67012,-1.7248
0.50745,-11.572,6.9039,0.8826,-0.8885,0.73457,-1.9203
0.54095,-11.258,6.5901,0.78453,-0.92271,0.79565,-2.1115
0.55841,-11.199,6.4135,0.5884,-0.93523,0.85949,-2.3005
0.59406,-11.199,6.0213,0.33343,0.96669,-1.0146,1.3558
0.61667,-11.101,5.3348,-0.05884,1.0223,-1.0757,1.4526
0.64557,-10.081,4.8641,-0.039227,1.1011,-1.1267,0.83108
0.64584,-8.9241,4.3149,-0.078453,1.2052,-1.1768,0.92271
0.63586,-8.218,4.0011,-0.078453,1.3329,-1.2294,1.0128
0.61789,-7.4334,3.8638,0.05884,1.481,-1.2828,1.1002
0.55154,-7.1392,3.9815,-0.039227,0.90958,-1.3354,1.1863
0.49628,-7.355,4.158,0.21575,0.9334,-1.3839,1.2685
0.42862,-7.7473,4.5895,0.43149,-0.32803,0.97494,-0.89614
0.37289,-7.0804,4.8053,0.41188,-0.39156,0.91752,-0.86132
0.32489,-6.6489,5.0995,0.33343,-0.47067,0.85796,-0.96853
0.28436,-6.6489,5.276,0.37265,-0.53115,0.7926,-0.99632
0.25375,-6.1978,5.2564,0.23536,-0.55589,0.71654,-0.99205
0.22314,-6.4724,5.2368,0.17652,-0.5229,0.63469,-0.97128
0.20047,-6.7862,5.021,0.25497,-0.43463,0.55528,-0.94226
0.18317,-6.7862,5.0995,0.019613,-0.3149,0.47678,-0.9166
0.17685,-6.9235,5.3937,-0.05884,-0.17623,0.39859,-0.27336
0.15317,-6.5508,5.6486,0.078453,-0.047037,0.30482,-0.1628
0.14807,-6.6489,5.5702,-0.21575,0.053756,0.19548,-0.81062
0.12497,-6.492,5.531,-0.23536,0.12798,0.087965,-0.74251
0.097565,-6.7862,5.5506,-0.23536,0.18051,-0.021686,-0.66309
0.067749,-6.7666,5.6486,-0.39227,0.22816,-0.13714,-0.5791
0.045166,-6.8647,5.7859,-0.39227,0.28772,-0.24374,-0.48381
0.0271,-7.1196,5.8055,-0.47072,0.36652,-0.3427,-0.37996
0.033264,-7.5119,5.5898,-0.37265,0.65699,-0.43585,0.63591
0.038483,-7.8061,5.3937,-0.47072,0.74342,-0.52076,0.7367
0.051331,-8.1395,5.2564,-0.50995,0.81123,-0.59895,-0.051924
0.070831,-8.4337,5.021,-0.52956,0.85857,-0.67806,0.06353
0.10175,-8.6102,4.9229,-0.66685,0.88362,-0.75014,0.1857
0.13492,-9.0613,4.8053,-0.66685,0.89522,-0.8152,0.30513
0.17361,-9.2379,4.9033,-0.70608,0.45907,-0.88178,0.41814
0.20651,-9.3752,5.021,-0.54917,0.55925,-0.94898,0.5284
0.24854,-9.5517,5.021,-0.70608,-0.37385,0.73182,-3.879
0.31058,-10.689,5.2368,-0.70608,-0.37477,0.83963,-3.9957
0.37479,-10.63,5.2564,-0.47072,-0.36499,0.94837,-2.7944
0.4231,-11.572,5.2368,-0.23536,-0.35736,1.0568,-2.9981
0.47189,-11.435,4.766,-0.23536,-0.35613,1.1668,-3.1918
0.51578,-11.199,4.4718,-0.35304,-0.35308,1.2761,-3.3796
0.55093,-10.748,4.4522,-0.23536,-0.35766,1.3864,-3.5562
0.57379,-10.219,4.6091,0.15691,-0.39309,1.489,-3.7199
0.57855,-9.8655,4.4718,0.56879,0.10354,-0.73945,1.069
0.59497,-9.2771,4.3934,0.56879,0.030238,-0.66676,0.8714
0.58463,-9.0613,4.3934,0.74531,-0.025045,-0.59743,2.2724
0.57938,-8.4926,4.1188,0.5884,-0.059865,-0.53206,2.0708
0.56476,-8.3553,4.1188,0.5884,-0.081856,-0.4722,1.8689
0.55328,-7.9826,3.903,0.64724,-0.11393,-0.42486,1.6588
0.53159,-7.8845,3.6677,0.72569,-0.16157,-0.38759,1.4468
0.52704,-7.4923,3.5108,0.84337,-0.1912,-0.3488,1.2504
0.51105,-6.9823,3.4519,0.8826,-0.2022,-0.30604,-0.62278
0.49789,-6.4135,3.3343,0.8826,-0.23335,-0.27,-0.84483
0.48709,-6.1782,3.2754,0.72569,-0.26848,-0.23366,0.66493
0.47003,-5.8644,3.2362,0.68647,-0.29719,-0.19273,0.46701
0.46982,-5.9232,3.3343,0.72569,-0.31765,-0.15149,0.26023
0.44345,-5.6094,3.2754,0.56879,-0.32376,-0.10568,0.043982
0.42523,-5.9428,3.3735,0.52956,-0.31826,-0.050702,-0.17929
0.42096,-5.8448,3.5108,0.41188,-0.30879,0.012523,-0.40164
0.39905,-6.0213,3.7658,0.52956,-0.29535,0.079718,-2.3619
0.39859,-6.139,4.0011,0.31381,-0.28588,0.14661,-2.5818
0.38034,-6.5508,4.1188,0.15691,-0.28711,0.22113,-1.0647
0.37738,-7.1196,4.158,0.078453,-0.29016,0.29871,-1.2813
0.37845,-7.8845,4.3149,-0.098066,-0.30024,0.37477,-1.4963
0.38293,-8.6887,4.7464,-0.15691,-0.32223,0.45235,-1.7113
0.3931,-9.5517,4.7856,-0.15691,-0.34514,0.53695,-1.9273
0.40579,-10.434,5.0798,-0.23536,-0.36163,0.6298,-2.1441
0.43079,-11.16,5.3348,-0.23536,-1.8103,1.2428,-0.7645
0.46841,-11.886,5.884,0.31381,-1.653,1.2303,-0.79748
0.51218,-11.886,5.9428,0.5884,-1.5247,1.2266,-0.74831
0.55228,-11.944,6.0213,0.47072,-1.4474,1.2202,-0.69791
0.57938,-11.729,6.0997,0.70608,-1.4138,1.2043,-0.67287
0.59753,-11.474,5.6486,0.54917,-1.3992,1.1823,-0.6744
0.59924,-11.435,5.629,0.56879,-1.394,1.149,-0.697
0.60382,-11.199,4.9229,0.23536,-1.3781,1.1075,-0.73059
0.60004,-11.023,4.7072,0.31381,-1.3399,1.065,-0.69822
0.59418,-9.7478,4.3934,0.25497,-1.2917,1.0223,-0.66157
0.55621,-8.9633,4.2169,0.23536,-1.2343,0.97464,-0.82039
0.53256,-8.0415,4.1384,0.27459,-1.1606,0.91385,-0.83322
0.48822,-7.4923,4.1188,0.11768,-1.0739,0.84238,-0.83322
0.44846,-7.1785,4.158,0.11768,-0.96914,0.75961,-0.81703
0.41043,-7.1392,4.4522,0.019613,-0.84452,0.66187,-0.78221
0.36215,-7.0412,4.7856,0.098066,-0.69914,0.55497,-0.73915
0.3356,-6.9431,4.9229,0.15691,-0.18173,0.44838,-0.34239
0.28,-6.6293,4.7856,-0.039227,0.0045815,0.34514,-0.25717
0.26212,-6.4724,4.7072,-0.13729,0.16768,0.24771,-0.63194
0.24728,-6.4528,4.6876,0.078453,0.28588,0.15363,-0.60262
0.22824,-6.2959,4.7072,-0.098066,0.3708,0.062614,-0.57544
0.20834,-6.492,4.6484,-0.23536,0.43035,-0.025656,-0.54734
0.17865,-6.4135,4.7856,-0.41188,-0.53756,-0.11179,-0.49724
0.16885,-6.6489,4.9426,-0.70608,-0.36591,-0.19639,-0.42608
0.14487,-6.4135,5.3348,-0.66685,0.56749,-0.27947,0.37415
0.11795,-6.5508,5.629,-0.68647,0.65973,-0.35827,0.4725
0.10092,-6.5705,5.6486,-0.68647,0.77916,-0.44043,-0.16677
0.081421,-6.4724,5.531,-0.84337,0.90744,-0.52107,-0.073915
0.063232,-6.4528,5.3348,-0.98067,1.0376,-0.5959,0.014966
0.059235,-6.6685,5.3348,-1.0983,1.1674,-0.66676,0.1011
0.065796,-6.8058,5.3937,-1.0003,0.47006,-0.73395,0.18448
0.072083,-6.9627,5.4721,-1.0003,0.50916,-0.79962,0.27489
0.086975,-7.2569,5.531,-0.8826,0.98105,-1.383,3.3579
0.12231,-8.0218,5.276,-0.8826,0.7929,-1.3653,3.2162
0.17148,-7.9042,5.1583,-0.82376,0.61361,-1.3277,3.6832
0.20746,-8.5318,5.3348,-0.76492,0.44318,-1.2825,3.6951
0.25439,-8.7083,5.3937,-0.41188,0.27061,-1.2547,3.6823
0.28644,-8.9633,5.2171,-0.47072,0.12156,-1.2297,3.6438
0.32053,-9.2967,5.0602,-0.47072,-0.00061087,-1.1936,3.5824
0.35492,-9.5517,4.7856,-0.23536,-0.090713,-1.1506,3.4853
0.41168,-10.317,4.8445,-0.15691,-0.1463,-1.1102,1.7956
0.46198,-10.846,4.7856,-0.37265,-0.19059,-1.0757,1.5391
0.50742,-11.572,5.0602,-0.23536,-0.22113,-1.0397,3.0672
0.56116,-11.944,5.2564,0.05884,-0.21869,-0.99266,2.9135
0.61014,-11.827,5.2564,0.15691,-0.1854,-0.93615,2.7413
0.66333,-11.199,4.9229,0.098066,-0.13225,-0.8769,2.5351
0.68857,-10.728,4.7072,0.25497,-0.061087,-0.81245,2.3005
0.6965,-10.493,4.766,0.64724,0.014661,-0.74281,2.0513
0.70261,-9.7086,4.6484,0.54917,0.077274,-0.67012,-0.2474
0.694,-9.787,4.6484,0.68647,0.12126,-0.59712,-0.47647
0.68967,-9.434,4.4718,0.5884,0.14447,-0.53726,1.2828
0.66974,-9.2967,4.2169,0.68647,0.15821,-0.48197,1.0324
0.65024,-9.1594,3.8638,0.68647,0.16371,-0.42455,0.78191
0.62778,-8.8456,3.6873,0.72569,0.15302,-0.37202,0.5226
0.60349,-8.2768,3.5108,0.54917,0.13286,-0.31979,0.25931
0.58057,-7.7473,3.295,0.54917,0.10782,-0.26786,0
0.54883,-6.9627,3.197,0.80415,1.817,-1.5293,3.6426
0.52652,-6.6685,3.2754,0.72569,1.7205,-1.5348,3.6673
0.49554,-6.0997,3.3539,0.78453,1.6151,-1.5363,3.2981
0.4523,-6.0409,3.3735,0.78453,1.5217,-1.5266,3.3805
0.40994,-5.3152,3.3539,0.5884,1.4398,-1.5052,3.4456
0.38095,-5.2956,3.4912,0.68647,1.3497,-1.478,3.5
0.34366,-4.9229,3.4519,0.39227,1.2489,-1.4474,3.5519
0.31073,-5.1387,3.3735,0.078453,1.1338,-1.4135,3.6011
0.28647,-5.1975,3.4519,0.15691,-1.6912,1.2871,-0.26481
0.27032,-5.8448,3.5892,-0.039227,-1.4694,1.2645,-0.2926
0.26724,-6.4528,3.903,-0.078453,-1.299,1.2446,-0.65332
0.27148,-7.6688,4.1384,-0.05884,-1.171,1.2208,-0.52626
0.26425,-8.3553,4.5307,-0.13729,-1.0715,1.1842,-0.42516
0.26993,-9.0613,4.9426,0.078453,-1.0015,1.1399,-0.35308
0.26993,-10.003,5.2171,0.25497,-2.2468,1.1008,-0.30146
0.28372,-10.728,5.4917,0.37265,-1.9517,1.0681,-0.2697
0.29852,-11.788,5.5506,0.33343,-0.93035,1.0296,-0.70158
0.3331,-12.219,5.7467,0.21575,-0.89125,0.98013,-0.73701
0.38583,-12.572,5.9036,0.37265,-0.82436,0.9218,-0.34453
0.43521,-13.141,6.0213,0.49033,-0.72846,0.85521,-0.40897
0.478,-13.043,6.3155,0.84337,-0.59926,0.78038,-0.48106
0.52142,-12.513,6.3743,0.70608,-0.44532,0.70463,-0.54886
0.55612,-11.984,6.0997,0.52956,-0.96425,0.62919,-0.60903
0.59448,-11.493,5.7075,0.098066,-0.94745,0.55039,-0.65973
0.62317,-10.238,4.9426,-0.15691,0.59498,0.4667,-0.54245
0.61993,-9.0221,4.5307,-0.15691,-0.23549,0.38087,-0.45693
0.61166,-8.3945,4.2169,-0.23536,-0.067806,0.28924,-0.76267
0.58777,-7.5707,4.0207,-0.078453,0.091019,0.19303,-0.77213
0.54031,-7.355,4.2169,0.33343,0.23366,0.09896,-0.76175
0.48624,-7.0412,4.4522,0.62763,0.35766,0.00061087,-0.72846
0.42462,-6.8647,4.6484,0.54917,0.45235,-0.099876,-0.67531
0.37122,-6.5116,4.9033,0.41188,0.53084,-0.19578,-0.61239
0.32172,-6.5508,4.8053,0.52956,-3.6521,1.7437,-0.99205
0.28616,-6.5508,4.6287,0.47072,-3.7101,1.6521,-0.80726
0.25183,-6.7274,4.6287,0.23536,-3.6893,1.5696,-2.4844
0.20859,-6.7274,4.6287,0.098066,-3.5833,1.5009,-2.1869
0.18396,-6.7666,4.7856,0.098066,-3.4044,1.4343,-1.9239
0.15991,-6.7666,5.1191,0.11768,-3.1713,1.3754,-1.6729
0.13626,-6.7862,5.531,0.078453,-2.8921,1.3375,-1.4261
0.12473,-6.4724,5.5506,-0.05884,-2.5733,1.31,-1.1991
0.12854,-6.0997,5.7859,-0.05884,0.069333,-1.5018,2.6866
0.099518,-6.6685,5.7271,0.078453,-0.065668,-1.4377,2.4502
0.10205,-6.4528,5.7271,0.078453,-0.19578,-1.3735,3.9517
0.094086,-7.0804,5.7467,-0.039227,-0.30299,-1.3042,3.832
0.067993,-7.2373,5.7859,0.019613,-0.36957,-1.2291,3.6536
0.06134,-7.8649,5.884,0.019613,-0.39798,-1.153,3.4291
0.053955,-8.0415,5.5506,-0.15691,-0.39737,-1.0705,3.1799
0.065582,-8.4533,5.2171,-0.19613,-0.37293,-0.97769,2.9297
0.074066,-8.7671,5.1583,-0.31381,-0.30421,-0.90347,1.1762
0.097198,-9.0221,5.0995,-0.37265,-0.18509,-0.83994,1.0067
0.13034,-9.3752,5.1583,-0.50995,-0.035125,-0.76083,2.2568
0.16595,-9.6497,5.3937,-0.2942,0.10965,-0.69058,2.0925
0.21024,-10.493,5.2564,-0.47072,0.2025,-0.63683,1.9145
0.27014,-10.944,5.3348,-0.50995,0.26084,-0.59682,1.7202
0.33829,-11.984,5.5506,-0.21575,0.3091,-0.56994,1.5314
0.40015,-12.141,5.7467,-0.15691,0.35033,-0.55436,1.3515
0.47247,-12.141,6.0213,-0.039227,2.7355,-1.8564,3.9077
0.53149,-11.846,6.1782,0.39227,2.7529,-1.8644,4.0048
0.58078,-11.121,5.884,0.68647,2.7425,-1.872,3.0039
0.62387,-10.375,5.3937,0.72569,2.6948,-1.8634,3.1753
0.63907,-10.003,4.9426,0.72569,2.5986,-1.8442,3.3256
0.64215,-10.219,4.766,0.86299,2.4343,-1.824,3.4728
0.63922,-11.023,5.0602,0.96105,2.2,-1.8024,3.6288
0.62457,-10.493,5.2564,1.1964,1.9117,-1.7822,3.7791
0.60248,-10.062,5.021,1.2749,1.5971,-1.7627,4.0772
0.56668,-8.9829,4.6287,1.3337,1.2889,-1.7385,4.0284
0.53326,-8.3357,4.2757,1.3337,1.0165,-1.7043,4.0629
0.50708,-7.4334,3.5892,1.0199,0.79138,-1.6747,4.0888
0.47455,-6.8647,3.7069,1.2749,0.59956,-1.6545,4.1035
0.43732,-6.1978,3.6677,1.2749,0.44624,-1.6344,4.1105
0.40588,-5.7075,3.5304,1.1768,0.32376,-1.6023,4.1166
0.37369,-5.2564,3.3931,0.8826,0.19975,-1.5571,4.1068
0.34869,-4.7856,3.3735,0.64724,-0.92516,1.1142,-0.25656
0.33142,-4.5307,3.197,0.31381,-0.75014,1.095,-0.36957
0.32837,-4.7464,3.197,0.098066,-0.64202,1.0718,-0.08827
0.3154,-4.5699,3.2754,0.019613,-0.59498,1.0611,-0.020769
0.27191,-4.7464,3.5892,0.21575,-0.59712,1.0531,0.0079412
0.24136,-4.9229,3.903,0.52956,-0.62766,1.0318,-0.01069
0.21051,-5.2956,4.0011,0.33343,-1.4844,1.0033,-0.071166
0.20483,-5.9232,4.3934,0.21575,-1.175,0.97097,-0.15119
0.20111,-6.6293,4.6484,0.27459,-1.2703,2.1817,-5.2082
0.16959,-7.1196,4.8445,0.31381,-1.3522,2.3179,-5.0625
0.16519,-8.0218,4.9229,0.23536,-1.3854,2.4538,-4.846
0.16547,-9.1594,5.021,0.33343,-1.3744,2.5785,-5.0012
0.16434,-10.709,5.3348,0.23536,-1.3537,2.6676,-5.1407
0.19269,-12.199,5.531,0.11768,-1.3375,2.7132,-5.247
0.23288,-13.317,5.7271,0.078453,-1.3277,2.7174,-5.2977
0.28433,-14.161,6.0017,0.33343,-1.3708,2.6695,-5.2809
0.34146,-14.396,6.1978,0.8826,-1.4673,2.5803,-2.2025
0.4122,-14.259,7.0804,1.4514,-1.606,2.4563,-1.8436
0.48505,-13.141,8.0611,1.5887,-1.8353,2.2886,-4.8359
0.5386,-12.003,8.218,1.5887,-2.1243,2.1121,-4.5329
0.58475,-11.121,6.6685,0.33343,-2.4697,1.9138,-4.116
0.61661,-10.63,5.0995,-0.37265,-2.8576,1.7068,-3.6383
0.62778,-9.6301,4.2169,-0.37265,-3.2193,1.5461,-3.1438
0.60992,-8.8064,4.2169,-0.039227,-3.4957,1.4383,-2.6435
0.57056,-8.218,4.158,0.21575,-3.3549,1.3625,-0.33017
0.52115,-7.8845,3.8246,0.62763,-3.0653,1.2804,-0.20128
0.45639,-7.1196,4.06,0.96105,-2.7449,1.1979,-1.5308
0.37839,-7.0412,4.4522,1.0983,-2.4224,1.1613,-1.2245
0.29697,-6.8058,4.7856,0.96105,-2.1154,1.1689,-0.92882
0.22592,-6.4724,4.8053,0.54917,-1.8076,1.1805,-0.69669
0.17395,-6.237,5.0798,0.54917,-3.6185,1.1661,-0.54917
0.1355,-6.4724,4.8641,0.47072,-3.5644,1.1368,-0.44288
0.096985,-6.5705,4.5307,0.41188,0.87048,-1.0653,1.5204
0.090515,-6.9823,4.2169,0.21575,0.94409,-1.1457,1.6719
0.082214,-6.7666,4.5895,-0.039227,1.0559,-1.2233,0.74923
0.072968,-6.8254,4.9229,-0.23536,1.2,-1.2984,0.85643
0.068604,-6.6489,5.3937,-0.23536,1.3708,-1.3726,0.97861
0.051453,-6.2566,5.7075,-0.37265,1.5571,-1.4398,1.1118
0.028351,-6.5508,6.0017,-0.078453,1.7529,-1.5012,1.2465
0.015747,-6.3351,6.0017,0.05884,1.9502,-1.5611,1.3803
-0.0058594,-6.6293,6.0213,0.25497,2.1396,-1.6112,2.9343
-0.020264,-7.0804,6.0997,0.21575,2.3121,-1.6542,3.1359
-0.028351,-7.6688,5.8644,0.019613,2.4661,-1.6939,1.835
-0.032471,-7.9238,5.5506,-0.078453,2.6069,-1.7309,2.0009
-0.022736,-8.1984,5.3152,-0.23536,2.7339,-1.7663,2.1713
-0.012817,-8.2964,5.1583,-0.31381,2.8372,-1.7926,2.3512
-0.0013123,-8.6102,5.1191,-0.25497,2.8961,-1.8033,2.5381
0.014679,-8.6887,5.1583,-0.47072,2.8802,-1.7898,2.7324
0.010406,-9.2967,5.1191,-0.39227,2.7584,-1.7572,4.1704
0.051331,-10.395,5.374,-0.39227,2.5299,-1.7254,4.2309
0.072144,-10.846,5.3937,-0.50995,2.2263,-1.7034,3.3457
0.10904,-11.317,6.0017,-0.52956,1.8705,-1.6994,3.5473
0.1517,-11.807,6.2763,-0.039227,1.4704,-1.7068,3.708
0.20712,-11.984,6.5116,0.64724,1.0773,-1.7266,3.839
0.24786,-11.886,6.3547,0.90221,0.74434,-1.7645,3.9636
0.30447,-11.905,5.6486,0.96105,0.48778,-1.8066,4.0806
0.3526,-11.415,5.1191,0.33343,0.31948,-1.8265,4.0711
0.37891,-11.062,4.8445,0.15691,0.22358,-1.821,3.8985
0.40027,-11.023,4.8053,0.70608,0.16402,-1.8048,4.2745
0.39291,-11.023,4.6484,0.8826,0.14569,-1.7828,4.3124
0.38458,-10.689,4.4718,0.8826,0.14691,-1.7523,4.3414
0.35941,-9.9439,4.2757,0.90221,0.14172,-1.7068,4.3408
0.3338,-8.8064,4.06,0.8826,0.15882,-1.6383,4.3008
0.31061,-7.9042,3.9227,1.0199,0.18906,-1.5666,4.2153
0.27518,-7.2569,3.7658,1.0199,-0.18815,1.1619,-5.4168
0.25394,-6.492,3.6088,0.90221,-0.34758,1.3091,-5.441
0.24442,-5.9232,3.4519,1.0199,-0.53665,1.4572,-4.3087
0.2355,-5.8448,3.4323,1.0003,-0.73823,1.6087,-4.5751
0.224,-4.9818,3.197,0.72569,-0.94501,1.7575,-4.8203
0.19928,-4.8445,3.0401,0.47072,-1.1344,1.9004,-5.0384
0.20724,-4.413,2.9224,0.21575,-1.2981,2.0348,-5.2134
0.19156,-4.5895,2.9812,0.25497,-1.4474,2.142,-5.3393
0.17752,-4.8249,3.197,0.21575,-1.5904,2.219,-3.9074
0.15372,-5.0798,3.2754,0.27459,-1.7416,2.2852,-3.4438
0.1575,-5.3544,3.3539,0.17652,-1.9389,2.3225,-5.4202
0.14246,-6.0997,3.6677,0.078453,-2.193,2.3152,-5.3454
0.12411,-6.6685,3.8442,0.078453,-2.5189,2.255,-5.1945
0.12659,-7.5707,4.2953,-0.13729,-2.908,2.1432,-4.9819
0.11017,-8.8064,4.766,-0.039227,-3.295,2.025,-4.6988
0.10379,-10.081,5.1583,0.05884,-3.6792,1.9071,-4.3341
0.11508,-11.356,5.3348,0.098066,-4.525,1.7733,-1.0055
0.13736,-12.435,5.5898,0.078453,-4.5894,1.6423,-0.81367
0.1619,-13.376,5.8055,0.15691,-4.4874,1.5464,-2.9847
0.20523,-14.082,6.1782,0.52956,-4.2125,1.4838,-2.5583
0.22742,-14.2,6.6685,0.78453,-3.8023,1.4251,-2.1802
0.26938,-13.984,7.2961,1.0003,-3.302,1.3659,-1.85
0.30576,-13.533,7.5903,0.8826,-4.0409,1.332,-1.5495
0.34406,-12.513,7.1392,0.41188,-4.3313,1.3295,-1.2614
0.3873,-10.885,5.7467,-0.52956,-1.689,1.3372,-0.31979
0.40839,-9.5909,4.2953,-1.0003,-1.2257,1.3433,-0.39523
0.41968,-8.4533,3.5304,-0.78453,-0.84819,1.3457,-0.65943
0.40329,-7.9826,3.2362,-0.70608,-0.56749,1.3387,-0.51526
0.35995,-8.1199,3.3539,-0.35304,-0.38668,1.3241,-0.39951
0.28955,-7.9826,3.7461,0.39227,-0.3094,1.306,-0.32865
0.20447,-7.6688,4.4522,0.78453,-2.7526,1.2877,-0.29383
0.11469,-7.6492,5.1779,1.0983,-2.2064,1.2694,-0.28863
0.049225,-7.1981,5.7075,1.0199,2.1951,-1.8066,2.9529
0.0061035,-7.1196,5.5898,0.78453,2.4108,-1.8573,3.1414
-0.012573,-6.5705,5.1191,0.5884,2.6069,-1.9007,1.9132
-0.033813,-6.6489,4.6287,0.39227,2.78,-1.9352,2.0855
-0.035889,-6.6293,4.3345,0.23536,2.9322,-1.9645,2.2587
-0.046478,-6.3351,4.2953,0.21575,3.0803,-1.9862,2.4273
-0.05661,-6.237,4.7072,0.37265,3.2354,-2.0027,2.5983
-0.078918,-6.7274,5.3152,0.78453,3.4126,-2.021,2.7715
-0.10501,-6.4135,5.7859,0.78453,3.6615,-2.0366,4.6771
-0.12567,-6.7862,5.9624,0.74531,4.0714,-2.0519,4.8698
-0.1539,-6.7862,5.884,0.74531,4.5024,-1.9844,3.3277
-0.16782,-7.0412,6.0213,0.72569,4.7767,-1.8207,3.5073
-0.19452,-7.355,6.2763,0.62763,4.966,-1.6625,3.6799
-0.21658,-7.6688,6.2174,0.64724,4.9566,-1.5443,3.8967
-0.22995,-7.8845,5.884,0.25497,4.7244,-1.4526,4.1279
-0.22919,-8.2376,5.531,0.078453,4.3552,-1.3552,4.3985
-0.2287,-8.4926,5.2564,-0.15691,3.8634,-1.2434,4.7815
-0.20404,-9.1202,5.1583,-0.39227,3.2425,-1.1426,4.6099
-0.1803,-9.6105,5.2368,-0.41188,2.5681,-1.0574,4.9963
-0.15259,-10.258,5.2171,-0.54917,1.9206,-0.98349,5.1053
-0.11694,-10.709,5.0995,-0.54917,1.3442,-0.92638,5.1676
-0.0784,-12.062,4.8445,-0.62763,0.85613,-0.87995,5.1542
-0.022675,-12.376,3.903,-1.0199,0.43982,-0.83689,5.0836
0.010529,-12.513,4.4522,-1.1768,0.072693,-0.8094,4.9511
0.014099,-12.827,4.9229,-0.70608,0.96669,-1.0406,1.566
0.024536,-12.611,6.0017,0.078453,1.0189,-1.1631,1.7407
0.04126,-11.905,6.845,0.62763,1.088,-1.2755,0.45265
0.058411,-11.984,6.492,0.78453,1.1897,-1.3845,0.64782
0.083069,-11.788,5.7859,1.0003,1.3314,-1.4865,0.84269
0.12491,-11.572,5.1583,1.0003,1.5153,-1.5818,1.0324
0.14026,-11.18,4.6484,0.96105,1.7312,-1.6683,1.2144
0.14972,-10.434,4.2169,0.72569,1.9652,-1.7428,1.3922
0.16464,-9.5517,3.8442,0.5884,-1.7956,2.2058,-4.8209
0.17688,-8.6691,3.55,0.72569,-1.9951,2.3118,-4.4807
0.17075,-7.8061,3.1381,0.70608,-2.2565,2.3931,-5.3109
0.15118,-7.1392,2.8243,0.72569,-2.5647,2.4459,-5.3707
0.14972,-6.6293,2.7459,0.78453,-2.9331,2.46,-5.3952
0.12576,-6.0997,2.8832,0.78453,-3.3588,2.4496,-5.3497
0.12222,-5.629,3.197,0.8826,-1.4746,2.4163,-5.233
0.12183,-5.1975,3.197,0.78453,-1.6338,2.3405,-5.0665
0.12091,-4.8445,3.2362,0.72569,-4.558,2.2376,-1.7223
0.11853,-4.6876,3.1381,0.47072,-4.7907,2.1362,-1.441
0.12054,-4.668,3.0401,0.33343,-4.8994,2.0543,-4.0681
0.13129,-4.8445,2.8243,0.098066,-4.8967,1.9868,-3.627
0.11981,-5.531,3.2166,0.078453,-4.7757,1.9251,-3.1924
0.11496,-5.531,3.5892,-0.078453,-4.5366,1.8815,-2.7623
0.11536,-6.237,4.0796,-0.19613,-3.7996,1.8375,-2.3622
0.098969,-6.7862,4.3934,-0.098066,-4.2199,1.7883,-2.0235
0.10986,-7.61,4.6091,-0.15691,-0.21808,0.067195,-3.025
0.098785,-8.6102,4.766,-0.13729,-0.18021,0.15211,-3.3023
0.10883,-9.689,5.021,-0.15691,-0.14936,0.24404,-1.4267
0.11484,-10.866,5.1583,-0.23536,-0.13836,0.35033,-1.679
0.14798,-12.141,5.4721,-0.098066,-0.15149,0.46914,-1.9389
0.1908,-13.514,5.8448,0.019613,-0.18754,0.59743,-2.1997
0.24927,-14.455,6.2174,0.25497,-0.25473,0.73365,-2.4688
0.30872,-14.494,6.7862,0.72569,-0.3656,0.87262,-2.7486
0.35123,-14.2,7.2569,1.3337,-0.48106,1.0162,-5.0577
0.40424,-13.004,7.4727,1.0591,-0.59437,1.1637,-5.211
0.44287,-11.435,6.7862,0.27459,-0.70921,1.3097,-3.5846
0.49118,-10.728,5.3937,-0.56879,-0.82589,1.4606,-3.864
0.52139,-10.277,4.158,-0.78453,-0.9557,1.6234,-4.1426
0.52747,-9.7674,3.7069,-0.47072,-1.0748,1.7883,-4.4111
0.51141,-9.3752,3.3735,-0.23536,-1.1875,1.9426,-4.653
0.47174,-8.8064,3.295,0.11768,-1.3164,2.0818,-4.8643
0.4057,-8.3357,3.5892,0.72569,2.9343,-2.1389,3.831
0.34518,-8.5122,4.4522,1.4906,3.0152,-2.1594,3.977
0.26874,-7.355,5.0602,1.5887,3.0757,-2.1643,2.8527
0.20016,-7.1981,5.276,1.3729,3.1069,-2.1649,3.0143
0.14368,-6.6097,5.0798,1.0983,3.0986,-2.1683,3.1896
0.082184,-6.3351,4.7072,1.1768,3.0351,-2.175,3.3643
0.040192,-6.6293,4.7072,1.0199,2.9383,-2.1918,3.5296
-0.016907,-6.6489,4.7072,0.84337,2.8259,-2.2199,3.6841
-0.073334,-6.7274,4.9622,0.8826,1.1246,-2.2419,4.5204
-0.13318,-6.9823,5.6486,1.0983,2.6618,-2.2416,4.5021
-0.19324,-7.0412,6.2763,1.1572,2.4997,-2.2116,4.1267
-0.25858,-6.9627,6.8058,1.0591,2.2791,-2.1692,4.2681
-0.33765,-6.7274,6.9627,1.216,2.0052,-2.1221,4.394
-0.41034,-6.7274,6.8058,1.0983,1.7339,-2.0537,4.492
-0.46204,-6.6685,6.5116,0.68647,1.5079,-1.982,4.5378
-0.51205,-7.0412,6.1978,0.54917,1.314,-1.9313,4.5366
-0.53897,-7.6492,6.0997,0.39227,0.81764,-1.0681,1.408
-0.54761,-8.0415,5.9036,0.11768,0.92332,-1.1958,1.5354
-0.52151,-8.3945,5.5506,-0.15691,1.0504,-1.3124,0.56688
-0.49622,-8.9241,5.5506,-0.19613,1.1936,-1.4258,0.74831
-0.43262,-9.4928,5.3937,-0.35304,1.3402,-1.5308,0.90988
-0.38196,-9.8655,5.3937,-0.23536,1.4951,-1.6191,1.0437
-0.29868,-10.434,5.374,-0.23536,1.6619,-1.7003,1.1628
-0.21194,-10.807,5.2368,-0.2942,1.8338,-1.773,1.2834
-0.11508,-11.435,5.2171,-0.47072,1.9969,-1.8375,2.5366
-0.021881,-12.003,5.2368,-0.23536,2.149,-1.8931,2.6957
0.074158,-12.69,5.4721,0.21575,2.3002,-1.9429,1.6667
0.18179,-13.259,5.5506,0.47072,2.4456,-1.9856,1.8017
0.29089,-13.219,5.5898,0.41188,2.5742,-2.0232,1.9389
0.38333,-13.062,5.629,0.5884,2.6811,-2.0574,2.0849
0.45706,-12.141,5.2564,0.8826,2.7727,-2.0861,2.2312
0.49957,-11.65,5.2171,1.1768,2.8524,-2.1133,2.3796
0.55295,-11.435,5.3348,1.5102,-3.9841,2.0644,-2.0647
0.60254,-10.885,5.2564,1.2749,-4.5638,2.0058,-1.7138
0.65326,-10.277,4.8641,0.8826,-5.1132,1.9199,-5.5063
0.68576,-9.4732,4.3149,0.8826,-5.6288,1.8124,-5.0005
0.69571,-8.6887,3.6481,0.62763,-6.0613,1.7437,-4.3772
0.68594,-8.0218,3.3931,0.5884,-6.2235,1.7718,-3.6649
0.67389,-7.2961,3.0793,0.72569,-2.8787,1.8476,-2.9572
0.6525,-6.7862,3.0597,0.70608,-3.4205,1.8833,-2.4337
0.60608,-6.1978,3.197,0.86299,-0.057727,-0.22083,-2.5366
0.56934,-5.7075,3.1774,0.84337,-0.1686,-0.15882,-2.814
0.53116,-5.3544,3.295,0.78453,-0.25412,-0.095295,-1.0372
0.50772,-5.3937,3.2166,0.54917,-0.31124,-0.023824,-1.285
0.4577,-4.668,3.2362,0.27459,-0.33078,0.059559,-1.5287
0.41058,-4.6091,3.197,0.23536,-0.30146,0.15119,-1.7795
0.38589,-4.5111,3.1381,0.15691,-0.23702,0.24679,-2.0305
0.32758,-4.5307,2.8243,0.05884,-0.16127,0.34514,-2.2773
0.27582,-5.0798,2.8832,-0.13729,-0.092546,0.44318,-5.0696
0.242,-5.7075,3.2362,-0.2942,-0.03207,0.5452,-5.3298
0.20776,-6.2959,3.5304,-0.39227,0.010079,0.64049,-3.1075
0.17905,-7.355,3.6677,-0.05884,0.0024435,0.70921,-3.4227
0.15628,-8.5122,3.5892,0.15691,-0.028711,0.7648,-3.7654
0.15448,-10.395,3.8442,-0.098066,-0.035125,0.84025,-4.112
0.19574,-12.023,4.9426,-0.94144,0.011301,0.9557,-4.4468
0.28699,-14.612,6.492,-0.70608,0.11332,1.1231,-4.7709
0.39825,-15.573,7.6688,0.25497,-0.02474,1.3323,-6.0399
0.54584,-15.593,7.8845,0.54917,-0.34911,1.5235,-5.8313
0.69031,-15.024,8.2964,0.64724,-0.81886,1.6527,-5.5616
0.83722,-13.612,9.5713,0.86299,-1.3732,1.7553,-5.7229
0.93384,-11.65,10.356,1.3337,-1.9163,1.8402,-5.8961
0.99692,-10.905,9.0221,-0.47072,-2.3973,1.9145,-6.1227
1,-11.807,5.8644,-2.3536,0.19364,1.9865,-6.2626
1,-12.729,2.9616,-2.3536,0.15455,2.0528,-6.2293
0.98883,-11.572,2.1182,-1.1768,-0.20311,0.48228,-0.45632
0.90018,-10.709,2.334,0.41188,-0.033292,0.33995,-0.30146
0.77878,-8.6691,3.0401,1.0199,0.11851,0.19242,-0.99571
0.62555,-7.963,3.6677,0.96105,0.24984,0.04215,-0.9444
0.47314,-7.355,4.3934,1.4122,0.35552,-0.12034,-0.88911
0.32886,-6.8647,4.9229,1.5102,0.44563,-0.28375,-0.81703
0.18396,-6.8647,4.8053,1.4906,0.5342,-0.43219,-0.72113
0.079803,-6.7274,4.6091,1.3141,0.62308,-0.56627,-0.59926
-0.016907,-6.4724,4.6876,1.2749,0.71654,-0.68967,0.80359
-0.10297,-6.6097,4.5895,1.1964,0.81123,-0.80207,0.93462
-0.17871,-6.4724,4.4914,1.2749,0.90133,-0.8995,-0.14203
-0.24152,-6.6293,4.5895,1.1964,0.97586,-0.99785,0.018631
-0.28735,-7.1785,4.7856,1.1768,1.0476,-1.0934,0.18265
-0.33417,-7.2961,5.2564,0.72569,1.1118,-1.182,0.35491
-0.37289,-7.3354,5.8448,0.72569,1.157,-1.2737,0.52015
-0.39951,-6.5116,5.9624,0.27459,1.1897,-1.3686,0.66737
-0.43442,-5.9232,5.8448,0.078453,1.2288,-1.4572,1.9636
-0.46762,-5.8448,5.7467,0.39227,1.2853,-1.5424,2.1316
-0.50082,-6.3351,6.0017,0.39227,1.3696,-1.631,1.0599
-0.52917,-6.7274,6.0997,0.47072,1.4783,-1.7153,1.1866
-0.52826,-7.2569,6.0997,0.21575,1.6063,-1.795,1.3173
-0.51343,-7.8845,5.7859,0.15691,1.7425,-1.872,1.4615
-0.48602,-8.4337,5.7075,0.019613,1.8833,-1.9505,1.6188
-0.43048,-9.1398,5.7075,-0.13729,2.025,-2.025,1.7892
-0.36673,-9.8459,5.6879,0.05884,2.1619,-2.0959,3.565
-0.29483,-10.258,5.7075,-0.098066,2.3033,-2.1622,3.7623
-0.19156,-10.63,5.6486,-0.23536,2.4438,-2.2177,2.2996
-0.091583,-10.807,5.9624,-0.078453,2.5705,-2.2578,2.4703
0.020355,-11.356,6.492,0.078453,2.645,-2.2907,2.653
0.12827,-12.298,6.8058,1.0003,2.6542,-2.3158,2.864
0.23172,-13.376,6.5312,0.72569,2.6264,-2.365,3.1023
0.34625,-14.494,5.884,0.54917,2.5287,-2.4071,3.3396
0.44821,-14.082,5.7467,0.05884,-0.29658,-0.28314,-1.4728
0.55185,-13.886,6.0213,0.68647,-0.43158,-0.25259,-1.7312
0.63235,-12.945,6.0213,1.0983,-0.51771,-0.21472,0.021991
0.69031,-12.278,5.7075,1.216,-0.55772,-0.17104,-0.23213
0.71869,-11.042,5.2368,1.0199,-0.55833,-0.11912,-0.47953
0.74582,-10.258,4.8445,0.96105,-0.5342,-0.061392,-0.73029
0.75281,-9.3752,4.4522,0.70608,-0.50121,-0.00030543,-0.97769
0.74692,-8.9633,4.0011,0.54917,-0.47189,0.062003,-1.2242
0.72095,-8.3553,3.8442,0.72569,-0.54947,0.12462,-3.7932
0.694,-7.7669,3.7658,0.90221,-0.6802,0.1912,-4.174
0.64899,-7.4334,3.903,1.0983,-0.88728,0.25504,-1.9997
0.59695,-6.7666,4.0207,1.2749,-1.1509,0.30818,-2.2764
0.55676,-6.139,4.158,1.2749,-1.4319,0.36255,-2.562
0.48679,-5.6094,3.903,1.216,-1.6985,0.43066,-2.8576
0.42703,-5.2171,3.6677,0.96105,-0.45998,0.50946,-3.1588
0.38654,-4.9229,3.2362,0.72569,-0.48197,0.61484,-3.4596
0.33917,-4.7856,2.8635,0.56879,-2.1796,0.76633,-6.4144
0.29221,-4.6091,2.6478,0.41188,-2.1551,0.96914,-6.3997
0.2511,-4.668,2.7066,0.23536,-2.0308,1.1912,-4.5662
0.21628,-4.766,2.9616,0.15691,-1.8017,1.4135,-4.9456
0.16739,-5.2368,3.3343,0.23536,-1.4273,1.6619,-5.335
0.14426,-5.629,3.8638,0.54917,-0.93707,1.9355,-5.7278
0.15009,-6.2566,4.4522,1.1768,-1.9239,2.2049,-6.0744
0.12445,-6.8647,4.8445,1.5298,-2.0931,2.4532,-6.3084
0.13492,-7.3942,5.0995,1.471,1.8011,-0.57085,0.5342
0.17151,-8.8456,5.5506,0.68647,1.598,-0.49663,0.27947
0.2189,-10.63,5.4721,-0.15691,1.3573,-0.44288,2.2193
0.27127,-12.513,4.9622,-0.86299,1.084,-0.4102,1.9282
0.3244,-15.279,5.1583,-0.68647,0.78038,-0.38515,1.6405
0.38394,-15.965,6.1586,1.1964,0.45907,-0.35949,1.3518
0.42972,-15.749,8.1003,2.6674,0.15516,-0.33537,1.0672
0.46228,-13.945,11.199,2.589,-0.1014,-0.31032,0.79351
0.49936,-11.18,13.435,2.4124,0.3882,0.3259,-0.011301
0.52933,-10.434,9.2379,-1.1964,0.49541,0.18692,0.2532
0.56357,-11.435,4.7856,-2.4909,0.60659,0.058032,-1.2877
0.57468,-12.199,2.7459,-2.0398,0.67867,-0.084299,-1.1414
0.53738,-12.062,2.6086,-0.86299,0.71563,-0.23182,-0.96303
0.44077,-11.493,2.8832,0.64724,0.73151,-0.37538,-0.74953
0.34488,-9.5517,3.1381,1.3337,0.75381,-0.51191,-0.51496
0.23819,-8.4533,4.0796,1.2553,0.78802,-0.64385,-0.26573
0.12735,-7.355,4.8053,1.0983,0.83322,-0.75869,1.6463
0.026215,-7.0412,4.6091,0.90221,0.88973,-0.85796,1.7599
-0.05127,-6.6489,4.0796,0.64724,0.93187,-0.95753,0.51924
-0.12097,-6.7274,3.8442,0.72569,0.95661,-1.0458,0.7532
-0.18619,-6.4135,3.7658,0.72569,0.97494,-1.1112,0.95417
-0.23914,-6.3155,3.9619,0.64724,0.97616,-1.1594,1.142
-0.28061,-6.1782,4.4914,0.41188,0.93371,-1.2013,1.3241
-0.31332,-6.1782,4.8445,0.25497,0.85063,-1.2465,1.4966
-0.34836,-6.3351,5.2564,0.43149,0.75686,-1.2999,2.2929
-0.37903,-6.8647,5.6486,0.54917,0.697,-1.3543,2.3738
-0.39673,-7.2569,5.9624,0.39227,0.69914,-1.4025,1.8494
-0.41138,-7.1785,6.3547,0.019613,0.76816,-1.4523,1.9282
-0.42447,-6.9627,6.5901,0.019613,0.89217,-1.4981,2.0024
-0.43219,-6.7077,6.5901,0.05884,1.0617,-1.5241,2.0849
-0.44968,-6.6293,6.4724,0.078453,1.2498,-1.5406,2.1673
-0.45618,-6.6293,6.3351,-0.41188,1.4242,-1.5678,2.233
-0.46387,-6.6293,6.4724,-0.52956,-0.26634,1.1246,-1.5116
-0.46695,-6.9431,6.0997,-0.66685,-0.12767,1.0629,-1.4093
-0.45999,-7.5903,6.2763,-0.37265,-0.016188,0.99174,-1.6423
-0.44666,-8.1984,6.1782,-0.078453,0.061392,0.91111,-1.6582
-0.4021,-8.6887,5.7859,-0.41188,0.11423,0.82589,-1.6628
-0.35974,-9.2379,5.1583,-0.47072,0.15821,0.72632,-1.6579
-0.29691,-10.101,4.8445,-0.47072,0.21319,0.60781,-1.6368
-0.21066,-10.219,4.9229,-0.39227,0.29291,0.4725,-1.5892
-0.13727,-10.552,5.0798,-0.37265,-0.21258,-0.8995,-1.679
-0.035126,-10.944,5.021,-0.23536,-0.15211,-0.82558,-1.9038
0.076996,-11.513,5.021,-0.35304,-0.064446,-0.74098,-0.11912
0.16589,-11.18,6.0213,0.33343,0.027184,-0.64691,-0.42364
0.26385,-11.886,6.6881,1.1768,0.10385,-0.54398,-0.70891
0.35535,-12.592,6.8843,1.6867,0.14478,-0.43402,-0.97769
0.45111,-13.455,6.492,1.4906,-0.1909,-0.31368,-1.226
0.52524,-13.553,5.629,1.1572,-0.22877,-0.19426,-1.4545
0.59128,-13.161,5.3348,1.0003,-0.097433,-0.079412,-3.4086
0.6232,-12.454,5.531,1.4906,-0.28588,0.040012,-3.6145
0.64127,-11.807,5.374,1.6475,-0.5058,0.15547,-2.1273
0.634,-10.63,4.9622,1.5102,-0.73059,0.27031,-2.3524
0.60693,-9.5517,4.4522,1.2749,-0.92516,0.38423,-2.5724
0.57663,-8.5318,3.6873,1.0983,-1.0699,0.50763,-2.7828
0.52264,-7.6688,3.3539,0.94144,0.12828,0.6521,-2.9893
0.47305,-6.9627,3.1185,1.0003,0.04612,0.81276,-3.197
0.42508,-6.492,3.4323,1.0199,0.65393,-1.7987,2.7843
0.39948,-6.3939,4.0011,1.216,0.84208,-1.7376,2.6212
0.36926,-6.4724,4.158,1.2749,1.0412,-1.6796,3.5326
0.36075,-6.2566,4.0796,1.2553,1.2284,-1.617,3.4202
0.35889,-5.531,3.903,1.0199,1.4013,-1.5492,3.3048
0.35452,-4.9033,3.6481,0.72569,1.5397,-1.4768,3.1744
0.35004,-4.2757,3.3735,0.49033,1.6069,-1.4145,3.0455
0.34204,-4.1188,3.0793,0.27459,1.5904,-1.3625,2.9205
0.32745,-4.0403,3.2166,0.25497,1.4679,-1.3073,0.55253
0.30258,-4.4522,3.7658,0.27459,1.2565,-1.2535,0.21014
0.28073,-4.9818,4.3934,0.54917,1.0101,-1.2031,2.4151
0.25281,-5.8448,5.0798,0.78453,0.74312,-1.1597,2.164
0.24014,-6.4724,5.5506,0.90221,0.47617,-1.1157,1.8741
0.22488,-6.9235,5.7075,0.70608,0.24557,-1.066,1.5687
0.19888,-7.4923,5.6486,0.41188,0.0562,-1.0091,1.2489
0.21951,-8.2964,5.5702,0.23536,-0.093157,-0.95631,0.90439
0.22256,-9.0221,5.4721,0.25497,0.11545,0.29627,0.26786
0.24341,-10.728,5.531,0.15691,0.2138,0.16921,0.45082
0.27173,-11.435,5.6486,0.37265,0.28741,0.043677,-0.77244
0.29718,-12.474,6.0017,0.33343,0.33995,-0.077274,-0.62461
0.31662,-13.141,6.5312,0.54917,0.39065,-0.19517,-0.4667
0.34052,-13.062,6.8254,0.43149,0.44227,-0.31276,-0.29688
0.36172,-13.004,7.2177,0.86299,0.50396,-0.42638,-0.11668
0.39136,-12.278,7.4727,1.0003,0.57818,-0.53054,0.073609
0.40967,-12.062,7.355,0.8826,-3.4825,1.6811,-0.64019
0.41788,-11.827,6.8254,0.8826,-3.3744,1.642,-0.5681
0.4201,-12.003,5.9624,0.47072,-3.2532,1.6154,-1.4572
0.40234,-11.199,5.0798,0.11768,-3.1298,1.5886,-1.2853
0.38931,-10.16,4.7856,0.47072,-2.9908,1.5571,-1.1368
0.37259,-8.8456,4.5307,0.54917,-2.8124,1.5253,-0.99999
0.3306,-8.0807,4.2953,0.25497,-2.5968,1.4972,-0.8659
0.27811,-7.2765,4.0011,0.25497,-2.3564,1.4707,-0.74312
0.22345,-7.1196,3.7069,0.31381,-2.095,1.4487,-0.92332
0.14847,-7.355,3.8246,0.47072,-1.8216,1.4264,-1.0247
0.074066,-7.1196,4.158,0.56879,-1.5424,1.3977,-0.53267
0.0016174,-7.1196,4.7856,0.78453,-1.2657,1.3677,-0.5342
-0.073975,-6.7274,5.0798,0.70608,-1.004,1.335,-0.56902
-0.13367,-6.6097,5.3348,0.47072,-0.77,1.2929,-0.63102
-0.19229,-6.8058,5.5506,0.47072,-0.57727,1.2401,-0.71105
-0.24826,-6.9235,5.7075,0.41188,-0.43982,1.1802,-0.81123
-0.30212,-7.1,5.884,0.078453,-0.35888,1.113,-1.0024
-0.35455,-6.6293,6.0213,-0.23536,-0.32467,1.0382,-0.90469
-0.39261,-6.492,6.3547,-0.2942,-0.30635,0.96242,-1.0959
-0.43457,-6.1782,6.3547,-0.66685,-0.281,0.87781,-1.1399
-0.46561,-6.1978,6.3155,-0.68647,-0.23396,0.78496,-1.1588
-0.48254,-6.3155,6.1782,-0.78453,-0.16096,0.67714,-1.1487
-0.48889,-6.6293,5.9624,-0.78453,-0.071166,0.55314,-1.1182
-0.49026,-6.7274,5.7859,-0.68647,0.020464,0.42302,-1.0708
-0.48361,-7.0412,5.7467,-0.54917,-0.53206,-0.82161,-0.68142
-0.44913,-7.8845,5.7859,-0.39227,0.66371,-0.71044,-0.94837
-0.39828,-7.7669,5.4721,-0.45111,0.45173,-0.59987,0.99663
-0.34943,-8.3553,5.276,-0.52956,0.26664,-0.489,0.71502
-0.29739,-8.7475,5.1583,-0.47072,0.081856,-0.37538,0.42241
-0.22665,-9.179,5.2171,-0.37265,-0.095295,-0.26878,0.12889
-0.17676,-8.9241,5.2564,-0.37265,-0.25076,-0.17043,-0.14905
-0.10117,-9.4732,5.3348,-0.15691,-0.39859,-0.068417,-0.41692
-0.036804,-9.787,5.5506,-0.21575,1.1435,-2.069,3.9196
0.044739,-10.277,5.629,0.019613,1.0024,-2.0806,3.8136
0.12912,-10.807,5.7859,0.05884,0.85613,-2.0901,4.1475
0.21628,-11.435,5.9624,0.43149,0.7138,-2.0846,4.1835
0.30844,-11.788,6.0213,0.74531,0.58215,-2.0687,4.2015
0.39413,-12.454,6.0017,0.8826,0.47037,-2.0568,4.1728
0.48514,-12.101,5.7467,0.72569,0.38057,-2.0501,4.1072
0.55096,-12.16,5.8448,0.72569,0.34422,-2.0351,4.0186
0.61304,-11.905,5.9036,0.96105,0.43188,-2.0162,2.9227
0.65488,-11.748,5.7467,1.118,0.51252,-1.9963,2.7516
0.67297,-11.16,5.4721,1.216,0.59529,-1.959,3.7098
0.68185,-10.493,5.0995,1.0591,0.66554,-1.9151,3.6001
0.70731,-9.6301,4.766,1.0199,0.73121,-1.8714,3.4828
0.68121,-8.8064,4.6287,0.86299,0.81123,-1.8262,3.3607
0.66766,-8.218,4.4326,0.86299,0.33934,-1.7801,3.2241
0.64218,-7.1785,4.158,0.78453,0.36285,-1.7251,3.0769
0.63156,-6.3351,3.805,0.64724,1.1109,-1.6573,1.4887
0.60767,-5.5702,3.6677,0.64724,1.1887,-1.5831,1.2541
0.59238,-5.0406,3.9227,0.78453,1.2095,-1.4945,2.5757
0.56378,-4.6287,4.2953,1.0983,1.182,-1.3873,2.394
0.53128,-4.6091,4.3345,1.118,1.0968,-1.2688,2.2126
0.49149,-4.2757,4.1776,1.0199,0.93615,-1.149,2.0424
0.46051,-4.2757,4.3345,1.1964,0.90591,-1.0357,1.8805
0.43057,-4.3738,4.4522,1.1768,1.0082,-0.92821,1.7003
0.4075,-4.4522,4.4522,0.96105,-0.71074,2.2013,-3.2635
0.38226,-5.0406,4.5307,0.68647,-1.1289,2.1881,-2.9172
0.39594,-5.0798,4.9229,0.74531,-1.639,2.1564,-4.6866
0.39352,-5.2956,4.7072,0.54917,-2.2171,2.0962,-4.5891
0.39145,-5.8448,4.8445,0.31381,-2.814,2.0094,-4.4181
0.4028,-6.3351,4.6876,0.098066,-3.3839,1.9325,-4.1893
0.40375,-6.7862,4.8445,0,-3.8839,1.8717,-3.9089
0.39639,-7.8061,4.9426,0.078453,-4.306,1.8143,-3.5986
0.39481,-8.4533,5.021,-0.098066,-4.5989,1.7743,-1.146
0.38852,-9.6105,5.5702,-0.078453,-4.7748,1.726,-0.98899
0.38821,-10.807,5.8644,-0.13729,-4.8353,1.671,-2.606
0.40872,-11.807,6.1586,-0.15691,-4.7226,1.6365,-2.3054
0.42426,-12.827,6.6489,0.31381,-4.4557,1.6011,-2.0207
0.45477,-13.514,6.9627,0.8826,-4.0742,1.5678,-1.7779
0.48505,-13.239,7.4531,1.5102,-3.6032,1.5427,-1.5513
0.52179,-13.572,7.9434,1.6671,-3.0754,1.5214,-1.3335
0.5675,-12.513,7.6688,1.2749,-2.5565,1.4966,-0.81337
0.60431,-11.846,7.1196,0.72569,-2.0898,1.4594,-0.90713
0.6384,-11.435,6.0409,0.078453,-1.6698,1.4157,-0.85918
0.65204,-10.277,4.7464,-0.45111,-1.3045,1.3711,-0.75778
0.65936,-9.6301,3.8246,-0.41188,-0.98869,1.3259,-0.69028
0.63998,-9.1398,3.3539,-0.23536,-0.74281,1.2779,-0.66462
0.60074,-9.0221,3.197,-0.098066,-0.60109,1.237,-0.67989
0.54181,-8.826,3.4912,0.25497,-0.57269,1.2086,-0.72968
0.46808,-8.7475,4.1188,0.43149,-0.64966,1.1762,-1.2147
0.38672,-8.0807,4.7072,0.41188,-0.8097,1.1322,-1.1994
0.31729,-7.4138,5.4721,0.52956,-1.0085,1.0812,-0.99388
0.25482,-6.9823,5.7271,0.5884,-1.1936,1.0256,-1.0702
0.18863,-6.6097,5.7859,0.41188,-1.3234,0.96425,-1.131
0.14438,-6.3155,5.4721,0.078453,-1.3711,0.90378,-1.1756
0.10022,-6.237,5.0014,-0.098066,-1.3332,0.85246,-1.2052
0.061066,-6.139,4.8641,-0.21575,-1.2248,0.80268,-1.2199
0.033936,-6.1782,5.0602,-0.078453,1.7877,-1.8182,3.0565
0.018005,-6.237,5.5506,-0.078453,1.8063,-1.868,3.1872
-0.002533,-6.1782,5.5506,-0.45111,1.7978,-1.9157,2.3366
-0.028931,-6.6293,6.0605,-0.54917,1.744,-1.9468,2.4713
-0.059692,-6.4135,6.3351,-0.70608,1.6435,-1.9722,2.602
-0.10294,-6.237,6.6881,-0.82376,1.5201,-2.0039,2.7199
-0.12573,-6.0997,6.6489,-0.92183,1.3946,-2.0415,2.8338
-0.13715,-6.2566,6.7274,-0.86299,1.273,-2.0831,2.9425
-0.16058,-6.5508,6.492,-0.70608,0.90622,-2.1319,4.0458
-0.16074,-6.9235,6.1782,-0.56879,0.7422,-2.1951,4.0525
-0.15067,-7.1196,5.884,-0.52956,0.59682,-2.2691,3.3344
-0.11981,-7.8845,5.5702,-0.39227,0.49602,-2.3256,3.4905
-0.085815,-7.8845,5.2368,-0.2942,0.4218,-2.3359,3.6438
-0.028687,-8.218,5.0995,-0.2942,0.33506,-2.3036,3.781
0.035614,-8.6102,4.9426,-0.23536,1.168,-2.2672,3.8976
0.10953,-8.9044,4.8641,-0.13729,1.0547,-2.2355,3.9923
0.18689,-9.7086,5.0995,0.019613,0.30788,-2.1845,3.0497
0.26901,-10.63,5.3937,0.05884,0.35583,-2.1154,2.9401
0.36844,-11.023,5.8055,0.019613,0.36194,-2.0415,3.996
0.46274,-11.219,5.884,0.21575,0.41783,-1.9734,3.8671
0.56262,-11.415,5.9428,0.62763,0.49114,-1.9184,3.7025
0.66464,-10.866,6.0605,0.86299,0.55039,-1.8411,3.5271
0.76443,-10.748,6.0997,1.0199,0.28222,-1.7575,3.3726
0.84558,-11.023,5.9036,0.41188,0.2755,-1.6982,3.2
0.91229,-12.376,5.7075,0.47072,1.0721,-1.3647,2.0986
0.97269,-13.298,5.8448,0.80415,1.1698,-1.4313,2.2138
1,-13.239,5.9624,1.3729,1.2746,-1.4939,1.4896
1,-12.611,6.0213,1.8044,1.3796,-1.5531,1.5849
1,-10.944,5.0995,1.6279,1.4844,-1.6096,1.6817
1,-9.689,4.6091,1.1964,1.5828,-1.664,1.7837
1,-8.6102,4.1776,0.72569,1.6683,-1.7165,1.8854
1,-7.7473,4.1188,0.56879,1.7376,-1.7681,1.9881
0.98843,-6.8647,3.805,0.72569,-0.74403,2.6463,-3.2403
0.9751,-6.7274,3.8442,0.72569,-0.98166,2.6121,-2.8772
0.96429,-5.884,3.7461,0.68647,-1.2733,2.5586,-4.5213
0.95395,-5.6682,3.4519,0.5884,-1.657,2.4798,-4.4095
0.94269,-5.0995,3.3931,0.17652,-2.0986,2.365,-4.3042
0.93469,-4.7464,3.3735,0.078453,-2.5473,2.237,-4.1105
0.92471,-4.4522,3.197,0.078453,-2.9835,2.1124,-3.8707
0.89737,-4.4522,3.4519,0.15691,-3.3729,1.9923,-3.583
0.86627,-4.2757,3.4519,0.31381,-3.6557,1.8903,-1.1432
0.84219,-4.4522,3.8442,0.41188,-3.81,1.8103,-1.0076
0.81339,-5.0602,4.2169,0.52956,-3.8344,1.7477,-2.5394
0.77499,-5.3544,4.4914,0.47072,-3.7409,1.6823,-2.2397
0.755,-6.0017,4.8445,0.54917,-3.5409,1.6191,-1.9783
0.72232,-6.6489,5.021,0.33343,-3.2416,1.5788,-1.737
0.71609,-7.5511,4.8445,0.27459,-2.8735,1.5458,-1.5131
0.7171,-8.3357,4.766,0.21575,-2.4661,1.5094,-1.3097
0.71432,-9.7478,4.9033,0.31381,-0.1909,0.6692,-3.6441
0.73251,-10.944,5.0798,0.41188,-0.31765,0.79779,-3.8475
0.74786,-12.141,5.4721,0.64724,-0.46242,0.93096,-2.3482
0.78738,-13.102,6.0997,1.0983,-0.61239,1.0736,-2.5879
0.81573,-14.082,6.3155,1.2553,-0.74373,1.2239,-2.817
0.84784,-13.729,6.9627,1.6475,-0.82497,1.3864,-3.0323
0.89633,-13.376,7.3158,1.9025,-0.85277,1.5595,-3.2358
0.92957,-12.298,7.1,1.3729,-0.84055,1.7397,-3.4361
0.97025,-11.69,6.2763,0.70608,-0.79138,1.9258,-4.6652
0.98447,-11.003,5.0995,0.078453,-0.70585,2.0974,-4.6527
0.98322,-10.395,4.2757,-0.21575,-0.59895,2.2501,-4.0293
0.97699,-9.4732,3.7658,-0.078453,-0.50274,2.383,-4.1966
0.94263,-8.9633,3.3931,0.05884,-0.42761,2.4942,-4.3362
0.89502,-8.6887,3.4323,0.078453,-0.40531,2.5812,-4.459
0.83194,-8.218,3.9619,0.098066,-0.44135,2.6374,-4.569
0.75488,-7.9826,4.766,0.41188,-0.54398,2.6594,-4.6352
0.66827,-7.9826,5.5506,0.96105,2.252,-1.9749,3.7571
0.60214,-7.8649,6.0605,1.1964,2.255,-2.0214,3.9578
0.56284,-7.5903,6.2763,1.0983,2.2703,-2.0672,2.6686
0.52255,-6.9627,5.6486,0.37265,2.2901,-2.1151,2.8482
0.47244,-6.492,5.021,0.11768,2.3024,-2.1664,3.0238
0.43973,-6.3351,4.766,0.078453,2.2733,-2.2199,3.1997
0.39777,-6.1978,4.5895,0.15691,2.2651,-2.2767,3.3775
0.34433,-5.884,4.5307,-0.21575,2.2614,-2.3253,3.5659
0.29892,-5.9232,5.3937,-0.23536,1.7446,-2.368,4.6756
0.22552,-6.1782,6.1782,0.019613,1.3763,-2.4065,4.6435
0.16641,-6.3547,6.7274,0.21575,1.0492,-2.4337,4.1661
0.11542,-6.5116,6.8058,0.23536,0.78405,-2.4496,4.3524
0.07254,-6.492,6.5901,0.23536,0.49266,-2.4377,4.5079
0.045105,-6.8254,6.3155,0.078453,0.20036,-2.4034,4.638
0.02652,-7.1981,5.884,-0.078453,2.1805,-2.3784,4.6994
0.016266,-7.4923,5.531,-0.078453,2.0131,-2.3671,4.6951
0.016541,-7.355,5.2564,-0.2942,0.20495,-0.92882,1.15
0.02829,-7.7473,5.2564,-0.19613,0.29077,-1.0244,1.2581
0.036713,-8.0807,5.2368,-0.25497,0.41417,-1.113,0.62614
0.0625,-8.5514,5.3152,-0.31381,0.56933,-1.1955,0.71502
0.085449,-9.0025,5.4721,-0.23536,0.75656,-1.2746,0.79687
0.13165,-9.8655,5.6486,-0.13729,0.95448,-1.3522,0.87842
0.19308,-10.552,5.7859,-0.15691,1.1515,-1.4245,0.96333
0.28012,-11.493,6.0213,0.05884,1.3433,-1.4923,1.0519
0.3905,-11.984,6.0213,0.05884,1.5241,-1.5571,2.2889
0.51575,-12.317,5.8055,0.25497,1.6979,-1.6179,2.4771
0.63705,-12.435,5.7075,0.52956,1.8543,-1.6777,1.3775
0.73654,-12.474,6.1782,0.84337,1.9847,-1.7355,1.5082
0.83386,-12.768,6.8058,1.0199,2.0904,-1.7868,1.6444
0.93658,-12.925,6.9627,0.96105,2.1741,-1.8375,1.7889
0.99707,-12.69,6.7274,1.3337,2.2312,-1.8879,1.9477
1,-12.121,6.3351,1.3729,2.2617,-1.9319,2.1136
1,-11.121,5.021,1.216,-2.3311,2.4355,-2.2211
1,-10.572,4.1384,0.5884,-2.7431,2.3289,-1.956
1,-8.826,3.6677,0.68647,-3.1432,2.2153,-4.2904
1,-7.9042,3.3539,0.72569,-3.5265,2.094,-3.9749
1,-6.9431,3.3735,0.78453,-3.8472,1.9841,-3.6188
1,-6.2959,3.5108,0.94144,-4.0537,1.9041,-3.2299
1,-5.884,3.5892,1.1768,-4.1389,1.847,-2.8494
1,-5.6094,3.8246,1.3533,-4.0839,1.7987,-2.5158
1,-5.531,3.7658,1.1572,-0.018021,-0.049786,-2.9144
1,-4.9818,3.2166,0.86299,0.038179,0.044899,-3.1768
0.98145,-4.668,3.0401,0.43149,0.07422,0.14569,-1.4539
0.96933,-4.3149,2.8635,0.21575,0.094684,0.24984,-1.689
0.95511,-4.2169,3.0204,0,0.090408,0.3653,-1.919
0.93488,-4.5307,3.197,0.019613,0.071777,0.48655,-2.1579
0.90033,-4.7268,3.4519,-0.078453,0.035736,0.61178,-2.4016
0.86972,-5.531,3.8442,0.078453,-0.01405,0.74312,-2.6524
0.82083,-6.0017,4.3934,0.019613,-0.076969,0.87415,-4.784
0.78946,-7.1196,4.7072,0.05884,-0.16982,1.0214,-4.9315
0.76038,-7.7669,4.9622,-0.078453,-0.28191,1.1884,-3.4395
0.73526,-8.9829,5.2171,-0.19613,-0.37782,1.3607,-3.7076
0.70871,-10.022,5.4329,-0.078453,-0.45693,1.5351,-3.9517
0.70609,-11.415,5.6486,-0.19613,-0.53023,1.7074,-4.1747
0.67819,-12.454,5.9624,-0.05884,-0.59987,1.8784,-4.3949
0.70474,-13.533,6.5312,0.33343,-0.66737,2.0436,-4.6013
0.71564,-14.024,6.5901,0.43149,-0.72113,2.1921,-4.7461
0.72186,-14.788,6.8843,0.90221,-0.77152,2.3292,-4.5592
0.71384,-14.318,7.1589,1.1964,-0.87965,2.4429,-5.0421
0.70578,-13.376,7.355,1.1768,-1.0708,2.5137,-5.1395
0.69742,-11.65,6.8254,0.54917,-1.2599,2.5604,-5.1859
0.69312,-10.474,5.5506,-0.098066,-1.4444,2.583,-5.1493
0.68063,-9.8459,4.2953,-0.35304,-1.6738,2.5644,-5.072
0.66898,-9.4732,3.55,-0.15691,-1.9603,2.5168,-4.9187
0.6402,-9.1594,3.4519,0.078453,-0.22144,0.29841,-0.17562
0.61786,-8.9633,3.3539,0.33343,-0.019548,0.1741,0.01069
0.58868,-8.5514,3.7658,0.78453,0.14294,0.043982,-0.94928
0.52386,-8.1199,4.4522,0.96105,0.27092,-0.087965,-0.86101
0.46887,-7.4531,5.0602,1.0983,0.37415,-0.21961,-0.76816
0.39432,-7.0412,5.3937,1.0983,0.45357,-0.35033,-0.65668
0.33023,-6.7862,5.7859,1.1964,0.50763,-0.47647,-0.51801
0.27158,-6.4724,5.4721,0.78453,0.53878,-0.59804,-0.35552
0.21552,-6.4528,5.0995,0.64724,0.56047,-0.71532,1.1118
0.15967,-6.3351,4.7856,0.47072,0.57024,-0.82864,1.2223
0.10327,-6.4135,4.8445,0.47072,0.56352,-0.93432,0.19487
0.053589,-6.5508,5.0602,0.41188,0.55955,-1.0348,0.36835
0.010895,-6.4528,5.6486,0.33343,0.57116,-1.135,0.53817
-0.034393,-6.2959,6.0997,0.39227,0.60689,-1.2318,0.70463
-0.082214,-6.6293,6.5116,0.39227,0.67714,-1.3216,0.85674
-0.11768,-6.2959,6.5116,0.27459,0.78405,-1.4065,0.99082
-0.16037,-6.5508,6.5901,0.25497,1.3186,-1.4862,2.0491
-0.18948,-6.9431,6.5116,0.23536,1.5165,-1.5601,2.1875
-0.21732,-7.3942,6.4135,0.21575,1.7187,-1.6313,1.3295
-0.22873,-7.7473,5.9624,-0.039227,1.9181,-1.6955,1.4377
-0.22839,-8.218,5.5898,-0.15691,2.113,-1.7504,1.5528
-0.21741,-8.6102,5.276,-0.35304,2.3094,-1.8063,1.6719
-0.20288,-8.9829,5.2368,-0.31381,0.9334,-1.8595,1.7941
-0.17642,-9.1594,5.2171,-0.47072,1.1185,-1.908,1.9203
-0.14313,-9.6497,5.2368,-0.39227,2.755,-1.9477,3.3964
-0.10873,-9.9439,5.2564,-0.37265,2.8369,-1.9801,3.591
-0.047424,-10.709,5.3937,-0.37265,2.8897,-2.0085,2.3378
0.024536,-11.317,5.5506,-0.23536,2.9154,-2.0391,2.5058
0.098694,-12.435,5.5898,-0.078453,2.9251,-2.0705,2.6857
0.19754,-12.729,5.8448,-0.039227,2.9291,-2.098,2.8634
0.27472,-13.004,6.2763,0.25497,2.4932,-2.1206,3.0366
0.35287,-13.043,6.7274,0.78453,2.6435,-2.1472,3.2089
0.42065,-12.729,6.4135,1.0199,0.1295,-0.20892,-2.0589
0.48669,-12.886,5.884,0.96105,0.065973,-0.11423,-2.2425
0.5538,-11.846,5.6486,0.90221,0.0009163,-0.01741,-0.54092
0.5979,-11.435,5.3348,0.96105,-0.053451,0.076664,-0.85552
0.63382,-10.258,4.8445,0.96105,-0.099571,0.16371,-1.1472
0.65335,-9.1398,4.1776,0.96105,-0.14539,0.25107,-1.4099
0.64108,-8.3553,3.8442,0.8826,-0.1857,0.33353,-1.6454
0.64914,-7.4334,3.5108,0.86299,-0.219,0.4102,-1.8616
0.64127,-6.7862,3.3931,0.8826,-0.23915,0.48839,-3.5494
0.63022,-6.3939,3.3735,0.8826,-0.24251,0.56566,-3.718
0.60547,-5.9821,3.6677,1.0983,-0.23335,0.64813,-2.4361
0.59793,-5.5113,3.3735,0.8826,-0.22358,0.74159,-2.6344
0.59726,-4.9818,3.197,0.84337,-0.22205,0.84269,-2.8304
0.58017,-4.9229,3.2166,0.84337,-0.23854,0.94898,-3.0113
0.57007,-4.8249,3.55,0.90221,-0.28222,1.066,-3.1857
0.55573,-4.9818,3.7658,1.0003,-0.34636,1.1881,-3.3677
0.53546,-4.6876,3.8442,0.86299,-0.39584,1.314,-4.579
0.51303,-4.766,3.8442,0.78453,-0.41203,1.4505,-4.5888
0.4917,-5.4721,4.1384,0.84337,-0.40592,1.5867,-3.8857
0.46579,-5.6094,4.2757,0.62763,-0.3653,1.7226,-4.0555
0.43469,-6.4135,4.4522,0.70608,-0.29444,1.8625,-4.215
0.41428,-6.8647,4.7856,0.52956,-0.22113,1.9969,-4.3576
0.38437,-7.7669,5.3348,0.52956,-0.21228,2.1011,-4.4737
0.34613,-8.5122,5.6486,0.52956,-0.28924,2.1732,-4.5467
0.3136,-9.4536,5.7075,0.47072,-3.2046,2.2352,-3.7596
0.29404,-10.101,5.7075,0.15691,-0.49388,2.2706,-3.499
0.28552,-10.944,5.7859,0.11768,-0.75961,2.2761,-4.5818
0.27866,-11.984,6.1782,0.27459,-1.0763,2.2544,-4.5225
0.26663,-12.729,6.747,0.8826,-1.4343,2.208,-4.3903
0.26385,-13.239,6.9431,1.3337,-1.8699,2.1405,-4.2791
0.26633,-13.631,7.6688,1.6867,-2.357,2.0653,-4.1551
0.28482,-13.082,7.61,1.1768,-2.8078,1.9975,-3.9697
0.30133,-12.513,7.0412,0.80415,0.24435,0.17471,-0.12126
0.32767,-11.435,6.2566,0.47072,0.39645,0.07086,0.057421
0.35666,-10.493,5.2564,-0.19613,0.52443,-0.036957,-0.78649
0.36844,-9.7674,4.4718,-0.31381,0.62766,-0.14752,-0.72785
0.34973,-9.2379,4.1384,-0.2942,0.69914,-0.25565,-0.64874
0.31863,-8.6691,4.0796,-0.13729,0.73609,-0.36041,-0.55161
0.26187,-8.5122,4.1188,0.019613,0.75686,-0.46487,-0.43433
0.19543,-8.5122,4.1776,0.25497,0.77549,-0.5678,-0.28741
0.12061,-8.6102,4.5307,0.33343,0.83505,-0.66676,1.2147
0.060242,-8.3749,5.0995,0.5884,0.87232,-0.76205,1.3332
0.0067749,-7.6688,5.374,0.54917,0.93126,-0.85521,0.24435
-0.047089,-7.1785,5.3937,0.74531,1.0137,-0.94195,0.43097
-0.091187,-6.4528,5.1583,0.52956,1.106,-1.0241,0.61484
-0.13654,-6.0997,4.7856,0.15691,1.2034,-1.106,0.78954
-0.15942,-6.0017,4.5307,0.098066,0.79382,-1.1854,0.9499
-0.1937,-6.0997,4.6484,0.31381,0.81092,-1.2578,1.0904
-0.23053,-6.1782,4.8053,0.098066,1.6124,-1.3244,2.1954
-0.27258,-6.237,5.0995,0.17652,1.7688,-1.3925,2.3347
-0.30814,-6.1978,5.4721,0.05884,1.9261,-1.4548,1.4493
-0.3461,-6.4528,5.9624,-0.05884,2.0702,-1.5116,1.5656
-0.37891,-6.4724,6.3547,-0.098066,2.1976,-1.5626,1.6854
-0.40045,-6.3547,6.6489,-0.35304,2.3082,-1.6096,1.806
-0.42947,-6.3939,6.6489,-0.50995,1.3219,-1.6533,1.9313
-0.44345,-6.7862,6.3547,-0.23536,1.4621,-1.6918,2.0608
-0.45773,-6.9235,6.2174,-0.37265,-1.4261,0.9447,-0.87965
-0.45978,-7.4923,6.0409,-0.23536,-1.2868,0.87506,-0.83505
-0.4444,-7.6688,5.7075,-0.39227,-1.1035,0.7981,-0.97128
-0.4386,-8.1199,5.3937,-0.37265,-0.8882,0.7086,-0.96822
-0.41138,-8.5122,5.2171,-0.37265,-0.65424,0.60415,-0.96944
-0.37766,-8.826,5.0995,-0.23536,-0.40409,0.49572,-0.96731
-0.32733,-9.2967,5.0995,-0.23536,-0.16096,0.38759,-0.95264
-0.29834,-10.572,5.374,0.05884,0.057727,0.27947,-0.92057
-0.2114,-11.121,5.4721,0.019613,0.40225,-0.42241,-1.339
-0.1004,-12.278,5.5702,-0.098066,0.31429,-0.33384,-1.5388
0.0099487,-12.16,5.7859,0.098066,0.22633,-0.24587,-0.27245
0.10873,-11.984,6.0997,0.54917,0.15088,-0.16127,-0.46426
0.2001,-12.101,6.492,1.0003,0.096517,-0.076969,-0.63713
0.29752,-12.121,6.6685,0.8826,0.056505,0.0064141,-0.80787
0.37015,-12.513,6.4135,0.74531,0.02474,0.087659,-0.97769
0.44809,-12.435,5.9624,0.72569,-0.002138,0.16646,-1.1521
0.49957,-11.964,5.4721,0.64724,-0.024435,0.24923,-3.1243
0.52908,-11.278,4.9033,0.64724,-0.045815,0.34025,-3.3451
0.5546,-10.63,4.7072,0.68647,-0.077274,0.4328,-1.7468
0.54797,-9.7674,4.4914,0.64724,-0.12248,0.52993,-1.963
0.53806,-8.8652,4.3934,0.64724,-0.18234,0.64049,-2.1893
0.51685,-8.1199,4.4326,0.62763,-0.24496,0.75931,-2.4264
0.49203,-7.3942,4.3738,0.8826,-0.31032,0.87965,-2.6603
0.48105,-6.9823,4.0011,0.78453,-0.38332,1.0003,-2.8915
0.45917,-6.5508,3.8638,0.72569,0.43494,-1.8088,2.4483
0.45047,-6.237,3.903,0.64724,0.51374,-1.7446,2.1912
0.45425,-6.0997,3.805,0.8826,0.57269,-1.6753,3.5555
0.44675,-5.4721,3.9619,0.94144,0.58918,-1.605,3.4257
0.4342,-4.9033,3.8638,0.78453,0.55955,-1.5327,3.2834
0.42255,-4.2757,3.8442,0.47072,0.55283,-1.4386,3.127
0.41422,-4.1188,3.8442,0.43149,0.56749,-1.3347,2.9459
0.37817,-4.5111,3.9619,0.52956,0.55986,-1.244,2.7107
0.35843,-4.4326,4.0011,0.54917,0.55253,-1.1512,0.16402
0.32083,-5.0602,4.2169,0.49033,0.56872,-1.0501,-0.058338
0.29297,-5.5506,4.3934,0.41188,0.59132,-0.9444,1.9157
0.2562,-6.0801,4.7464,0.47072,0.60812,-0.84238,1.6118
0.22968,-6.7666,5.1191,0.52956,0.61361,-0.74984,1.2966
0.20276,-7.355,5.3937,0.5884,0.59407,-0.66615,0.97983
0.17245,-7.7473,5.5898,0.54917,0.54856,-0.58399,0.67806
0.16788,-8.6887,5.374,0.078453,0.48381,-0.50335,0.405
0.15848,-9.7674,5.2564,0.23536,0.50977,0.016493,0.49908
0.15759,-11.199,5.6486,0.33343,0.51862,-0.090103,0.66401
0.18228,-12.513,6.1782,0.78453,0.5284,-0.19395,-0.44013
0.20166,-13.376,6.6489,1.2749,0.54489,-0.29993,-0.31582
0.22772,-13.317,6.9627,1.1572,0.57391,-0.40928,-0.17349
0.2587,-13.062,7.2765,1.0003,0.62339,-0.51496,-0.011301
0.29477,-12.141,6.9039,0.47072,0.43433,-0.61606,0.15974
0.31696,-11.65,6.4135,0.39227,0.48472,-0.71441,0.32956
0.3446,-10.944,5.8055,0.17652,-2.4444,1.4255,-0.99021
0.34311,-10.317,5.5506,0.05884,-2.3442,1.3851,-0.97586
0.34427,-9.9439,5.3348,-0.15691,-2.2251,1.3509,-1.6506
0.30396,-9.7478,5.3937,-0.05884,-2.0879,1.3225,-1.4734
0.25653,-9.4732,5.0995,-0.05884,-1.9358,1.292,-1.3241
0.21524,-9.1398,4.9229,0.019613,-1.7834,1.2666,-1.1964
0.15268,-8.6102,5.021,0.05884,-1.657,1.2489,-1.095
0.095367,-7.9042,5.0798,0.25497,-1.5644,1.2379,-1.0281
0.036957,-7.4138,5.276,0.54917,-1.5033,1.2175,-0.9502
-0.027008,-6.8058,5.0995,0.47072,-1.4801,1.1851,-0.94318
-0.092438,-6.6489,4.9033,0.33343,-1.4792,1.1451,-0.97647
-0.14154,-6.6489,4.7856,0.098066,-1.467,1.095,-0.9728
-0.18927,-6.3351,4.7856,0.098066,-1.4251,1.0376,-0.96578
-0.22504,-6.237,4.9229,0.21575,-1.3494,0.97616,-0.95967
-0.26346,-6.5508,5.2171,0.27459,-1.2376,0.91447,-0.95631
-0.30566,-6.1782,5.5506,0.17652,-1.0913,0.8488,-0.95387
-0.3407,-6.4135,6.0017,0.25497,-0.91966,0.77427,-0.65027
-0.37247,-6.3547,6.1978,0.25497,-0.73059,0.69028,-0.5507
-0.3963,-6.5508,6.4135,0.11768,-0.52229,0.6017,-0.93707
-0.41504,-6.7862,6.2174,-0.098066,-0.30665,0.50457,-0.9276
-0.42236,-7.0412,5.9428,-0.21575,-0.099876,0.40531,-0.90378
-0.41666,-7.1196,5.7467,-0.15691,0.085216,0.31001,-0.86468
-0.45224,-7.4334,5.6879,-0.21575,0.2364,0.21625,-0.81001
-0.44476,-7.7669,5.4721,-0.25497,0.3543,0.11912,-0.73731
-0.42181,-8.0415,5.2564,-0.2942,0.12431,-0.1237,-2.4028
-0.38147,-8.8456,5.1583,-0.35304,0.12309,-0.054672,-2.6484
-0.32938,-8.8456,5.2368,-0.098066,0.12523,0.013439,-1.0989
-0.28516,-10.022,5.3937,-0.098066,0.12889,0.087354,-1.296
-0.22504,-10.277,5.4721,-0.23536,0.13653,0.16646,-1.4969
-0.14941,-11.003,5.8055,-0.05884,0.13592,0.24893,-1.7132
-0.064117,-11.219,5.9624,0.15691,0.13042,0.33628,-1.9438
0.032806,-11.69,6.1978,0.47072,0.1124,0.42577,-2.1771
0.12775,-11.807,6.5116,1.1768,-0.09499,-2.1188,3.3961
0.23074,-12.062,6.6489,1.1768,-0.018937,-2.0757,3.1511
0.30402,-12.513,6.6489,1.0983,0.094684,-2.0238,4.4214
0.38498,-12.886,6.3351,1.0591,0.22083,-1.9569,4.2837
0.44427,-12.945,6.2763,1.3337,0.35705,-1.8738,4.134
0.48599,-12.278,5.9036,1.4122,0.50488,-1.7785,3.9835
0.50409,-11.435,5.1191,1.3337,0.66157,-1.6719,3.8197
0.5051,-10.493,4.4522,1.118,0.81612,-1.5565,3.6224
0.49432,-9.7674,4.3149,1.1964,0.95326,-1.4322,1.3671
0.46945,-8.218,4.0011,1.0591,1.0553,-1.3051,1.0623
0.44427,-7.1785,3.7461,0.96105,1.1243,-1.1805,2.9053
0.42444,-6.3351,3.55,1.0199,1.1661,-1.0678,2.6652
0.38327,-5.8448,3.6677,1.0983,1.1631,-0.96272,2.4251
0.34857,-5.5113,3.903,1.1964,1.0925,-0.8659,2.1744
0.31104,-5.2956,4.0207,1.1964,0.97769,-0.77122,1.916
0.28656,-5.1387,4.0011,1.1572,0.85796,-0.68081,1.6524
0.26343,-4.7464,3.6873,0.8826,0.71471,-0.60292,-0.6918
0.24545,-4.5895,3.5108,0.78453,0.56077,-0.53695,-0.8998
0.21393,-4.8837,3.4519,0.72569,0.42608,-0.47373,0.77
0.20456,-4.5111,3.4519,0.41188,0.31734,-0.41569,0.49816
0.18271,-4.7268,3.5892,0.47072,0.23121,-0.36194,0.23457
0.14093,-5.1583,3.6481,0.43149,0.17593,-0.31032,-0.011606
0.12216,-5.7271,3.8442,0.47072,0.14722,-0.25717,-0.24679
0.092377,-6.3155,4.2757,0.47072,0.12737,-0.19456,-0.47189
0.073792,-7.0804,4.9229,0.54917,-3.9908,1.543,-1.153
0.052399,-7.6492,5.3348,0.54917,-3.8723,1.54,-1.0556
0.064606,-8.4337,5.276,0.39227,-3.6295,1.5293,-2.3088
0.06723,-9.2771,5.2564,0.23536,-3.2764,1.5201,-2.0461
0.070313,-10.493,5.3152,0.019613,-2.8479,1.5137,-1.8063
0.083374,-11.493,5.6486,0.11768,-2.3983,1.5064,-1.5986
0.08844,-13.062,6.3547,0.62763,-1.9725,1.5003,-1.4297
0.10675,-13.474,6.6489,0.70608,-1.5886,1.4914,-1.2862
0.14111,-14.18,6.8843,1.216,-1.2764,1.4817,-1.2544
0.17728,-14.043,7.61,1.3141,-1.0452,1.4746,-1.2905
0.20929,-13.514,7.8453,1.0199,-0.89064,1.4581,-1.0073
0.24271,-11.905,7.355,0.52956,-0.81917,1.4288,-1.0021
0.25977,-10.493,6.1978,-0.05884,-0.82803,1.3919,-1.0339
0.28436,-9.5517,5.0014,-0.41188,-0.91783,1.3497,-1.0766
0.2789,-9.3359,4.3345,-0.47072,-1.0782,1.3042,-1.1344
0.2605,-9.2967,3.9227,-0.35304,-1.281,1.2547,-1.1997
0.22696,-9.0613,3.903,-0.23536,-1.7853,1.1991,-0.89797
0.1778,-8.6887,4.2365,0.019613,-1.8063,1.1359,-0.81612
0.11481,-8.7475,4.7856,0.62763,-1.733,1.0565,-1.2978
0.049011,-8.3945,5.3937,0.90221,-1.554,0.96272,-1.2712
-0.0092163,-8.0218,5.8644,0.8826,-1.2911,0.85888,-1.2205
-0.067932,-7.2765,5.884,0.78453,-0.96792,0.74709,-1.1524
-0.11594,-6.8647,5.7271,0.72569,-1.496,0.63194,-1.0705
-0.15167,-6.6293,5.3937,0.72569,-1.6784,0.5116,-0.98227
-0.20139,-6.237,4.9229,0.47072,0.080023,0.39156,-0.1127
-0.23193,-6.3351,4.6287,0.25497,0.36072,0.27306,0.029322
-0.27551,-6.3351,4.5307,0.098066,0.59407,0.15577,-0.73945
-0.31076,-6.7274,4.9622,0.15691,0.77091,0.035736,-0.66554
-0.36349,-6.4724,5.5702,0.15691,0.8882,-0.089492,-0.5846
-0.40646,-6.492,6.0213,0.25497,0.95661,-0.21136,-0.48686
-0.45648,-6.3155,6.3351,0.078453,-0.61025,-0.32254,-0.37446
-0.49344,-6.2959,6.3743,0.078453,-0.25107,-0.43005,-0.24832
-0.52472,-6.6293,6.2763,-0.039227,0.1573,-1.701,3.9328
-0.53867,-7.2765,6.0017,-0.2942,-0.24221,-1.6979,3.7816
-0.5372,-7.355,5.884,-0.21575,-0.59712,-1.7126,4.4911
-0.52243,-7.8061,5.6879,-0.2942,-0.83872,-1.7287,4.4764
-0.49002,-8.218,5.3937,-0.2942,-0.90469,-1.719,4.4474
-0.46194,-8.1787,5.1583,-0.2942,-0.87873,-1.7071,4.3717
-0.42264,-9.1398,5.2171,-0.37265,-0.78771,-1.7052,4.2214
-0.36969,-9.7674,5.1583,-0.45111,-0.59651,-1.6893,4.072
-0.31192,-10.474,5.3937,-0.25497,-0.33231,-1.6567,2.6032
-0.24234,-11.121,5.7075,-0.15691,-0.034208,-1.6066,2.3983
-0.16751,-11.572,5.884,0.078453,0.27581,-1.5391,3.627
-0.07016,-11.435,5.7271,0.25497,0.59529,-1.4707,3.4743
0.03537,-11.356,5.6486,0.47072,0.90683,-1.3986,3.3188
0.1297,-11.336,6.0213,1.0983,1.182,-1.3121,3.1521
0.21542,-11.748,6.6881,1.4318,1.4288,-1.2223,2.9709
0.29813,-12.141,6.9823,1.2749,1.6448,-1.142,2.7877
0.36194,-12.572,6.8058,1.4122,1.8085,-1.0577,0.95692
0.42963,-12.886,6.5312,1.5887,1.9041,-0.97464,0.72113
0.46609,-12.513,5.8448,1.4122,1.8986,-0.91019,2.1906
0.49597,-11.905,5.1583,1.3729,1.7843,-0.85582,1.9893
0.49594,-10.748,4.3934,1.2749,1.5879,-0.80909,1.792
0.47891,-9.4732,3.805,0.8826,1.335,-0.77183,1.6002
0.45084,-8.4337,3.6677,0.94144,1.0391,-0.73854,1.3946
0.4292,-7.6688,3.5108,0.86299,0.72021,-0.69761,1.179
0.37036,-6.9627,3.2754,0.86299,2.5769,-1.7547,4.4615
0.33612,-6.4724,3.5304,0.96105,2.4752,-1.7489,4.4902
0.30252,-6.0017,3.9815,1.0199,2.3176,-1.7404,3.576
0.26791,-5.4721,4.4326,1.0199,2.0956,-1.7315,3.7638
0.24905,-5.1387,4.4522,0.8826,1.8036,-1.7333,3.9386
0.23016,-4.8445,4.2169,0.74531,1.4193,-1.7449,4.1013
0.21777,-4.668,3.6677,0.47072,0.97738,-1.7428,4.2473
0.19449,-4.413,3.0204,0.11768,0.55894,-1.719,4.3756
0.17786,-4.4522,3.0597,0,-2.3582,1.5736,-1.0299
0.14941,-4.7464,3.3539,-0.078453,-2.0024,1.5287,-1.0281
0.12186,-4.9033,3.805,0,-1.6231,1.489,-1.7648
0.1185,-5.6682,4.3934,0.33343,-1.233,1.4459,-1.5479
0.082794,-5.9232,5.021,0.47072,-0.82925,1.4062,-1.3683
0.055878,-6.492,5.7859,0.64724,-0.43219,1.372,-1.2385
0.031219,-7.1196,6.0017,0.54917,-2.8937,1.3375,-1.1432
0.037537,-7.5707,5.8055,0.15691,-2.6655,1.3033,-1.0721
0.045959,-8.3749,5.7075,0.078453,0.20311,1.273,-1.3124
0.04541,-9.434,6.3547,0.33343,0.15485,1.2468,-1.2993
0.069092,-10.395,6.845,0.56879,-0.0088575,1.2205,-1.065
0.088409,-11.336,6.9627,0.64724,-0.26084,1.1866,-1.131
0.10776,-12.062,6.5901,0.84337,-0.57605,1.1457,-1.193
0.13681,-12.886,6.7274,0.96105,-0.89339,1.1008,-1.2443
0.14566,-13.219,7.1,1.2749,-0.099571,1.0513,-1.2889
0.18195,-13.376,7.1392,1.3337,0.11851,0.99357,-1.3094
0.20691,-12.945,7.1392,1.2749,-1.139,0.93126,-1.2813
0.23355,-11.65,6.8843,1.0199,-1.2776,0.86529,-1.2465
0.26038,-10.022,6.0997,0.52956,-1.314,0.79596,-1.1967
0.27075,-9.3752,5.0798,-0.078453,-1.2529,0.72082,-1.138
0.25568,-8.9241,4.5503,-0.15691,-1.1133,0.63438,-1.0766
0.22443,-8.6691,4.0011,0.078453,-0.91721,0.53848,-1.0003
0.16971,-8.7475,3.9815,0.21575,-0.68447,0.44074,-0.90805
0.10883,-8.6887,4.3149,0.098066,-0.44654,0.33414,-0.79107
0.043274,-8.218,5.0995,0.41188,-1.8103,2.3888,-2.2593
-0.029175,-7.5903,5.7859,0.70608,-2.0831,2.2706,-2.0003
-0.10147,-7.0804,6.3351,0.8826,-2.3421,2.1423,-3.8313
-0.17249,-6.8843,6.492,0.8826,-2.5717,2.0244,-3.5714
-0.23303,-7.1196,6.2566,0.68647,-2.7669,1.9105,-3.2978
-0.28247,-6.6293,5.6879,0.47072,-2.9123,1.8054,-3.0238
-0.32266,-6.7274,5.3937,0.33343,-2.9939,1.7153,-2.7605
-0.36456,-6.4528,5.2368,0.098066,-3.003,1.6359,-2.5137
-0.40778,-6.4135,5.3937,0.23536,0.38149,-1.5586,3.759
-0.42538,-6.9235,5.7859,0.019613,0.13286,-1.5556,3.6233
-0.45624,-6.5508,6.0997,0.05884,-0.089797,-1.5382,4.2229
-0.48694,-6.492,6.2174,-0.15691,-0.22724,-1.4942,4.1872
-0.51965,-6.492,6.4135,-0.15691,-0.35888,-1.4548,4.1072
-0.54556,-6.7666,6.2763,-0.15691,-0.49511,-1.4328,3.9972
-0.56903,-7.1196,5.9624,-0.21575,-0.58765,-1.4206,3.9224
-0.57224,-7.2765,5.8448,-0.2942,-0.62919,-1.4062,3.8576
-0.5795,-7.5903,5.6486,-0.2942,-0.61025,-1.3836,2.4807
-0.57843,-8.0611,5.5702,-0.23536,-0.53848,-1.3564,2.24
-0.56256,-8.1984,5.4721,-0.25497,-0.3992,-1.3234,3.4694
-0.52634,-8.4337,5.3152,-0.23536,-0.20159,-1.2773,3.3225
-0.48016,-9.0025,5.5702,-0.078453,0.032987,-1.2168,3.1826
-0.41711,-9.7674,5.7075,-0.078453,0.28833,-1.1496,3.0394
-0.3309,-10.493,5.7271,0.019613,0.5287,-1.0754,2.8793
-0.24683,-11.258,5.884,0.05884,0.74067,-0.99052,2.6924
-0.14853,-11.807,6.2763,0.37265,2.3088,-1.5733,3.6298
-0.03421,-11.905,6.3547,0.5884,2.3613,-1.5971,3.7602
0.074249,-11.807,6.2763,0.70608,2.387,-1.613,2.6615
0.16449,-11.65,5.884,0.5884,2.3848,-1.6231,2.8179
0.2428,-11.572,5.7467,0.64724,2.3598,-1.6261,2.9743
0.30194,-11.591,5.9036,0.84337,2.2856,-1.635,3.1353
0.34616,-11.631,6.3351,1.1768,2.1585,-1.649,3.3002
0.38553,-11.356,6.1782,1.2749,2.0052,-1.6533,3.4685
0.4032,-10.846,6.0997,1.3141,1.8204,-1.6591,4.2141
0.41742,-10.375,6.1586,1.2749,1.6237,-1.6689,4.2302
0.41437,-9.4732,5.7075,1.1768,1.4316,-1.6741,3.8738
0.40323,-8.6102,4.9229,1.0983,1.2477,-1.668,3.966
0.3876,-8.2768,4.2169,0.96105,1.0864,-1.6521,4.0403
0.36252,-7.1785,3.8638,0.72569,0.94562,-1.6267,4.1044
0.33374,-6.6685,3.8442,0.8826,0.78435,-1.6005,4.1572
0.29318,-6.0017,3.8442,0.8826,0.59468,-1.5751,4.1915
0.26895,-5.4721,4.1384,1.0983,-2.4416,1.4285,-0.8265
0.25986,-5.1387,4.2953,1.0983,-1.9285,1.4102,-0.84574
0.24008,-4.668,4.4522,1.0983,-1.4438,1.3885,-1.5137
0.23083,-4.1188,4.4326,0.72569,-0.99907,1.372,-1.3164
0.22342,-3.9815,4.1188,0.54917,-0.63255,1.3589,-1.1561
0.20331,-3.6873,3.6677,0.41188,-0.37751,1.3436,-1.018
0.18048,-4.0403,3.4519,0.17652,-3.4095,1.3228,-0.90775
0.14502,-4.2561,3.5304,0.25497,-2.9538,1.2969,-0.84666
0.11053,-4.8837,3.9815,0.41188,-0.85918,0.96303,-4.5934
0.06189,-5.5702,4.7072,0.78453,-0.91263,1.1142,-4.6777
0.026123,-6.0801,5.531,1.0199,-0.90591,1.273,-3.7012
-0.0082703,-6.7274,5.7075,1.1572,-0.85827,1.4276,-3.8933
-0.031769,-7.2765,5.4721,0.78453,-0.79015,1.5782,-4.065
-0.049957,-7.8061,5.3937,0.45111,-0.69486,1.726,-4.2241
-0.059845,-8.9241,5.5506,0.47072,-0.56139,1.865,-4.3665
-0.067078,-9.9636,5.5898,0.49033,-0.41294,1.9871,-4.4911
-0.062775,-11.121,5.6879,0.43149,-0.28955,2.0892,-4.3848
-0.057465,-12.454,5.9624,0.74531,-0.21777,2.1622,-4.1667
-0.043854,-13.572,6.5312,1.1768,-0.208,2.1988,-4.7428
-0.023987,-14.18,7.4727,1.8044,-0.27184,2.1973,-4.7684
0.009491,-14.024,8.2376,2.0986,-0.46487,2.16,-4.7635
0.043488,-13.239,7.9434,1.471,-0.79351,2.0885,-4.7272
0.084229,-12.16,7.61,1.0003,-1.2196,1.9972,-4.638
0.11768,-10.728,6.6685,0.33343,-1.7877,1.8842,-4.5216
0.14911,-9.9439,5.276,-0.37265,-3.2715,1.7678,-2.0235
0.14163,-9.4928,4.2169,-0.52956,-3.6472,1.6756,-1.752
0.12305,-9.7674,3.55,-0.23536,-3.9202,1.5962,-3.9153
0.084869,-9.9047,3.3539,-0.19613,-4.036,1.5311,-3.6398
0.026154,-9.3948,3.6873,-0.15691,-3.978,1.489,-3.3329
-0.047638,-9.2379,4.4522,0.11768,-3.7632,1.4691,-3.003
-0.12549,-8.1199,4.9622,0.39227,-2.3628,1.4575,-2.6573
-0.19818,-7.6688,5.2368,0.47072,-2.8387,1.4426,-2.3246
-0.26584,-7.6688,5.2564,0.33343,0.81092,-0.35461,0.87476
-0.31735,-7.7669,5.1583,-0.078453,0.84574,-0.43646,1.0333
-0.35004,-7.0412,5.3348,0.078453,0.85857,-0.51832,-0.22724
-0.39438,-6.6685,5.0995,0.05884,0.83933,-0.60109,-0.05681
-0.42786,-6.4724,4.9033,-0.078453,0.81123,-0.68356,0.12614
-0.46701,-6.1586,4.7856,-0.15691,0.79993,-0.76144,0.3259
-0.48593,-6.0213,4.9229,-0.13729,0.80909,-0.83353,0.52076
-0.53586,-6.1782,5.021,-0.078453,0.84391,-0.90439,0.70188
-0.57129,-6.139,5.2564,-0.2942,0.90347,-0.97494,2.0107
-0.61774,-5.9428,5.5506,-0.56879,0.98533,-1.0391,2.1576
-0.65063,-6.0213,5.8055,-0.52956,1.0889,-1.0968,1.1805
-0.68008,-6.237,6.4135,-0.47072,1.2153,-1.1536,1.3167
-0.70126,-6.5116,6.5312,-0.60801,1.3665,-1.2043,1.4496
-0.70834,-6.6293,6.4135,-0.56879,1.5333,-1.2413,1.5828
-0.71735,-6.8647,6.1586,-0.56879,1.6976,-1.2718,1.7187
-0.70703,-7.4138,5.9624,-0.62763,1.8537,-1.2984,1.8634
-0.70905,-7.4531,5.7271,-0.66685,1.982,-1.3186,3.3063
-0.6973,-7.61,5.3348,-0.82376,2.0702,-1.3274,3.4835
-0.66751,-8.2768,5.2368,-0.86299,2.1215,-1.3372,2.3072
-0.64343,-8.9829,5.2564,-0.56879,2.1295,-1.3512,2.4651
-0.59003,-9.9047,5.6486,-0.50995,2.0827,-1.3595,2.6313
-0.53131,-11.023,6.0997,-0.23536,1.9856,-1.3607,2.7944
-0.44489,-11.356,6.3547,-0.19613,1.8546,-1.3592,2.9554
-0.34958,-11.376,6.1978,-0.078453,1.7086,-1.3592,3.1264
-0.23822,-11.258,6.1782,0.33343,1.5492,-1.3616,4.4355
-0.12064,-11.886,6.1782,0.54917,1.3741,-1.365,4.474
-0.00091553,-12.454,6.1586,0.54917,1.1927,-1.3809,3.6667
0.11575,-12.925,5.9624,0.39227,0.99938,-1.4203,3.8527
0.21329,-13.004,5.9624,0.41188,0.81978,-1.46,4.0201
0.2941,-12.611,5.9624,0.54917,0.69272,-1.4795,4.1664
0.35776,-12.141,5.6486,0.72569,0.58002,-1.4896,4.2886
0.40417,-11.513,5.5898,0.8826,0.44929,-1.5018,4.3747
0.43118,-10.552,5.3152,0.76492,0.34117,-0.066584,-2.4068
0.45044,-9.7086,5.021,0.72569,0.29047,-0.022297,-2.6414
0.45551,-8.8456,4.9229,0.64724,0.21777,0.02474,-0.84544
0.45059,-8.4533,5.021,1.0003,0.12584,0.078802,-1.113
0.44891,-8.0218,5.021,1.1768,0.018937,0.13744,-1.383
0.43277,-7.3354,4.7072,1.0199,-0.093768,0.20159,-1.6521
0.41977,-6.8058,4.4914,1.0199,-0.2025,0.26725,-1.9154
0.40775,-6.1586,4.2169,1.0983,-0.30146,0.33628,-2.1661
0.39325,-5.531,4.1188,1.0199,-0.42364,0.41905,-4.0351
0.38483,-5.1975,3.9619,0.86299,-0.3711,0.5174,-4.2015
0.37161,-4.766,3.6677,0.78453,-0.26909,0.62827,-2.8622
0.35144,-4.5699,3.5892,0.70608,-0.13195,0.74434,-3.073
0.32843,-4.3542,3.3931,0.52956,0.0061087,0.86529,-3.2779
0.29843,-4.7464,3.5108,0.64724,0.12553,0.99327,-3.4746
0.27554,-4.7464,3.8246,0.72569,-0.38301,1.1191,-3.6695
0.23907,-4.9818,4.2169,0.8826,-0.42822,1.2312,-3.8598
0.20926,-5.0798,4.4522,0.74531,0.18021,1.3289,-5.1056
0.1929,-5.6094,4.6287,0.64724,0.083078,1.4169,-5.0839
0.16724,-6.0017,4.9229,0.54917,-0.072388,1.4881,-4.3781
0.13852,-6.4528,5.0014,0.15691,-0.27031,1.5443,-4.5467
0.11502,-6.8254,4.766,-0.078453,-0.5116,1.5861,-4.7034
0.098969,-7.7473,4.8053,-0.098066,-0.78802,1.6154,-4.8475
0.080444,-8.9633,5.0995,-0.23536,0.20678,1.6277,-4.9688
0.059692,-10.395,5.7075,-0.078453,0.22449,1.6218,-5.0641
0.047913,-11.807,6.1782,0.019613,-1.8036,1.6127,-3.6346
0.054779,-13.004,6.5116,0.078453,-2.1762,1.5971,-3.3054
0.063782,-13.67,6.8254,0.33343,-2.4716,1.5592,-5.0302
0.08725,-13.376,7.2177,0.25497,-2.6738,1.5049,-4.9407
0.10904,-12.788,7.4727,0.23536,-2.781,1.4759,-4.7641
0.1395,-11.807,7.1196,0,-2.795,1.4655,-4.5424
0.16422,-11.258,6.9039,-0.37265,-1.0776,1.4462,-4.2898
0.18646,-11.199,6.3547,-0.47072,-1.412,1.4193,-3.9783
0.18649,-10.944,6.2763,-0.41188,0.65576,-0.34056,1.1848
0.21152,-11.121,5.7271,-1.0983,0.69272,-0.45571,1.2917
0.21539,-9.9439,5.8448,-0.92183,0.73365,-0.56627,0.27428
0.19861,-9.2379,5.5506,-0.72569,0.79596,-0.67378,0.44379
0.14709,-8.9044,5.3937,-0.47072,0.8885,-0.77549,0.613
0.10428,-8.5122,5.1779,-0.2942,1.0033,-0.86834,0.77672
0.061371,-8.218,5.4721,-0.078453,1.1319,-0.95417,0.93035
0.00027466,-7.9042,5.3937,-0.13729,1.2584,-1.0324,1.066
-0.054382,-7.4334,5.3937,-0.15691,1.3793,-1.1051,1.9841
-0.099915,-6.6097,5.3937,-0.098066,1.4939,-1.1726,2.0873
-0.13925,-6.1782,5.1779,0.15691,1.5965,-1.2349,1.3931
-0.18713,-6.0213,4.9229,0.019613,1.6872,-1.2944,1.496
-0.23102,-6.1586,5.0798,-0.078453,1.7678,-1.3543,1.6005
-0.27588,-6.3351,5.3937,0.17652,1.8448,-1.4099,1.6985
-0.32132,-6.1978,5.6486,0.27459,1.9306,-1.4597,1.7914
-0.36243,-6.7862,5.884,0.41188,2.032,-1.5043,1.8854
-0.40039,-6.7274,6.1193,0.25497,2.1441,-1.543,3.0241
-0.42462,-6.8254,6.3155,0.25497,2.2614,-1.5809,3.204
-0.44342,-6.5508,6.2174,0.019613,2.3695,-1.6084,2.1951
-0.46805,-6.7862,5.884,0,2.4664,-1.6277,2.3124
-0.48718,-6.8254,5.5506,0,2.5446,-1.6472,2.43
-0.49612,-7.0412,5.2564,0.019613,2.5895,-1.6628,2.5552
-0.48947,-7.2765,5.2564,0,2.5895,-1.6701,2.6939
-0.48004,-8.0611,5.2564,0.078453,2.5381,-1.6683,2.8494
-0.46466,-8.3553,5.1779,0.11768,-0.45509,0.5846,-0.057727
-0.44797,-8.9044,4.9622,0.078453,-0.24129,0.48442,0.10568
-0.40424,-9.5909,4.9229,-0.098066,-0.050396,0.37354,-0.79748
-0.3595,-10.807,5.0798,-0.078453,0.12309,0.25443,-0.72724
-0.29941,-11.258,5.374,-0.078453,0.27917,0.13256,-0.63225
-0.22321,-11.572,5.6486,-0.078453,0.41661,0.014661,-0.51435
-0.14941,-11.513,5.7075,-0.05884,0.52779,-0.10446,-0.37415
-0.06781,-11.258,5.7075,0.37265,0.60628,-0.22327,-0.219
-0.0011902,-11.591,5.8448,0.68647,0.039095,-0.068722,-2.3766
0.076385,-11.846,5.9624,0.84337,-0.015882,0.018021,-2.5788
0.16232,-12.121,6.1782,0.90221,-0.10843,0.10629,-1.1735
0.23969,-12.376,6.2763,1.0003,-0.22633,0.19853,-1.3836
0.31244,-12.356,6.1978,1.0591,-0.36621,0.29413,-1.5855
0.36093,-12.278,5.7075,1.1768,-0.51801,0.38882,-1.7816
0.40155,-11.317,5.0014,1.0003,0.071166,0.47678,-1.9755
0.41638,-10.493,4.2757,0.84337,0.064446,0.55467,-2.1753
0.41214,-9.4732,4.0011,0.74531,-0.70708,0.62919,-3.6114
0.40015,-8.8064,3.8442,0.64724,-0.64721,0.69547,-3.7593
0.35501,-8.218,3.805,0.86299,-0.52473,0.75595,-2.7761
0.34244,-7.355,3.9227,0.8826,-0.34025,0.82314,-2.9572
0.33804,-6.7666,3.903,1.0199,-0.10171,0.90103,-3.1221
0.31918,-6.0213,3.9815,1.216,0.17074,0.98471,-3.2623
0.30933,-5.7859,4.0011,0.8826,-0.64019,1.0724,-3.3857
0.28665,-5.2368,4.0207,0.68647,-0.70463,1.1579,-3.4932
0.26166,-5.0995,3.8638,0.47072,1.1952,-1.0205,0.93157
0.25467,-4.766,3.8442,0.21575,1.1823,-0.94654,0.72632
0.23624,-4.8249,3.6677,0.078453,1.1371,-0.88667,2.2455
0.21121,-4.6287,3.7658,0.098066,1.058,-0.8436,2.0134
0.16205,-5.2171,4.0011,0.098066,0.94623,-0.80084,1.7862
0.14587,-5.1387,4.2169,0.05884,0.81092,-0.75472,1.5696
0.12589,-5.2956,4.5307,0.078453,0.66248,-0.71441,1.3503
0.10556,-5.8644,4.9426,0.23536,0.51343,-0.67959,1.1368
0.083954,-6.237,5.2171,0.25497,0.36957,-0.63897,-0.75472
0.06665,-6.8058,5.2564,-0.078453,0.2419,-0.58887,-0.9615
0.051483,-7.4923,5.1191,-0.54917,0.14203,-0.52626,0.51099
0.043945,-8.218,4.8445,-0.82376,0.077274,-0.45784,0.28924
0.035065,-9.1594,4.6287,-0.92183,0.049786,-0.38454,0.074526
0.03595,-10.532,4.766,-0.8826,0.039095,-0.30299,-0.135
0.038635,-11.356,5.276,-0.78453,0.047037,-0.22297,-0.33231
0.039398,-12.592,5.884,-0.52956,0.063225,-0.14752,-0.54153
0.060547,-13.298,6.4135,-0.37265,0.83811,-0.51129,1.1206
0.089325,-14.573,7.0019,0.019613,0.85765,-0.5901,1.2284
0.11908,-14.082,7.5315,0.78453,0.85307,-0.66981,0.1799
0.14801,-13.533,8.0022,1.216,0.83047,-0.74556,0.35766
0.16263,-12.062,8.0611,1.2749,0.81337,-0.81703,0.53145
0.17407,-10.493,7.4727,0.5884,0.80817,-0.8882,0.69883
0.18872,-9.9636,6.5901,-0.23536,0.81856,-0.956,0.85155
0.18893,-9.179,5.3937,-0.70608,0.84819,-1.0198,0.99235
0.18781,-9.2967,4.3149,-0.78453,0.90255,-1.0821,1.3002
0.18503,-9.3752,3.5892,-0.60801,0.97647,-1.1426,1.39
0.14645,-9.0025,3.3146,-0.078453,1.0672,-1.1955,1.4752
0.10468,-8.2964,3.6677,0.23536,1.1765,-1.2443,1.5559
0.055634,-7.8257,4.4522,0.47072,1.2953,-1.2905,1.6331
-0.01651,-7.1785,5.0602,0.47072,1.4236,-1.3363,1.715
-0.080444,-7.0412,5.3937,0.72569,1.5525,-1.3778,1.8091
-0.13602,-7.1392,5.5898,0.56879,1.675,-1.416,1.9169
-0.20648,-7.1196,5.3937,0.41188,-0.96669,1.0058,-1.0296
-0.26431,-6.6685,5.1583,0.019613,-1.0244,0.91019,-0.97097
-0.30862,-6.3547,5.2368,-0.15691,-1.0495,0.81062,-1.1661
-0.37561,-6.0017,5.3937,-0.2942,-1.0189,0.71166,-1.1487
-0.43002,-5.8252,5.7271,-0.47072,-0.93065,0.61361,-1.1328
-0.47589,-5.6682,5.9624,-0.60801,-0.79382,0.51282,-1.1154
-0.52661,-6.0017,6.2763,-0.60801,-0.61453,0.4105,-1.0953
-0.56772,-5.9232,6.4724,-0.78453,-0.40928,0.31093,-1.0702
-0.60236,-6.237,6.5901,-0.82376,-0.197,0.21258,-0.17532
-0.63123,-6.3351,6.5116,-1.0003,0.0064141,0.11515,-0.0012217
-0.64774,-6.9235,6.3351,-1.0003,0.20128,0.01741,-0.89858
-0.64493,-7.1785,5.9036,-0.86299,0.3769,-0.079412,-0.81123
-0.64627,-7.4923,5.5702,-0.8826,0.52168,-0.17104,-0.7086
-0.62341,-7.708,5.3152,-0.84337,0.6466,-0.25809,-0.59346
-0.59885,-7.8845,5.021,-0.72569,0.74434,-0.34422,-0.46945
-0.55905,-8.218,5.0602,-0.60801,0.80298,-0.42852,-0.33048
-0.51422,-8.6102,5.0995,-0.37265,0.48869,-0.17349,-2.5024
-0.43195,-9.2967,5.2564,-0.47072,0.47861,-0.12767,-2.7498
-0.33453,-10.022,5.5898,-0.2942,0.44807,-0.078191,-1.0785
-0.25125,-11.121,5.7859,-0.23536,0.37446,-0.025351,-1.3094
-0.16278,-11.572,5.9624,-0.078453,0.25229,0.027794,-1.5427
-0.058044,-11.984,5.9624,0.078453,0.10873,0.085521,-1.774
0.038666,-11.846,6.0409,0.25497,0.45265,0.15211,-2.0085
0.14514,-12.199,6.1782,0.54917,0.47953,0.2303,-2.2544
0.23624,-12.572,6.0409,0.68647,0.29322,-1.6017,2.9441
0.31583,-12.454,5.8448,0.56879,0.36346,-1.5516,2.7361
0.39008,-12.298,5.6486,0.27459,0.44074,-1.4939,3.9495
0.4241,-12.16,5.374,0.68647,0.50305,-1.4261,3.8249
0.44376,-11.317,5.0014,0.68647,0.53298,-1.3522,3.6841
0.44861,-10.846,4.7856,0.70608,0.54184,-1.2792,3.5155
0.44659,-9.8655,4.4914,0.54917,0.54306,-1.2022,3.3307
0.45343,-9.0025,4.6091,0.62763,0.54214,-1.1225,3.1408
0.40646,-8.3357,4.5307,0.68647,0.53726,-1.0443,1.0663
0.38931,-7.7473,4.2953,0.84337,0.53145,-0.96669,0.82253
0.37006,-7.0804,4.158,0.74531,0.53206,-0.88759,2.5143
0.36365,-6.6489,3.9619,0.84337,0.53573,-0.81184,2.2898
0.3324,-6.237,3.9815,0.8826,0.52687,-0.74251,2.0571
0.32162,-5.8252,3.9815,0.86299,0.49572,-0.68325,1.8072
0.30563,-5.2956,3.7069,0.72569,0.45326,-0.62736,1.5504
0.30148,-5.2171,3.55,0.64724,0.42211,-0.56688,1.3036
0.29108,-4.6091,3.4519,0.52956,0.39248,-0.50946,-0.64996
0.25937,-4.7464,3.4323,0.41188,0.38057,-0.45968,-0.8601
0.22473,-4.6287,3.4912,0.27459,0.37629,-0.42058,0.57635
0.1716,-4.9818,3.4519,0.25497,0.38607,-0.37874,0.34819
0.13254,-5.374,3.805,0.25497,0.40409,-0.33598,0.13928
0.1011,-6.0997,4.3149,0.41188,0.42302,-0.2981,-0.061392
0.063507,-6.492,4.8641,0.47072,0.40561,-0.25809,-0.25381
0.039337,-6.9431,5.1779,0.37265,0.40103,-0.21533,-0.44685
0.020386,-7.5511,5.1779,0.25497,-3.0125,1.5226,-1.5592
0.025391,-8.3749,5.0798,-0.21575,-2.7807,1.4887,-1.4951
0.036896,-8.7671,5.2564,-0.078453,-2.4972,1.4484,-2.452
0.053741,-9.9243,5.2564,0.019613,-2.1841,1.4218,-2.2483
0.060486,-11.121,5.6879,0.25497,-1.8622,1.4059,-2.0553
0.071686,-12.16,6.4135,0.54917,-1.5513,1.3937,-1.8796
0.087463,-12.945,6.8254,0.56879,-1.292,1.3903,-1.7349
0.103,-13.043,6.845,0.54917,-1.0922,1.3916,-1.6341
0.1217,-12.788,6.6489,0.54917,-0.94165,1.3851,-1.3683
0.13675,-12.101,6.3547,0.25497,-0.84269,1.3693,-1.3763
0.14349,-11.121,5.884,0.078453,-0.80298,1.3479,-1.4368
0.16223,-10.591,5.4721,0.078453,-0.81795,1.3207,-1.3854
0.16058,-10.317,4.7856,-0.39227,-0.88392,1.2895,-1.3506
0.14001,-10.395,4.3934,-0.45111,-1.0003,1.2569,-1.3357
0.11499,-9.8655,4.158,-0.78453,-1.1469,1.2184,-1.3393
0.072815,-9.3752,4.3934,-0.82376,-1.3008,1.1756,-1.3512
0.0088501,-9.0613,4.6484,-0.60801,-1.4484,1.1289,-0.96792
-0.044739,-8.7083,4.8641,-0.37265,-1.5718,1.0763,-0.89553
-0.12933,-8.4337,5.2564,-0.039227,-1.6331,1.0143,-1.3576
-0.18881,-8.6102,5.7075,0.05884,-1.6173,0.9447,-1.3118
-0.25662,-8.2964,5.7271,-0.21575,-1.5287,0.8714,-1.2529
-0.32324,-7.5903,5.6486,-0.31381,-1.3751,0.79718,-1.1857
-0.36417,-6.8254,5.276,-0.35304,-1.1723,0.71777,-1.1124
-0.40997,-6.3939,4.9229,-0.25497,-0.93249,0.63377,-1.0406
-0.45795,-6.0409,4.7464,-0.25497,-0.66676,0.54336,-0.27581
-0.50409,-5.9232,4.6484,-0.37265,-0.3821,0.44807,-0.16707
-0.55936,-5.9821,4.6876,-0.60801,-0.098349,0.35186,-0.82406
-0.60184,-5.884,4.9229,-0.50995,0.16738,0.25717,-0.74923
-0.63559,-6.1782,5.3348,-0.21575,0.39431,0.16402,-0.66737
-0.66949,-6.4528,5.7467,-0.078453,0.56413,0.069944,-0.57879
-0.71103,-6.7274,6.0213,-0.098066,0.6747,-0.03146,-0.49052
-0.72943,-6.7274,6.0605,-0.23536,0.74159,-0.1295,-0.38912
-0.75507,-6.4724,5.7859,-0.47072,1.2233,-1.2251,4.4462
-0.75845,-6.5508,5.4917,-0.52956,0.91874,-1.2278,4.3289
-0.74585,-6.6097,5.0995,-0.47072,0.57482,-1.2376,4.4685
-0.73721,-6.8647,5.021,-0.2942,0.21014,-1.2486,4.5677
-0.72104,-7.2569,5.0602,-0.23536,-0.11881,-1.2617,4.605
-0.69562,-7.5903,5.0014,-0.25497,-0.37171,-1.2795,4.5989
-0.66483,-8.2376,4.9033,-0.25497,-0.54245,-1.3066,4.5632
-0.61758,-8.9241,4.6287,-0.37265,-0.56872,-1.3225,4.5119
-0.56006,-10.179,4.9033,-0.41188,-0.23182,-1.3176,3.364
-0.50577,-11.199,5.2171,-0.37265,-0.085521,-1.299,3.1771
-0.40759,-11.317,5.3937,-0.37265,0.082467,-1.2605,4.1945
-0.33737,-11.121,5.7467,-0.078453,0.23824,-1.2028,4.0708
-0.24979,-11.023,5.5506,0.019613,0.35094,-1.124,3.9523
-0.15143,-11.121,5.2564,0.21575,0.43097,-1.0403,3.8298
-0.078094,-11.631,5.276,0.27459,-0.48564,-0.95692,3.6875
0.0095215,-12.611,5.7075,0.47072,-0.36499,-0.87384,3.5299
0.0961,-13.161,6.3547,0.78453,0.55222,-0.79962,1.8207
0.17899,-13.533,6.5116,0.90221,0.5342,-0.73731,1.6493
0.26221,-13.376,6.0213,0.8826,0.49266,-0.6805,2.9819
0.32928,-12.435,5.2368,0.5884,0.43494,-0.63072,2.7938
0.38931,-11.513,4.7464,0.52956,0.37018,-0.59162,2.6084
0.42435,-10.689,4.6484,0.33343,0.31521,-0.56627,2.4148
0.43542,-9.9243,4.4914,0.39227,0.49297,-0.54611,2.2058
0.42426,-9.179,4.5503,0.72569,0.53573,-0.52962,2.0009
0.4043,-8.6887,4.6091,1.0199,2.4795,-1.325,4.186
0.35803,-8.0218,4.4718,1.0199,2.3524,-1.3042,4.3341
0.32626,-7.355,4.4522,1.0199,2.2135,-1.2856,3.0186
