0.047272,0.90221,-4.7268,7.4531,-0.073609,0.0082467,-0.0030543
0.086731,0.90221,-4.7072,7.61,-0.051007,0.01741,-0.0042761
0.12155,0.86299,-4.6091,7.5511,-0.03543,0.025656,-0.0042761
0.13022,0.80415,-4.6287,7.61,-0.033598,0.029932,-0.0024435
0.14474,0.80415,-4.6484,7.5903,-0.044899,0.025962,-0.0027489
0.15027,0.96105,-4.668,7.61,-0.04612,0.025962,-0.0058032
0.16556,1.0395,-4.5111,7.4923,-0.03879,0.030849,-0.009163
0.17148,0.74531,-4.4522,7.4334,-0.040317,0.030543,-0.0064141
0.16873,0.56879,-4.4914,7.5511,-0.045815,0.027489,-0.010385
0.17737,0.76492,-4.6484,7.5511,-0.036346,0.030238,-0.01069
0.18423,0.72569,-4.7072,7.5903,-0.0039706,0.044288,-0.011301
0.20227,0.72569,-4.4914,7.3746,0.010079,0.041844,-0.0079412
0.21457,0.80415,-4.413,7.4531,-0.0012217,0.043982,-0.0048869
0.22769,0.86299,-4.7856,7.61,-0.0061087,0.030543,-0.012828
0.23962,0.80415,-4.8837,7.5903,-0.029016,0.024129,-0.015577
0.25095,0.66685,-4.8053,7.5903,-0.035736,0.025351,-0.0051924
0.26199,0.66685,-4.6091,7.5903,-0.033292,0.016799,-0.0058032
0.26416,0.76492,-4.7072,7.5903,-0.026878,0.026267,-0.0079412
0.26785,0.90221,-4.8249,7.5511,-0.013439,0.032376,-0.0042761
0.26294,0.80415,-4.668,7.61,-0.0076358,0.034514,-0.0076358
0.2644,0.86299,-4.8837,7.61,-0.010079,0.03207,-0.0039706
0.25607,0.76492,-4.5699,7.5315,-0.019242,0.02474,-0.0030543
0.25162,0.54917,-4.5699,7.6884,-0.029932,0.020769,-0.0048869
0.23593,0.72569,-4.668,7.61,-0.037874,0.018937,-0.0048869
0.22906,0.92183,-4.766,7.3746,-0.039401,0.020464,-0.0027489
0.22665,0.86299,-4.7072,7.4923,-0.037568,0.018631,-0.00030543
0.21411,0.86299,-4.7072,7.5511,-0.036957,0.014966,0.0045815
0.21619,0.66685,-4.5699,7.5511,-0.037263,0.014661,0.0073304
0.20645,0.72569,-4.6091,7.4531,-0.04948,0.010996,0.0048869
0.2063,0.72569,-4.6484,7.3942,-0.068111,0.0027489,-0.0015272
0.19876,0.66685,-4.6484,7.61,-0.071777,-0.0033598,-0.0051924
0.18835,0.92183,-4.8053,7.5315,-0.06689,-0.016493,0.0018326
0.1828,0.98067,-4.7856,7.4727,-0.065363,-0.014355,-0.010996
0.21167,0.70608,-4.668,7.4531,-0.054367,-0.014355,0.014355
0.20718,0.74531,-4.5699,7.4334,-0.032376,-0.015882,0.014661
0.20792,0.74531,-4.5699,7.4923,-0.0094684,-0.012217,0.014661
0.19687,0.60801,-4.6484,7.61,0.029016,-0.0036652,0.013134
0.1893,0.92183,-4.7856,7.5511,-0.061087,-0.00030543,0.01069
0.18201,0.90221,-4.7856,7.4531,-0.066279,-0.0064141,0.0097738
0.18369,0.82376,-4.5699,7.5511,0.25168,-0.0079412,0.016799
0.17804,0.50995,-4.4718,7.5903,0.25687,0.0097738,0.021991
0.17813,0.90221,-4.668,7.5903,0.19028,0.044593,-0.020464
0.17535,0.80415,-4.766,7.4727,0.079412,0.065668,-0.02474
0.17886,0.60801,-4.7856,7.5511,-0.029932,0.053451,-0.016493
0.17905,0.74531,-4.7072,7.4727,-0.083689,0.016493,0
0.16382,0.92183,-4.8053,7.4531,0.10018,-0.020159,0.0097738
0.12469,0.70608,-4.7856,7.4334,0.18265,-0.033598,0.013744
0.058075,0.74531,-4.5111,7.61,-0.1124,-0.027794,0.027489
-0.014923,0.90221,-4.6287,7.61,-0.13011,-0.013134,0.018021
-0.078339,0.74531,-4.5699,7.5511,-0.13958,-0.0073304,0.029932
-0.12405,0.8826,-4.766,7.4531,-0.1237,-0.010385,0.041539
-0.15463,0.80415,-4.8837,7.3746,-0.086437,-0.015882,0.050396
-0.17291,0.90221,-4.766,7.5511,-0.045204,-0.01741,0.052229
-0.2066,0.56879,-4.8837,7.4923,-0.0956,-0.0088575,0.048869
-0.28583,0.98067,-4.8837,7.3746,-0.10049,0.0036652,0.041539
-0.40726,0.98067,-4.4914,7.5511,-0.024129,-0.0058032,0.0088575
-0.54727,0.74531,-4.1776,8.0022,0,0.0012217,0.013134
-0.68741,0.8826,-4.3934,7.61,0.020769,0.010385,-0.009163
-0.77728,0.78453,-4.5111,7.3158,0.030543,0.014661,-0.0064141
-0.82559,0.60801,-4.4914,7.4923,0.016799,0.0076358,-0.0015272
-0.7966,0.56879,-4.7268,7.6296,-0.010079,-0.0039706,0.00030543
-0.72662,1.0395,-5.1975,7.4923,-0.033598,-0.012828,0.0024435
-0.6282,1.0395,-4.8249,7.5511,-0.04948,-0.017715,0.0042761
-0.51437,0.90221,-4.5699,7.61,0.12187,-0.055894,-0.2251
-0.38446,0.76492,-4.9229,7.7473,0.19884,-0.054978,-0.30085
-0.31311,0.56879,-5.2956,7.3158,0.24465,-0.047647,-0.095906
-0.35132,1.1964,-5.7271,7.4531,0.2364,-0.033598,-0.091935
-0.45734,1.0787,-4.7856,7.9238,0.146,-0.011912,-0.09499
-0.61029,0.56879,-3.6873,8.1003,-0.013134,0.0033598,-0.10507
-0.767,0.74531,-3.2558,7.8453,-0.27519,0.009163,-0.13011
-0.87036,0.56879,-3.5304,7.4531,-0.48045,-0.01405,-0.16921
-0.9212,0.70608,-4.0992,7.4923,-0.53695,-0.045204,-0.4105
-0.89703,0.27459,-4.5699,8.2376,-0.5058,-0.033903,-0.405
-0.7926,0.80415,-5.021,7.9434,-0.38698,-0.010079,-0.33292
-0.66061,1.0395,-4.9426,7.3746,-0.20678,0.029932,-0.36102
-0.52112,0.98067,-4.4522,7.4727,-0.010079,0.07758,-0.40073
-0.37268,0.96105,-4.7072,7.3354,0.15211,0.13011,-0.40775
-0.25699,1.118,-5.0406,7.4923,0.25045,0.17196,-0.40714
-0.15048,0.96105,-5.2564,7.6492,0.2813,0.19578,-0.41356
-0.041931,0.80415,-4.6484,8.0022,-0.13531,-0.024129,-0.11057
0.064026,0.66685,-4.0207,8.0611,-0.17379,-0.027184,-0.096211
0.18021,0.60801,-4.2365,7.8061,-0.19303,-0.025656,0.027489
0.27899,0.90221,-4.5111,7.4531,-0.15638,-0.0073304,0.0097738
0.37091,0.66685,-4.9426,7.61,-0.052534,0.021991,-0.01741
0.45609,0.80415,-5.1975,7.61,0.088881,0.058338,-0.050396
0.54996,0.82376,-4.9818,7.6884,0.21777,0.088881,-0.081551
0.62622,0.98067,-4.7856,7.4923,0.26878,0.097738,-0.10385
0.70956,1.118,-4.766,7.3158,0.1689,0.081856,-0.071777
0.78976,1.1964,-5.021,7.0608,0.045815,0.044593,-0.089797
0.86115,1.0787,-5.5113,7.3158,-0.083689,0.0076358,-0.088881
0.94055,1.6671,-5.7075,7.0216,-0.16585,-0.012523,-0.08827
1,1.4318,-5.3937,7.1589,-0.18295,-0.027489,-0.071471
1,1.7456,-4.7856,7.3158,-0.1463,-0.041539,-0.062308
1,1.6671,-4.3345,7.2765,-0.069639,-0.047037,-0.058338
1,1.4318,-4.0796,7.2177,0.026267,-0.051007,-0.058948
1,1.2356,-3.8638,7.2961,-0.083689,0.44196,-0.89217
1,1.3729,-4.3542,7.3746,0.055589,0.3992,-0.83353
1,1.5102,-5.1191,7.0608,0.18784,0.35125,-1.179
1,1.6671,-5.2564,7.1589,0.30635,0.29688,-1.1322
1,1.8633,-5.1191,7.0608,0.42577,0.24526,-1.0773
1,1.7456,-4.7856,7.2961,0.52901,0.19761,-1.0223
1,1.8044,-4.9229,7.1196,-0.31368,0.17715,-0.97616
1,1.8437,-5.1779,7.0019,-0.20892,0.18265,-0.93523
1,2.1182,-5.2956,6.7077,-0.06689,0.76572,-1.266
1,2.2751,-5.6486,6.845,-0.058643,0.79962,-1.2801
1,2.1575,-6.0409,6.9823,-0.087965,0.81978,-0.98044
1,2.3732,-5.9036,7.0216,-0.14752,0.82681,-1.0296
1,2.432,-5.7663,7.0608,-0.21777,0.82131,-1.0821
1,2.687,-5.3937,7.0608,-0.27642,0.81276,-1.1338
1,2.6086,-5.1975,7.3158,-0.30849,0.80573,-1.1851
1,2.8635,-5.021,7.2961,-0.31704,0.80512,-1.2339
1,2.6282,-4.9818,7.4531,-0.31673,0.80665,-1.3005
1,2.7851,-5.021,7.4531,-0.32467,0.80543,-1.3002
1,2.8635,-4.766,7.6884,-0.34728,0.8042,-1.2877
1,2.6478,-4.7856,7.7865,-0.36346,0.79779,-1.2944
1,2.6086,-4.9426,8.0022,-0.35552,0.78679,-1.303
1,2.6282,-5.021,8.218,-0.32345,0.7761,-1.3094
1,2.2948,-5.1191,8.218,-0.2813,0.76022,-1.3082
1,2.3732,-5.1191,8.218,-0.25259,0.74739,-1.3005
1,2.6478,-5.021,8.0807,-0.32712,0.74526,-1.2391
1,2.432,-5.276,8.218,-0.42302,0.74098,-1.2162
1,2.6478,-4.9818,8.1199,-0.49633,0.71929,-1.2862
1,2.5497,-4.6484,7.7865,-0.51679,0.67837,-1.2648
1,2.2359,-4.0207,7.2373,-0.48686,0.62583,-1.2517
0.9826,1.824,-3.0401,6.9235,-0.41203,0.57238,-1.2504
0.84448,0.98067,-2.8832,7.3746,-0.24374,0.5229,-1.2495
0.69794,0.74531,-3.8638,7.8649,-0.26389,0.48045,-1.2477
0.57077,0.70608,-4.9426,7.7865,-0.066584,0.12156,-0.029016
0.45667,0.41188,-5.4133,7.7865,0.31857,0.13561,-0.038485
0.36932,0.56879,-4.6484,7.4923,0.38759,0.13531,0.068111
0.26651,0.41188,-4.0207,7.4531,0.36652,0.10965,0.071777
0.13803,0.33343,-3.2166,7.3158,0.26084,0.064446,0.04215
-0.020508,0.45111,-3.5108,6.747,0.10599,0.018326,0.025656
-0.21011,0.76492,-3.7265,6.2763,-0.021686,0.0054978,0.012828
-0.40125,0.50995,-3.9423,6.5901,-0.071166,0.03207,-0.011301
-0.59744,-0.019613,-3.5304,7.3354,0.94867,0.3653,0.36285
-0.78799,0.039227,-3.3735,7.6492,0.95081,0.35491,0.36591
-0.94418,-0.21575,-3.7658,7.7865,0.93371,0.34361,0.31124
-0.99997,-0.27459,-4.6287,8.3945,0.91538,0.32834,0.31643
-0.99997,-0.039227,-5.0798,8.7868,0.91691,0.32437,0.33598
-0.99997,0.35304,-5.0995,8.7279,0.94195,0.35308,0.35186
-0.99997,0.45111,-4.5699,8.7475,0.96486,0.40225,0.35705
-0.99997,0.8826,-4.2561,8.218,0.97402,0.45357,0.36072
-0.99997,1.0395,-4.0403,7.9434,0.96486,0.50121,0.42608
-0.99997,1.118,-4.1972,7.4531,0.93371,0.54795,0.39554
-0.99997,1.4318,-4.0796,7.1392,0.86285,0.58093,0.37813
-0.99997,1.2945,-3.6285,6.9235,0.73059,0.59468,0.39309
-0.99997,0.92183,-3.197,7.1589,0.53145,0.58735,0.40775
-0.99997,0.60801,-2.8243,7.7865,0.28863,0.55558,0.42333
-0.99997,0.2942,-2.9028,8.0807,0.06689,0.48686,0.43249
-0.99997,0.35304,-3.6873,7.9434,-0.1066,0.3934,0.43371
-0.99997,0.25497,-4.5699,7.7865,-0.21564,0.31368,0.13806
-0.99573,0.41188,-4.7072,7.9042,-0.22541,0.26053,0.067195
-0.87314,0.098066,-4.3934,9.0417,-0.11576,0.23427,0.35858
-0.70929,0.72569,-4.4522,8.8652,0.055894,0.25717,0.32559
-0.5354,0.49033,-3.6677,8.8064,0.18509,0.29138,0.29566
-0.38074,0.56879,-2.9028,8.6495,0.23579,0.26542,0.28191
-0.26587,0.27459,-2.8832,8.4729,0.23152,0.197,0.2642
-0.17953,0.41188,-3.3931,8.1591,0.27336,0.13653,0.21564
-0.11673,0.25497,-3.3931,8.0807,-0.0094684,-0.31673,-0.034208
-0.057922,0.49033,-3.197,8.4926,-0.04612,-0.31857,-0.007025
0.0049744,0.098066,-3.3931,8.7868,-0.12095,-0.34392,-0.16249
0.040405,0.35304,-3.4127,8.8848,-0.18387,-0.36652,-0.146
0.076843,-0.17652,-3.0793,9.6301,-0.23335,-0.36652,-0.12553
0.12405,-0.50995,-2.9028,9.5125,-0.25504,-0.34483,-0.11698
0.12747,-0.27459,-3.1381,9.1202,-0.26237,-0.31368,-0.098655
0.10303,-0.27459,-3.3931,8.6887,-0.27978,-0.27367,-0.064752
0.082001,0.098066,-3.3931,8.4729,-0.44074,-0.22785,0.08827
0.062531,0.2942,-3.5108,8.6299,-0.44074,-0.19181,0.10934
0.098755,0.86299,-3.5696,8.7083,-0.41356,-0.16096,0.022297
0.13245,0.86299,-3.8246,8.5318,-0.39951,-0.12492,0.044288
0.17871,0.5884,-4.0207,8.5514,-0.38301,-0.11668,0.07086
0.19635,0.70608,-3.3931,8.5514,-0.33384,-0.1179,0.1124
0.15482,0.49033,-2.6086,8.3749,-0.32009,-0.10812,0.11759
0.090027,0.72569,-2.7459,7.9042,-0.38607,-0.069333,0.092546
0.0039368,0.70608,-3.197,7.8649,-0.10263,-0.0009163,0.044288
-0.103,0.66685,-3.3146,7.6884,-0.089186,0.06353,0.0039706
-0.24405,0.74531,-3.3539,7.5903,-0.1237,0.10629,0.13989
-0.37476,0.98067,-3.0793,7.2765,-0.18845,0.1295,0.15608
-0.4899,0.82376,-3.9227,7.4531,-0.25412,0.13347,0.15241
-0.58475,1.4906,-4.6484,7.5903,-0.28283,0.11576,0.14203
-0.62555,1.6671,-4.1384,7.4727,-0.24771,0.081856,0.12401
-0.64554,1.5298,-4.0796,7.8061,-0.16127,0.065363,0.089797
-0.61987,1.3533,-3.8246,8.1787,-0.056505,0.083689,-0.13317
-0.57956,1.1376,-3.8442,8.3749,0.03543,0.12675,-0.14355
-0.50418,1.3925,-4.158,8.0807,0.094073,0.17135,-0.018937
-0.40756,1.3925,-4.1776,7.963,0.13378,0.20159,-0.030543
-0.30341,1.3729,-4.0403,8.1199,0.19151,0.22174,-0.048869
-0.20975,1.1768,-4.06,8.2572,0.26664,0.23274,-0.067501
-0.11395,1.118,-4.158,8.218,-0.24679,0.24038,-0.086437
-0.020447,1.0395,-3.8638,8.5906,-0.16218,0.25748,-0.11423
0.05899,1.0395,-4.0796,8.6299,-0.076664,-0.0956,-0.21777
0.16913,1.1964,-4.0992,8.7868,-0.076969,-0.046426,-0.17929
0.25598,1.0199,-3.295,9.0613,-0.032376,0.020769,-0.29169
0.31558,0.90221,-2.9028,9.0613,0.03879,0.093768,-0.30024
0.33395,1.0787,-2.6086,8.316,0.11209,0.15913,-0.30452
0.31384,1.0591,-2.9224,7.9238,0.17104,0.20678,-0.29993
0.25467,1.3533,-3.5696,7.6884,0.21502,0.23274,-0.27978
0.19708,1.1964,-3.7658,7.9434,0.23946,0.24007,-0.25076
0.16855,1.5298,-3.7658,8.2572,0.25107,0.23488,0.10324
0.14304,1.5298,-3.8246,8.1003,0.24129,0.22694,0.10293
0.11542,1.6083,-4.3934,8.0611,0.22938,0.21441,-0.13928
0.090088,1.6083,-5.5702,8.1787,0.20372,0.1857,-0.10018
0.079987,1.5495,-5.7075,8.0807,0.13806,0.14355,-0.049175
0.070038,1.726,-4.9229,8.0022,0.025045,0.094379,0.013744
0.05069,1.1964,-4.0011,7.6884,-0.091019,0.028405,0.063225
-0.013611,1.2356,-3.7069,7.5903,-0.17013,-0.047037,0.088575
-0.071411,1.2356,-3.6677,7.5511,-0.19212,-0.09896,-0.057116
-0.15866,1.4318,-3.7854,7.2765,-0.15455,-0.10873,-0.08491
-0.25757,1.3533,-3.5696,7.1196,-0.068417,-0.083383,0.080329
-0.31897,1.2945,-3.1381,7.6884,0.023824,-0.036957,0.051007
-0.3757,1.0591,-2.9028,8.1787,0.099266,0.012828,0.025656
-0.41107,0.74531,-2.9224,8.4141,0.14019,0.059254,0.0079412
-0.43616,0.80415,-2.9028,8.4926,0.15333,0.096517,-0.0058032
-0.4408,0.90221,-2.8832,9.2575,0.15088,0.12614,-0.028405
-0.41046,0.8826,-3.1774,9.3163,-0.26084,-0.27306,-0.2529
-0.38757,1.0787,-4.0207,8.8456,-0.10354,-0.22083,-0.27489
-0.34247,1.3729,-4.3934,8.1003,0.018631,-0.17562,-0.037568
-0.2926,1.7064,-4.4522,7.7865,0.08094,-0.14508,-0.062308
-0.23212,1.6475,-4.1776,7.7669,0.094684,-0.13744,-0.10079
-0.17792,1.6083,-4.1384,7.6884,0.065973,-0.14233,-0.13592
-0.12271,1.5298,-4.1384,7.6884,0.015577,-0.13958,-0.17074
-0.086945,1.8044,-3.7069,7.7865,-0.03879,-0.12675,-0.21655
-0.041168,1.6083,-3.4519,7.8649,0.16921,-0.029627,0.076053
-0.0033264,1.6475,-3.197,8.0807,0.20556,-0.0097738,0.065668
0.037933,1.5298,-3.2558,8.2768,0.19212,0.018326,0.072082
0.077057,1.5298,-3.3735,8.4926,0.13347,0.037568,0.069944
0.11478,1.2945,-3.2558,8.7083,0.048869,0.043677,0.08094
0.14572,1.4318,-3.4127,8.7868,-0.020769,0.032681,0.095295
0.1846,1.1768,-3.8246,8.4141,0.03879,0.013439,0.097128
0.22034,1.0591,-3.6088,8.5514,0.10263,-0.0024435,0.085521
0.24649,1.0395,-3.2362,8.7279,0.073609,0.0045815,-0.026878
0.26202,0.90221,-3.1577,8.4337,0.1124,0.040623,-0.039095
0.26993,1.118,-3.4127,8.316,0.13011,0.083994,0.048869
0.26428,0.86299,-3.2166,8.4141,0.12126,0.1179,0.032987
0.24985,0.90221,-3.2166,8.4926,0.082772,0.13744,0.017715
0.23199,0.98067,-3.2362,8.4141,0.035125,0.1347,0.0027489
0.17767,1.0787,-3.2558,8.2768,-0.030849,0.11332,-0.011912
0.12881,1.118,-3.1577,8.316,0.014966,0.090713,-0.018937
0.075806,0.80415,-3.2558,8.316,0.019853,0.025351,0.081856
0.036285,1.0395,-3.3539,8.3749,0.040623,0.022297,0.10354
-0.01059,1.0787,-3.2362,8.4141,0.051313,0.0073304,-0.0054978
-0.062927,1.216,-3.3146,8.4337,0.054978,-0.0048869,0.015882
-0.14807,0.98067,-3.3931,8.2572,0.055894,-0.009163,0.037568
-0.27527,1.2945,-3.2362,8.1787,0.059559,-0.0088575,0.051618
-0.4574,1.0591,-3.0793,8.4141,0.062614,-0.0027489,0.061087
-0.63156,1.2945,-3.3146,8.3357,0.045815,0.0012217,0.065363
-0.80356,1.3925,-3.6873,8.1199,0.015272,0,0.087354
-0.9321,1.6475,-3.6873,8.218,-0.021075,-0.0076358,0.080023
-0.99997,1.216,-3.3931,8.4141,-0.062614,-0.022907,0.10537
-0.99997,1.2749,-3.2166,8.6887,-0.092546,-0.038179,0.10079
-0.99997,1.3533,-3.3146,8.7083,-0.096517,-0.040928,0.095295
-0.99997,1.1964,-3.5304,8.4926,-0.079412,-0.032987,0.089797
-0.99997,1.3533,-3.7658,8.4141,-0.049786,-0.029627,0.08827
-0.99997,0.90221,-3.3146,8.8064,-0.011912,-0.03146,0.090713
-0.99997,1.0199,-2.8243,8.9633,-0.19548,-0.12462,0.15088
-0.99997,0.76492,-3.0008,9.0221,-0.18448,-0.19761,0.16127
-0.99997,1.2749,-3.1577,8.5318,-0.14416,-0.23915,-0.0082467
-0.99997,1.0199,-3.3146,8.4141,-0.11576,-0.24404,0.0030543
-0.99997,0.74531,-3.0793,8.5514,-0.12614,-0.24312,0.024435
-0.99997,0.90221,-2.8439,8.8652,-0.16921,-0.26145,0.061697
-0.99997,1.0199,-2.7459,8.4141,-0.24007,-0.28314,0.10476
-0.99997,1.1964,-3.0401,7.8649,-0.32437,-0.29474,0.13775
-0.99997,1.3533,-3.3735,7.7473,-0.36927,-0.30574,0.22938
-0.99997,1.1964,-3.3931,7.6884,-0.34667,-0.31093,0.21105
-0.99997,1.0591,-3.0793,7.9434,-0.26939,-0.29383,0.17287
-0.92029,0.72569,-2.5693,8.2572,-0.18815,-0.24954,0.18479
-0.76074,0.90221,-2.8243,8.6887,-0.15944,-0.19456,0.20006
-0.53937,0.8826,-3.0793,8.7083,-0.20311,-0.15547,0.21319
-0.3208,0.92183,-3.1381,8.4729,-0.26848,-0.14905,0.22663
-0.10004,0.70608,-2.7459,8.5514,-0.29932,-0.14539,0.2361
0.086121,0.45111,-2.432,8.8064,-0.031765,0.16799,-0.08827
0.21628,0.39227,-2.6086,9.179,0.043982,0.20525,-0.076358
0.30377,0.27459,-2.5693,9.5713,0.11637,0.24099,-0.1518
0.31711,0.17652,-2.7459,9.5125,0.14325,0.25381,-0.13408
0.2381,0.39227,-2.7459,9.0417,0.13775,0.24343,-0.11484
0.079468,0.41188,-2.8243,9.0025,0.1405,0.22724,-0.11362
-0.14496,-0.17652,-2.687,9.1594,0.15699,0.21625,-0.11606
-0.38763,-0.05884,-3.0597,8.8456,0.17074,0.20495,-0.10537
-0.62637,0.56879,-3.0401,8.3945,0.1179,0.1799,-0.030543
-0.83963,0.56879,-2.687,8.4141,0.063835,0.13286,-0.016188
-0.96667,0.86299,-2.6674,8.4926,-0.0027489,0.091019,-0.072082
-0.99997,0.98067,-2.6086,8.316,-0.06689,0.061087,-0.07758
-0.99997,0.82376,-2.9224,8.1003,-0.10263,0.019242,-0.087048
-0.99997,1.1768,-2.8439,8.0611,-0.11729,-0.018631,-0.090713
-0.99997,0.80415,-2.7851,8.316,-0.13653,-0.035125,-0.081245
-0.99997,0.92183,-3.2362,8.0611,-0.1689,-0.058643,-0.055589
-0.99536,1.1964,-3.5304,8.1003,0.14813,0.076358,-0.13317
-0.94278,0.98067,-3.9227,8.218,0.019242,0.048258,-0.10934
-0.8848,0.90221,-4.0207,8.2768,-0.08491,0.0094684,-0.15974
-0.81125,1.1964,-3.8442,8.4926,-0.10568,-0.044899,-0.14844
-0.73816,1.216,-3.5108,8.5318,-0.034208,-0.091019,-0.14966
-0.70078,1.3925,-3.1381,8.5514,0.078496,-0.11423,-0.15088
-0.65012,1.5102,-3.2362,8.4337,0.31521,-0.10812,-0.14997
-0.61154,1.5495,-3.0793,8.4926,0.25473,-0.085216,-0.15119
-0.56418,2.0006,-3.4127,7.9434,-0.09896,0.040928,-0.064752
-0.52338,2.1575,-3.0793,7.8649,-0.11148,0.047953,-0.075136
-0.49234,1.8044,-2.687,8.316,-0.10782,0.055283,0.028405
-0.45349,1.4318,-2.6086,8.6299,-0.1069,0.048258,0.024435
-0.41422,1.6083,-3.0008,8.6299,-0.11118,0.034819,0.020159
-0.36505,1.2749,-3.3539,8.5514,-0.10263,0.026878,0.0009163
-0.30551,1.4318,-3.3735,8.7083,-0.07422,0.034514,-0.022907
-0.23187,1.3533,-3.4519,8.6299,-0.035736,0.05284,-0.044288
-0.15784,1.5298,-3.5696,8.4141,0.010996,0.068417,-0.12126
-0.092163,1.6671,-3.4519,8.6299,-0.007025,0.073304,-0.13225
-0.035706,1.2945,-3.2362,8.8064,-0.054062,0.066584,-0.078496
-0.0040283,1.5887,-3.0989,8.7868,-0.10263,0.05284,-0.086437
0.015381,1.824,-3.4519,8.8064,-0.12095,0.030238,-0.087659
0.026703,1.9221,-3.6873,8.7083,-0.092852,0.0048869,-0.088575
0.021545,1.824,-3.8638,8.4141,-0.00061087,-0.010385,-0.098349
0.014709,1.7064,-3.5304,8.0022,0.010996,-0.0048869,-0.11026
-0.012787,1.2945,-3.3146,8.2572,0.041539,0.015577,-0.18448
-0.060883,1.118,-3.0989,8.8652,0.060476,0.036346,-0.17685
-0.13605,0.49033,-2.9028,9.3163,0.096517,0.051313,-0.14844
-0.21988,0.13729,-2.8243,8.7083,0.16157,0.064752,-0.16799
-0.31158,0.27459,-3.2166,8.2572,0.24648,0.083078,-0.1909
-0.39526,0.33343,-3.3931,8.0807,0.31093,0.10354,-0.20433
-0.45853,0.23536,-3.2166,8.0807,-0.037568,0.11332,-0.20097
-0.50772,0.54917,-2.5301,8.2572,0.013744,0.10201,-0.1912
-0.55551,0.80415,-2.432,8.1003,-0.0085521,-0.10385,-0.011912
-0.58463,0.72569,-2.7459,8.1787,0.0036652,-0.1124,-0.018326
-0.58017,0.66685,-2.5693,8.3945,0.014355,-0.11148,-0.011912
-0.58282,0.90221,-2.3536,8.4141,0.025351,-0.10232,-0.013134
-0.56439,1.2356,-2.4713,8.3357,0.038485,-0.08491,-0.018937
-0.5433,1.5495,-2.9812,8.3357,0.051313,-0.058032,-0.025045
-0.52255,1.3925,-3.3931,8.5514,0.03543,-0.036652,-0.027184
-0.49725,1.2749,-3.4716,9.0417,-0.011912,-0.025351,-0.014966
-0.48071,0.90221,-3.5304,9.2575,-0.038179,-0.0009163,0.090103
-0.4823,1.216,-3.6873,9.1594,-0.039095,0.048869,0.092546
-0.48615,1.1964,-3.6285,8.8652,-0.036041,0.092241,-0.010996
-0.4826,1.216,-3.3735,8.7083,-0.018326,0.12339,-0.0015272
-0.4938,1.0395,-3.2362,8.4337,0.013134,0.15547,0.0088575
-0.49792,0.98067,-3.0597,8.1787,0.023518,0.16768,0.030849
-0.49509,0.74531,-2.7459,8.1591,-0.022602,0.14661,0.053145
-0.46967,1.0199,-2.8243,7.963,-0.10507,0.10629,0.073304
-0.43854,0.98067,-2.942,7.7865,-0.1295,0.086743,0.10263
-0.40314,1.0787,-3.0401,8.0022,-0.064141,0.10721,0.095906
-0.34326,0.98067,-2.6086,8.0611,-0.0058032,0.14325,0.10171
-0.28552,1.0395,-2.6086,8.3945,0.011912,0.16616,0.12584
-0.20047,1.3533,-3.0793,8.3945,-0.026573,0.17593,0.15394
-0.10376,1.3533,-3.2362,8.3749,-0.10568,0.1686,0.15974
0.010712,1.3533,-3.4127,8.7279,-0.12523,0.13714,0.1292
0.11749,1.0787,-3.6285,9.7478,-0.018021,0.11942,0.10293
0.21201,0.90221,-3.8638,8.4141,0.11454,0.11057,-0.13836
0.31143,0.27459,-3.8638,9.6694,0.2251,0.05681,-0.12767
0.39563,0.41188,-3.8638,10.885,0.23885,-0.046426,0.057727
0.44733,0.90221,-3.0008,9.4928,0.11301,-0.12737,0.026573
0.39969,1.0787,-2.2751,7.8061,-0.12553,-0.19639,-0.0064141
0.27798,1.216,-3.0008,7.0019,-0.3711,-0.27245,-0.06353
0.146,1.5102,-3.4127,7.2765,-0.50427,-0.31948,-0.092852
0.026703,1.5298,-3.0008,7.7865,-0.49786,-0.32193,-0.13042
-0.049866,1.3533,-2.4517,8.6299,-0.095295,0.04215,-0.065668
-0.083008,1.0787,-2.6282,8.5514,-0.11912,0.021991,-0.066584
-0.096222,1.3729,-3.4519,8.2572,-0.12126,-0.0033598,-0.021075
-0.10477,1.4906,-3.8638,8.2572,-0.084605,-0.01069,-0.033903
-0.11197,1.5298,-3.3146,8.316,-0.014355,0.0064141,-0.047037
-0.13083,1.118,-2.6086,8.2572,0.04948,0.027489,-0.059865
-0.16714,1.1964,-2.3732,8.1787,0.07758,0.041539,-0.065363
-0.20422,0.8826,-3.0008,8.0807,0.074831,0.044899,-0.06689
-0.22943,1.118,-4.0403,8.6299,0.0030543,0.036957,-0.12859
-0.24091,1.216,-4.0403,8.8652,0.021991,0.035125,-0.1292
-0.23532,1.2356,-3.1381,9.1202,0.058948,0.036041,-0.078191
-0.21649,0.96105,-2.8832,8.9044,0.10782,0.045204,-0.092852
-0.19516,1.3533,-2.942,8.6887,0.16952,0.070555,-0.0956
-0.18829,1.1768,-3.197,8.316,0.23518,0.10721,-0.096211
-0.16434,1.118,-3.0793,8.2376,0.05284,0.14691,-0.10079
-0.14767,1.1376,-3.0793,8.4926,0.018021,0.17837,-0.11545
-0.13068,1.2945,-3.6285,8.5514,0.20495,0.19914,-0.053145
-0.11652,1.2945,-3.6873,8.5318,0.18173,0.20556,-0.010385
-0.10727,1.3533,-3.1381,8.4926,0.19792,0.21594,-0.13714
-0.1095,1.6671,-3.0793,8.4926,0.25107,0.23732,-0.14661
-0.12421,1.5298,-3.197,8.3945,0.32956,0.28161,-0.14844
-0.15955,1.6083,-3.4519,8.2572,0.38149,0.3372,-0.14386
-0.14542,1.6083,-3.55,8.1787,0.26878,0.3766,-0.13042
-0.15863,1.3729,-3.2166,8.4141,0.25015,0.39798,-0.097433
-0.16711,1.6671,-3.0008,8.2572,-0.5061,0.40042,0.073609
-0.18237,1.6083,-2.9028,7.7865,0.35949,0.3879,-0.0064141
-0.17987,1.2945,-2.6674,7.6492,0.32101,0.38301,0.041844
-0.18573,0.74531,-2.432,8.6299,0.34178,0.42364,0.093768
-0.18829,0.60801,-2.7655,8.7279,0.41478,0.44502,0.13714
-0.23999,0.41188,-2.7459,8.1199,0.35369,0.28008,0.19242
-0.31873,-0.90221,-2.1575,9.6694,0.069333,-0.0061087,0.21747
-0.39551,-1.9221,-3.0401,11.67,-0.25259,-0.26023,0.16524
-0.46051,0.078453,-3.6873,10.748,0.12767,0.50916,-0.026878
-0.47946,0.54917,-3.197,8.0807,0.0036652,0.36682,-0.054978
-0.51147,0.17652,-2.1378,7.1392,-0.13164,0.15119,0.18815
-0.55661,0.019613,-2.2163,7.7865,-0.27764,-0.051313,0.058032
-0.52206,0.41188,-3.0008,8.9437,-0.30849,-0.16554,0.013439
-0.38416,0.60801,-2.4713,10.63,-0.29077,-0.17196,-0.034514
-0.1503,0.92183,-2.2948,10.454,-0.29993,-0.15363,-0.033903
0.097443,1.8437,-3.3735,8.8652,-0.27397,-0.15302,-0.0048869
0.33496,2.2163,-3.6873,7.3158,-0.21838,-0.14416,-0.070555
0.53644,1.8437,-3.6873,6.3547,-0.14478,-0.12706,-0.082467
0.65643,1.5495,-2.7851,6.8647,0.017104,-0.09499,-0.079718
0.72168,1.6867,-2.4124,7.5315,0.16493,-0.022907,-0.1127
0.76141,1.8437,-2.6282,7.8061,0.19456,0.026573,-0.094684
0.78036,1.8437,-3.3146,7.8061,0.13286,0.028711,-0.042761
0.80527,1.4514,-3.3931,8.4926,0.043982,0,-0.039401
0.79861,1.0199,-3.0793,9.434,-0.016493,-0.035125,-0.056505
0.66068,1.5495,-3.5304,8.7083,-0.015272,-0.048564,-0.077885
0.36993,1.9809,-3.0793,4.668,0.035736,-0.016188,-0.082772
0.084991,-1.3141,-3.1381,9.7478,0.086437,0.03543,-0.079412
-0.14615,-0.5884,-3.55,11.846,0.093462,0.084299,-0.063225
-0.31674,1.118,-3.3539,9.5713,0.059254,0.1237,-0.043677
-0.46088,0.86299,-3.0989,8.0807,0.024435,0.14569,-0.035736
-0.57556,0.80415,-2.7459,7.7865,0.018631,0.16952,-0.050091
-0.6467,0.98067,-3.3931,8.2376,0.044899,0.20159,-0.069639
-0.65518,0.86299,-3.197,8.8456,-0.033903,0.19212,0.21289
-0.62823,1.0395,-2.8439,9.0221,-0.04215,0.22113,0.24282
-0.58093,1.3337,-2.8832,8.6299,-0.0048869,0.24618,0.086743
-0.50427,1.9613,-2.8832,8.0022,0.032681,0.23305,0.11393
-0.40335,1.9221,-3.0989,7.9042,0.02474,0.1744,0.17135
-0.28809,1.6083,-3.3146,8.2376,-0.026573,0.12187,0.23152
-0.19742,1.8633,-3.3146,8.0022,-0.07086,0.12706,0.24068
-0.14276,1.4318,-3.3146,8.0807,0.059254,0.32926,0.22297
-0.13828,1.5102,-3.8246,8.4926,-0.079718,-0.20831,0.048258
-0.14508,1.3729,-3.8442,8.6299,0.012828,-0.12737,0.031765
-0.15384,1.3533,-3.7069,8.4141,0.023824,-0.068111,-0.16127
-0.21442,0.76492,-3.0401,8.6102,-0.0054978,-0.040317,-0.12095
-0.24524,0.72569,-2.6282,8.9044,-0.050396,-0.048869,-0.073915
-0.29626,0.49033,-2.2751,9.0221,-0.10599,-0.086132,-0.028405
-0.34927,0.098066,-2.432,9.4928,-0.3317,-0.12309,0.011912
-0.37906,0.35304,-2.7851,9.0221,-0.21166,-0.14691,0.047647
-0.43417,0.72569,-2.687,7.8061,-0.046731,-0.15272,0.03879
-0.51575,-0.33343,-2.5693,8.0022,0.011301,-0.14722,0.037874
-0.62881,-1.4906,-3.2558,10.062,0.068111,-0.12401,0.037568
-0.74979,-0.13729,-3.1577,9.4928,0.097128,-0.08094,0.03146
-0.85382,0.45111,-2.432,7.0216,0.082467,-0.023518,0.023824
-0.95956,-0.13729,-2.0594,6.9823,0.013744,0.038485,0.027489
-0.99997,0.39227,-2.589,8.3749,-0.11484,0.088575,0.032376
-0.99997,0.35304,-2.7655,9.0417,-0.092852,0.11759,0.035736
-0.97058,1.0395,-3.2362,8.0807,-0.4948,-0.23396,0.18051
-0.81589,1.216,-4.3934,8.8848,-0.43921,-0.19059,0.15394
-0.52954,1.0591,-4.3542,10.375,-0.34789,-0.16952,0.033292
-0.20807,1.6475,-3.8442,9.8066,-0.25931,-0.16402,0.03879
0.093506,2.0006,-3.2166,7.7865,-0.13867,-0.13561,0.015272
0.32703,1.7456,-3.0597,7.0608,0.034208,-0.083689,-0.0036652
0.50302,1.0787,-2.5105,7.7473,0.10873,-0.07086,0.041233
0.61203,0.8826,-2.5693,8.6299,0.072998,-0.07422,0.12553
0.66626,0.90221,-3.0597,8.8652,0.15577,-0.085827,-0.14142
0.68631,1.3337,-3.295,8.5514,0.2138,-0.08491,-0.17135
0.70844,1.6083,-3.6285,8.316,0.11881,-0.08491,0.062308
0.69745,1.824,-3.4519,8.0022,-0.09499,-0.10324,0.011912
0.66736,1.824,-3.0793,7.6884,-0.29077,-0.15608,0.025962
0.58914,1.824,-2.5105,7.8061,-0.37507,-0.22266,-0.0073304
0.49637,1.7064,-2.5693,7.9042,0.036957,-0.27122,-0.064752
0.41116,1.4318,-3.2558,8.0807,0.064141,-0.26573,-0.10018
0.35794,1.4318,-4.0207,8.316,-0.083383,-0.023518,-0.0088575
0.3421,1.118,-4.1972,8.8652,-0.01741,0.015882,-0.021686
0.35168,1.3337,-3.7069,8.7083,0.014966,0.052534,0.020159
0.35181,1.118,-3.295,8.7083,0.0085521,0.078191,0.022907
0.33606,0.8826,-3.2362,8.9437,-0.029322,0.093157,0.029016
0.28885,0.90221,-3.0989,8.9437,-0.070555,0.091324,0.030543
0.21985,0.76492,-2.9224,8.9437,-0.075442,0.081856,0.02138
0.13541,0.96105,-2.9028,8.8064,-0.025351,0.076358,0.0067195
0.039825,0.98067,-2.942,8.5514,0.0281,0.061697,0.020464
-0.039185,0.92183,-3.0989,8.6299,0.009163,0.052534,0.020464
-0.10156,0.76492,-3.0597,8.6887,-0.029932,0.032987,-0.034514
-0.12482,0.49033,-2.9028,8.6887,-0.094379,0.0009163,-0.022907
-0.16537,0.5884,-2.7851,8.6299,-0.17562,-0.035125,-0.010079
-0.1629,0.74531,-2.9028,8.4926,-0.24557,-0.064752,0.0012217
-0.13977,0.74531,-3.1381,8.4337,-0.2981,-0.089797,0.0079412
-0.097961,1.0395,-3.4127,8.2768,-0.33903,-0.11118,0.015577
-0.039307,0.92183,-3.5304,8.0611,-0.34911,-0.11393,0.054367
0.031464,0.82376,-3.2558,8.218,-0.32895,-0.096211,0.047342
0.097809,1.118,-3.197,8.2572,-0.29199,-0.07758,0.023824
0.15927,1.1768,-3.3931,8.316,-0.2645,-0.065363,0.033598
0.22446,1.1376,-3.5108,8.4141,-0.25962,-0.059865,0.042455
0.28778,0.76492,-3.3931,8.4141,-0.27947,-0.062614,0.05284
0.35406,1.0395,-3.2362,8.5318,-0.31124,-0.070555,0.063225
0.42752,0.82376,-3.5108,8.218,-0.33537,-0.074526,0.060476
0.50345,0.92183,-3.7658,8.1003,-0.30146,-0.065363,0.020464
0.57141,1.2945,-3.6285,8.1199,-0.25168,-0.047647,0.018937
0.6051,1.2945,-3.4519,8.1591,-0.20892,-0.024129,0.03879
0.63614,1.216,-3.5304,8.1199,-0.18479,-0.0088575,0.036957
0.65057,1.1964,-3.8638,8.1591,-0.19151,-0.0012217,0.040928
0.65274,1.0787,-4.158,8.3945,-0.21716,-0.0079412,0.039095
0.64398,1.0395,-3.6873,8.3749,-0.21808,-0.025045,0.035736
0.61407,1.0395,-3.4127,8.316,-0.16371,-0.036346,0.029016
0.57758,1.0591,-3.3931,8.2572,0.059254,-0.014355,-0.011301
0.54639,0.98067,-3.3146,8.3357,0.0054978,-0.026573,0.0064141
0.54041,0.90221,-3.8638,8.2572,-0.044288,-0.045815,0.010385
0.5376,0.92183,-3.7658,8.4141,-0.030238,-0.073915,0.033903
0.53964,0.90221,-3.4519,8.5514,0.075136,-0.10476,0.040623
0.53046,1.0787,-3.197,8.4337,0.2529,-0.11209,0.019853
0.51282,0.98067,-3.3735,8.4729,0.051007,-0.076969,-0.0061087
0.50058,0.98067,-3.5304,8.4141,0.073304,0,-0.013439
0.4949,1.0787,-3.7069,8.2768,0.054672,0.080329,0.14691
0.49731,1.118,-3.6285,8.1787,0.14539,0.12828,0.14569
0.49387,1.1768,-3.5304,7.9238,0.28588,0.20159,0.011606
0.48798,1.1964,-3.4519,7.6492,0.44013,0.2868,0.029627
0.49304,1.3533,-3.4716,7.8649,0.56536,0.35461,0.073609
0.47787,1.2945,-3.5304,7.9238,0.66676,0.38271,0.11545
0.46704,1.3729,-3.9227,7.4923,0.71593,0.43433,0.13561
0.45309,1.6671,-3.9815,7.4531,0.562,0.4667,0.14355
0.40228,1.7456,-3.6285,7.7669,-0.78771,0.30268,-0.010996
0.29855,1.1964,-3.55,7.61,-0.76541,0.014966,0.0064141
0.094147,0.39227,-2.687,10.689,-0.52046,-0.23549,0.094684
-0.17993,-1.4514,-3.0793,10.375,-0.20067,-0.37446,0.054367
-0.44229,-0.23536,-3.9423,8.6299,0.035736,-0.3769,-0.0051924
-0.57239,0.49033,-3.8638,8.0218,0.10293,-0.30024,-0.1011
-0.55475,0.17652,-3.3539,7.963,0.08094,-0.21289,-0.12675
-0.43951,0.5884,-2.7262,7.8649,-0.48411,-0.15424,-0.073915
-0.27875,0.80415,-2.9812,7.6884,-0.17746,-0.13683,-0.054062
-0.091339,1.1768,-3.3931,8.0807,-0.19395,-0.14416,-0.021991
0.1127,1.1964,-3.4519,8.4337,-0.16829,-0.12859,-0.01741
0.29135,1.216,-3.6873,8.8456,-0.12034,-0.098655,-0.051007
0.45236,1.3337,-3.5696,8.9044,-0.061697,-0.065057,-0.084299
0.53204,1.3729,-3.7265,8.4926,-0.00030543,-0.034208,-0.094073
0.55399,1.7652,-3.8834,8.0611,0.018326,-0.014661,-0.088881
0.43256,1.824,-3.6285,7.8061,-0.10751,-0.0088575,-0.077274
0.24875,1.3533,-3.0401,8.0022,0.074831,-0.047342,-0.0281
0.022034,1.1964,-3.197,8.316,0.10904,-0.075442,-0.011912
-0.17325,0.90221,-3.6285,8.316,0.1069,-0.10812,-0.096517
-0.33719,0.92183,-4.0796,8.5514,0.047647,-0.14722,-0.090408
-0.45044,1.118,-3.8638,8.6887,-0.049175,-0.18906,-0.074831
-0.5575,1.2945,-3.5304,8.1591,-0.14813,-0.22327,-0.058948
-0.60318,1.216,-3.2166,7.8649,-0.197,-0.23366,-0.043371
-0.65335,1.1964,-3.3146,8.0218,-0.17287,-0.21319,-0.034819
-0.68619,0.90221,-3.5304,8.2376,-0.082161,-0.17287,-0.0067195
-0.71805,1.0591,-3.7658,8.4141,-0.040928,-0.13408,-0.031154
-0.75732,0.86299,-3.7854,8.6495,0.0097738,-0.10171,0.0045815
-0.79044,0.41188,-3.8834,8.9044,0.083383,-0.060781,0.0079412
-0.82593,0.41188,-3.6088,9.0417,0.14203,-0.0036652,0.009163
-0.862,0.25497,-3.3539,9.1202,0.13989,0.055589,0.013439
-0.89484,0.41188,-2.8832,8.8064,0.083078,0.098655,0.01741
-0.89978,0.54917,-2.6086,8.2572,0.029322,0.11087,0.0082467
-0.90594,1.0395,-2.9028,7.7865,0.043066,0.10721,-0.032681
-0.88712,1.3337,-2.9028,7.61,0.13042,0.10629,-0.035125
-0.85895,1.7456,-3.3931,7.8061,0.2529,0.12584,-0.054367
-0.84775,2.0006,-3.5696,7.8649,0.34636,0.1573,-0.076053
-0.85236,2.3732,-3.4519,8.0807,0.37507,0.17746,-0.093157
-0.8584,2.4517,-3.4519,7.9434,0.36072,0.17196,-0.092241
-0.89032,1.9025,-3.8638,8.218,0.31185,0.14844,-0.079412
-0.91226,1.9025,-3.9815,8.6887,0.2193,0.11362,-0.056505
-0.93893,1.6475,-3.3539,8.9044,0.10812,0.064446,0.083689
-0.98657,1.118,-2.7851,9.0221,0.034208,0.018631,0.11698
-0.99997,0.80415,-2.8243,8.6299,0.026573,0.0051924,-0.058643
-0.99997,0.86299,-2.6282,8.3945,0.055894,0.017715,-0.069028
-0.99997,0.74531,-2.4124,8.3945,0.091019,0.041539,-0.05284
-0.99997,0.66685,-2.0986,8.2376,0.11729,0.061392,-0.025351
-0.99997,0.41188,-2.2555,8.6495,0.1295,0.070555,0.0094684
-0.99997,0.49033,-2.5693,8.8064,0.12065,0.073609,0.046426
-0.99997,0.72569,-3.1381,8.4926,-0.0094684,0.025962,0.023213
-0.99997,0.96105,-3.6677,8.1787,-0.03146,0.054062,0.035125
-0.99997,1.1964,-3.6285,8.6887,-0.09896,0.076969,-0.0024435
-0.9986,1.216,-4.0207,8.8652,-0.16616,0.078802,0.011606
-0.87888,1.2945,-3.9423,8.4141,-0.18082,0.067195,0.019242
-0.71088,1.3533,-4.0207,8.218,-0.13592,0.064446,0.01741
-0.55212,1.4906,-4.158,8.1199,-0.04612,0.069333,0.021991
-0.40729,1.824,-4.0207,8.1787,0.067195,0.086132,0.023824
-0.30099,1.3337,-3.3735,8.4141,-0.00030543,0.10263,-0.11912
-0.22128,0.80415,-3.1577,8.6299,-0.14936,0.10324,-0.17043
-0.20053,1.118,-3.3735,8.4141,-0.14416,0.089492,0.049786
-0.21255,1.0787,-3.0989,8.2572,0.07025,0.046731,0.043982
-0.25003,0.86299,-2.9812,8.316,0.40378,-0.0079412,0.03543
-0.33316,0.5884,-3.0008,8.4926,0.71319,-0.078802,0.036652
-0.3858,0.74531,-2.8243,8.8456,0.15699,-0.12217,0.041844
-0.44455,0.5884,-3.0793,8.4926,0.1405,-0.10843,-0.021686
-0.48175,1.2749,-3.1381,8.1199,0.27733,-0.11087,-0.010079
-0.50726,1.2356,-3.0793,7.9042,-0.035125,-0.16127,-0.025962
-0.50348,1.0395,-3.3146,7.9238,-0.26909,-0.22969,-0.16738
-0.46387,1.1964,-3.6285,8.4926,-0.33078,-0.29322,-0.14508
-0.39212,1.3729,-3.6677,8.8652,-0.16799,-0.3149,-0.12798
-0.29349,1.3925,-3.6873,9.3359,0.14416,-0.29169,-0.12523
-0.20355,1.216,-3.9423,8.6887,0.78527,-0.2584,-0.10751
-0.14316,0.35304,-4.6484,9.1006,0.59559,-0.18143,-0.041539
-0.08551,0.8826,-4.6091,10.003,0.025656,0.073915,-0.0082467
-0.092499,0.98067,-2.8832,9.9439,0.048258,0.095295,-0.0088575
-0.18259,0.92183,-1.3141,8.316,0.069028,0.098349,-0.072388
-0.36154,1.3337,-1.5298,6.747,0.074831,0.085827,-0.063835
-0.58655,0.74531,-2.9028,7.61,0.05284,0.070555,-0.055894
-0.78009,1.6083,-3.8638,7.8061,0.0079412,0.047037,-0.048869
-0.91479,1.824,-3.3146,8.2572,-0.015272,0.019548,-0.033598
-0.99997,1.7456,-2.9028,7.6296,-0.011606,0.0079412,-0.016799
-0.99997,2.1575,-2.0986,4.7856,-0.41569,-0.21502,-0.12798
-0.99997,-0.27459,-1.8829,9.2183,-0.26114,-0.11851,-0.18387
-0.99997,-0.54917,-4.5699,11.376,-0.1124,-0.010385,0.1628
-0.99997,2.0594,-3.7854,10.297,-0.16554,0.064446,0.21777
-0.99997,1.4318,-1.7456,9.5713,-0.34972,0.015577,0.23976
-0.99997,1.2945,-1.824,9.179,-0.51954,-0.13317,0.15944
-0.99997,2.3732,-3.3146,8.1003,-0.56597,-0.2364,0.095906
-0.99997,2.8635,-3.8834,8.0611,-0.52351,-0.23763,0.011912
-0.95218,1.9613,-3.0008,8.8848,-0.42822,-0.19212,0.11668
-0.65317,1.3533,-2.0986,9.0025,-0.30146,-0.14569,0.1237
-0.3447,1.1768,-1.8829,9.179,-0.1909,-0.11362,-0.17287
-0.1315,1.216,-2.0594,9.3752,-0.12981,-0.11057,-0.1179
-0.1293,0.60801,-2.1967,8.1199,-0.12462,-0.13744,-0.046731
-0.31891,-1.3141,-1.9809,8.3749,-0.1631,-0.18662,0.011912
-0.57571,-2.7851,-2.6086,11.219,-0.23243,-0.21289,0.064141
-0.82666,-1.118,-3.3539,10.297,-0.29352,-0.21808,0.10812
-0.99731,0.76492,-2.4124,6.8647,0.1857,-0.21869,0.095295
-0.99997,0.25497,-1.1768,6.7666,-0.32223,-0.20769,0.088575
-0.99997,-0.23536,-1.9417,9.5125,-0.35675,-0.18479,0.13958
-0.99997,0.66685,-3.1381,8.6299,-0.32009,-0.12553,0.12034
-0.99997,1.3533,-1.8829,6.7666,-0.17593,-0.022602,0.090408
-0.83536,0.74531,-3.0793,9.3163,0.027184,0.075747,0.074526
-0.41382,0.86299,-4.6287,10.768,0.19456,0.13378,0.069944
0.044708,2.1771,-3.7854,8.8652,0.25351,0.13775,0.083383
0.44476,1.9221,-2.7655,7.7865,-0.32803,-0.29444,0.088575
0.72708,1.118,-1.9613,8.4141,-0.52809,-0.48106,0.12828
0.88315,0.90221,-2.4124,9.0417,-0.50121,-0.4499,0.021686
0.98825,1.5495,-3.0793,8.9437,-0.35369,-0.3091,-0.046426
1,1.2945,-3.1577,8.5318,-0.26695,-0.18021,-0.032376
1,1.3925,-3.4716,7.6492,-0.33292,-0.15516,0.010079
1,1.1964,-3.55,7.6492,-0.49633,-0.21228,0.05284
0.98846,0.90221,-2.8832,8.1787,-0.57818,-0.24771,0.068722
0.84714,1.2356,-2.5301,8.5514,0.58277,-0.23427,0.17746
0.64236,1.3533,-2.7459,8.1591,0.33506,-0.0048869,0.16402
0.4371,1.1964,-3.3539,7.963,-0.30085,0.17593,-0.21961
0.27386,1.2749,-3.8834,7.61,-0.96761,0.23732,-0.10904
0.16165,1.118,-3.8638,8.9044,-1.2254,0.13042,0.022297
0.12238,1.2945,-3.197,9.2771,-1.0018,-0.12981,0.13806
0.099457,1.1964,-3.0793,8.8652,-0.26114,-0.38179,0.21075
0.099518,1.3533,-3.0793,8.1199,0.32742,-0.44349,0.20983
0.14413,1.2356,-2.5105,7.3746,-0.047647,-0.35339,0.31948
0.2225,0.76492,-2.5693,8.2376,-0.10812,-0.22877,0.27764
0.39557,1.0591,-3.3931,8.7475,-0.16616,-0.14966,0.17776
0.62793,1.3533,-4.0011,8.7083,-0.051007,-0.13867,0.2022
0.89877,1.2945,-3.3931,8.6299,0.18234,-0.17165,0.23366
1,0.45111,-3.0989,9.434,0.4105,-0.20556,0.29413
1,0.49033,-4.4522,8.3357,-0.55619,-0.20556,0.36621
1,0.8826,-5.4133,7.5903,-0.18601,-0.15516,0.37141
1,0.98067,-4.7856,7.8453,-0.99479,-0.17379,0.036957
1,0.72569,-3.6873,8.4926,-1.0376,-0.30085,0.094379
1,0.86299,-3.1381,8.6299,-0.83017,-0.31521,0.10934
0.97568,2.0594,-3.3931,5.8055,-0.41783,-0.22602,0.030543
0.55878,0.86299,-0.78453,10.16,0.074831,-0.084605,-0.0039706
-0.053802,-0.76492,-2.6282,10.454,0.53909,0.038179,-0.026573
-0.54526,1.4318,-5.021,8.0611,0.92393,0.11026,-0.029932
-0.73468,1.7456,-4.0992,7.9238,1.1857,0.15088,0.0073304
-0.66763,1.118,-0.94144,8.4141,1.2773,0.16799,-0.10629
-0.48648,0.17652,-0.84337,9.1006,1.2104,0.16341,-0.22663
-0.23822,0.45111,-3.8638,7.7669,1.1805,0.21411,0.14508
0.082977,1.5298,-4.7856,7.61,1.2349,0.46029,0.09163
0.4415,1.3925,-4.0796,9.1006,0.93218,0.64874,0.046426
0.7229,0.64724,-3.6873,9.0025,0.14294,0.34575,0.1628
0.90527,0.86299,-4.2561,8.4926,-0.5568,-0.10232,0.21533
0.96783,1.6867,-3.9815,7.61,-0.69547,-0.32345,0.065668
0.92725,1.6083,-2.4124,6.747,-0.49724,-0.34514,0.053145
0.79962,0.41188,-1.5887,8.2376,-0.51985,-0.39615,0.075136
0.62668,-0.13729,-4.1972,8.2376,-0.66401,-0.40775,-0.12065
0.51666,0.098066,-7.3942,8.5514,-0.81825,-0.39859,-0.18082
0.60382,1.6083,-6.3351,10.062,-0.70585,-0.39951,-0.18937
0.77301,0.8826,-3.197,11.297,-0.33598,-0.39584,-0.10171
0.82666,0.35304,-1.2553,11.376,0.10934,-0.32773,0.02474
0.702,0.17652,-2.1967,9.3752,0.46426,-0.17013,0.062614
0.47028,1.0591,-3.7265,7.3158,0.085827,-0.057727,0.023213
0.23718,1.3533,-3.9423,6.237,-0.044899,-0.028405,0.07758
0.041138,1.1964,-3.3146,6.5508,-0.11698,0.015577,-0.22724
-0.14328,1.0591,-2.4124,7.4531,-0.11301,0.083078,-0.22785
-0.30505,1.5102,-2.1967,7.6884,-0.038485,0.16616,-0.20892
-0.41199,2.0006,-2.3732,7.61,0.082161,0.27092,-0.16646
-0.45145,2.0006,-2.2751,7.3942,0.18906,0.39126,-0.10599
-0.44968,2.1575,-1.9417,7.1589,0.22388,0.49877,-0.038485
-0.43753,2.3732,-1.8044,7.0019,0.20128,0.55955,0.29291
-0.43671,1.8044,-2.2948,8.316,0.26603,0.58338,0.094073
-0.44403,1.1376,-3.5304,9.3555,0.40928,0.58674,0.14386
-0.53781,0.74531,-2.7851,10.317,0.54184,0.55864,0.21044
-0.76709,-3.0401,-1.2553,12.925,0.35216,0.60628,0.26512
-0.98083,-0.54917,-5.7075,8.8064,-0.49572,0.72937,0.30604
-0.93277,2.6086,-5.9036,8.316,-1.5308,0.40928,0.31582
-0.57339,1.6083,-4.1384,8.316,-1.8234,-0.32529,0.32834
-0.10965,1.6671,-1.3533,9.2771,-1.325,-0.76816,-0.053145
0.30331,0.66685,-1.4906,8.3945,-0.58857,-0.73823,-0.071166
0.66785,1.5102,-2.8832,7.9434,-0.018631,-0.51191,-0.22113
0.95392,2.0006,-3.0793,9.6301,0.24923,-0.28955,-0.36652
1,1.2356,-3.8442,8.0807,0.18998,-0.14386,-0.21472
1,2.0594,-4.2561,6.845,-0.068417,-0.091324,-0.053451
1,1.8437,-3.7265,7.3746,-0.343,-0.11881,-0.039095
1,1.0199,-2.9028,7.9434,-0.478,-0.23396,-0.054367
1,0.74531,-2.4713,8.0807,0.20617,0.077885,0.17379
1,0.74531,-2.7262,8.316,0.22235,0.076358,0.19212
1,0.74531,-3.7069,8.1003,0.19242,0.07758,0.07086
1,1.3533,-4.3345,7.4727,0.13134,0.075747,0.076664
1,1.7456,-4.1776,7.61,0.057116,0.058948,0.096822
1,1.3533,-3.2558,8.316,0.0058032,0.033292,0.13103
1,1.118,-2.9028,9.0613,0.016493,0.0061087,0.14905
1,1.3533,-3.0597,8.2572,0.076969,-0.0018326,0.15882
0.91397,1.6475,-3.4519,8.0022,0.15821,0.031154,0.15455
0.76666,1.6475,-3.5696,8.3749,0.22633,0.082161,0.065973
0.62158,1.1964,-3.4519,8.8456,0.25931,0.12431,0.20861
0.50354,1.1768,-3.4519,8.9044,0.29322,0.17104,0.21808
0.37866,1.1964,-2.9812,8.5318,0.35003,0.24251,0.22358
0.25879,1.2945,-2.5301,8.218,0.37018,0.29138,0.22694
0.1254,1.1964,-2.5301,8.2572,0.31062,0.27703,0.21961
0.0015259,1.3533,-2.7459,8.4141,0.19517,0.15791,0.19395
-0.096466,1.5102,-3.0793,8.1787,0.065973,0.017104,-0.45784
-0.1821,1.9613,-3.4519,7.963,-0.038179,-0.071471,-0.4948
-0.26352,1.2356,-3.6285,8.8456,-0.20372,-0.1069,-0.063225
-0.34805,-0.019613,-4.413,10.14,-0.35125,-0.1518,-0.15363
-0.4462,-0.37265,-5.1387,10.728,-0.39706,-0.21594,-0.21747
-0.57443,0.27459,-4.0403,10.12,-0.30421,-0.25779,-0.30727
-0.7489,0.45111,-3.5696,8.3945,0.12156,-0.23579,-0.39951
-0.94821,0.98067,-3.5304,7.2373,0.098349,-0.19731,-0.44685
-0.99997,0.72569,-4.6484,7.4334,0.33964,-0.13592,-0.33842
-0.99997,0.60801,-4.0992,7.8649,0.39828,-0.054062,-0.29719
-0.99997,0.82376,-3.1381,8.2572,0.32956,0.0054978,-0.53145
-0.99997,0.90221,-2.589,8.5514,0.20433,0.029322,-0.51985
-0.99997,1.0591,-2.2751,8.5318,0.0956,-0.011606,-0.47739
-0.99997,1.4906,-2.3732,8.0807,0.0067195,-0.080329,-0.43524
-0.99997,1.6475,-2.1182,7.4727,-0.082772,-0.14325,-0.40806
-0.99997,1.6475,-1.7456,7.1392,0.16341,-0.18815,-0.37813
-0.99997,1.6475,-1.7456,6.9235,-0.0018326,0.13683,-0.17013
-0.99997,1.3337,-2.9028,8.2768,0.1576,0.26389,-0.14905
-0.99997,1.7456,-3.3146,9.1202,0.26481,0.36805,0.17196
-0.99997,1.5887,-3.4323,9.1986,0.15608,0.29535,0.17013
-0.99997,1.5298,-3.3146,9.1986,0.012217,0.13011,0.12339
-0.99997,1.5887,-3.1774,8.6887,-0.2364,-0.091019,0.080023
-0.99997,1.4514,-2.8243,8.6299,-0.44288,-0.2022,-0.0076358
-0.99997,1.5298,-2.8832,8.3749,-0.5287,-0.19151,-0.1292
-0.99997,1.6475,-3.3146,8.3749,-0.46395,-0.12859,-0.06689
-0.99997,1.4906,-3.0401,9.1202,-0.3937,-0.05681,-0.043066
-0.95035,1.3533,-2.3536,9.434,-0.33201,-0.0018326,-0.12767
-0.68845,1.3925,-2.0986,8.9044,-0.27122,0.024435,-0.11209
-0.44241,1.3925,-2.1967,8.9437,-0.16921,0.0082467,-0.085827
-0.28415,1.0395,-2.8439,9.4732,-0.034514,-0.0058032,-0.057116
-0.33316,1.5298,-3.9423,7.5315,0.12004,0.00061087,-0.052534
-0.49478,0.41188,-3.6285,8.7083,0.30513,0.020769,-0.067195
-0.66562,-0.68647,-3.1774,10.14,0.37385,0.073304,-0.10263
-0.82681,0.98067,-3.197,9.689,0.27184,0.078496,-0.081856
-0.94562,1.8044,-2.7655,7.5511,0.067501,0.011912,-0.039095
-0.99997,1.5495,-2.1182,6.8647,-0.15974,-0.093462,-0.045204
-0.99997,1.3925,-2.079,7.3746,-0.36011,-0.1912,-0.03543
-0.97485,0.8826,-3.4519,8.3357,-0.51557,-0.25045,-0.033903
-0.79419,1.4318,-4.0403,9.0417,-0.56688,-0.24771,-0.050396
-0.4166,1.3337,-3.3735,10.062,-0.49877,-0.19273,-0.083689
0.007843,1.118,-2.5105,9.9636,-0.39065,-0.11851,-0.03207
0.40234,1.4318,-2.432,9.5713,-0.24832,-0.07086,-0.032376
0.69992,1.7064,-3.3146,8.2572,-0.092852,-0.067806,-0.058948
0.91187,1.2945,-3.3539,7.4531,0.064141,-0.036957,-0.060781
1,1.0199,-3.3146,7.4727,0.18845,0.021686,-0.075747
1,1.2945,-3.3146,7.7473,0.2306,0.069028,-0.075747
1,1.5102,-3.2558,8.0022,0.20678,0.10263,-0.033598
0.97238,1.5298,-3.0989,8.1003,0.135,0.12492,-0.019242
0.86459,1.5298,-3.0597,8.1591,-0.39554,-0.22785,-0.11148
0.72021,1.1964,-3.0008,8.2572,-0.28497,-0.3207,-0.087965
0.57422,1.0591,-2.9812,8.3749,-0.072388,-0.36744,-0.13897
0.4426,0.80415,-3.0793,8.5514,0.16188,-0.36499,-0.12675
0.34229,1.0395,-3.2362,8.7279,0.33598,-0.31857,-0.17532
0.28958,0.90221,-3.3146,9.0221,0.33139,-0.26878,-0.18692
0.2576,1.216,-3.0793,8.8652,-0.20159,-0.22663,-0.16035
0.24014,1.2749,-2.8832,8.7083,-0.39095,-0.20861,-0.14508
0.23007,1.2749,-2.7851,8.9437,-0.54489,-0.24771,-0.15913
0.2384,1.118,-2.9812,8.8064,-0.72815,-0.33689,-0.13225
0.25171,1.118,-2.7851,8.7083,-0.72418,-0.40134,-0.10263
0.25262,1.1964,-2.3732,8.4141,-0.52687,-0.40989,-0.13836
0.23285,1.118,-2.5105,8.4337,-0.21258,-0.37782,-0.16096
0.12326,1.2945,-3.5696,8.8064,0.071471,-0.29963,-0.17685
-0.052917,1.2945,-4.1384,5.8055,0.12675,-0.17349,-0.1967
-0.26389,0.17652,-3.7265,9.1986,-0.21869,-0.033598,-0.19181
-0.45883,-0.39227,-3.6285,11.376,0.33628,0.069028,-0.13011
-0.6521,0.92183,-2.5105,10.474,0.28039,0.14142,-0.11118
-0.85461,0.49033,-2.432,8.5514,0.16799,0.19761,-0.11515
-0.99207,1.3925,-2.6086,7.3746,0.050702,0.25412,-0.09896
-0.99997,1.1768,-2.942,8.1787,-0.002138,0.30116,-0.10507
-0.94202,1.6083,-2.5693,9.6497,0.022297,0.31398,-0.12859
-0.76605,1.5495,-2.4713,9.6694,0.23763,0.31368,-0.13897
-0.59152,2.0006,-2.7459,8.4926,0.31979,0.32895,-0.13592
-0.44589,2.2359,-3.3931,7.2373,-0.22755,0.086437,-0.046426
-0.30856,2.0594,-3.3539,7.0216,-0.24465,0.068111,-0.13592
-0.18582,2.2751,-2.7262,7.2373,-0.013744,0.14997,0.12889
-0.1492,1.9221,-2.5105,7.7865,0.36408,0.30482,0.12523
-0.15128,2.2751,-2.7262,7.5511,0.51557,0.31582,0.15149
-0.20746,1.5298,-2.9224,7.5903,0.58124,0.22816,0.15608
-0.25284,1.1964,-3.0008,8.2572,0.46456,0.069333,0.10782
-0.29031,0.92183,-3.0793,8.7279,0.14142,-0.10232,0.059254
-0.27197,1.0395,-3.1577,8.9437,-0.020159,-0.022297,0.080634
-0.22006,0.54917,-3.0989,9.1202,-0.032987,0.007025,0.082467
-0.18588,0.66685,-2.3144,8.4141,-0.048564,0.039401,0.04948
-0.14178,0.72569,-2.1182,7.8061,-0.055283,0.072082,0.064752
-0.1254,0.45111,-2.1575,8.316,-0.050702,0.10079,0.073304
-0.098145,-0.35304,-2.8243,9.8851,-0.043982,0.12981,0.076053
-0.04425,-0.27459,-3.4519,10.728,-0.029932,0.15791,0.082161
-0.054565,0.17652,-4.0011,10.454,-0.0088575,0.1854,0.083689
-0.1218,0.49033,-4.7856,7.7865,0.018021,0.21258,0.037568
-0.23502,-0.27459,-4.3345,9.8066,0.050702,0.22969,0.017104
-0.37833,0.5884,-3.3146,10.689,0.076969,0.22877,0.093768
-0.5434,1.3337,-2.7262,8.1787,0.083078,0.20617,0.10537
-0.70758,0.86299,-2.1967,7.1392,0.069333,0.17746,0.10079
-0.87119,1.2356,-2.432,6.9235,0.045509,0.15027,0.081856
-0.95636,1.4514,-2.7262,7.3158,0.017715,0.12645,0.068111
-0.97009,1.0395,-3.2362,8.4141,-0.0079412,0.10476,0.056505
-0.91177,1.118,-3.3735,8.9437,-0.31398,-0.37446,-0.036652
-0.80157,1.1964,-3.4127,8.8652,-0.27886,-0.34789,-0.047647
-0.68524,1.3925,-3.3146,8.4926,-0.20006,-0.30085,-0.11148
-0.54688,1.6475,-2.8243,8.2572,-0.12675,-0.23488,-0.10629
-0.43906,1.7064,-2.5301,7.963,-0.095906,-0.16432,-0.095295
-0.3363,1.9221,-2.432,8.0807,-0.075136,-0.10629,-0.07758
-0.2832,1.7456,-2.5105,8.2572,-0.053451,-0.063835,-0.060781
-0.26443,1.7456,-2.8243,8.2376,-0.068722,-0.05284,-0.050396
-0.24994,1.9613,-3.0597,8.1787,-0.12492,-0.057727,0.014966
-0.2681,1.824,-3.1381,8.3945,-0.19853,-0.07758,0.03207
-0.27866,1.3925,-3.2362,9.0221,-0.25473,-0.10385,-0.064752
-0.28998,1.6083,-3.3539,8.9437,-0.25076,-0.11332,-0.074831
-0.26978,1.4318,-3.5304,8.8848,-0.18295,-0.1066,-0.081551
-0.24551,1.2945,-3.6285,8.6495,-0.099876,-0.090713,-0.059254
-0.21317,1.4318,-3.295,8.6887,-0.040317,-0.068417,-0.022602
-0.16946,1.118,-3.3931,8.8652,-0.015272,-0.046426,-0.00061087
-0.11935,1.0395,-3.5304,8.8064,-0.0027489,0.13622,0.24679
-0.064911,1.118,-3.3146,8.7083,-0.06353,0.14325,0.22969
-0.01889,1.118,-2.7459,8.2572,-0.094073,0.1408,0.14539
0.016907,0.90221,-2.7851,8.0022,-0.12645,0.14294,0.16127
0.068573,0.92183,-3.1381,8.0022,-0.14875,0.15821,0.17471
0.15454,1.1768,-2.9028,8.0022,-0.10843,0.1741,0.18784
0.29056,0.98067,-2.5693,8.0807,0.16799,0.15669,0.19945
0.4278,1.0395,-2.589,8.8064,0.090103,0.12309,0.22663
0.56409,1.1964,-3.3931,9.2575,0.15363,0.1799,-0.19975
0.64566,1.2945,-3.7265,9.1594,0.2532,0.19884,-0.197
0.58389,0.90221,-4.0207,5.4133,0.26267,0.10873,0.15944
0.41818,-0.70608,-4.2561,9.179,0.19609,-0.023213,0.057421
0.23761,-0.05884,-4.2757,11.415,-0.027489,-0.17837,-0.033903
0.023315,1.2356,-3.2362,9.5713,0.22785,0.048258,-0.040317
-0.20319,1.0395,-2.432,7.4727,-0.015272,-0.14966,-0.16005
-0.39664,0.64724,-2.4124,6.747,-0.21838,-0.24648,-0.20586
-0.51724,0.76492,-3.5108,7.1196,-0.46181,-0.24374,-0.1011
-0.50275,0.90221,-3.6088,8.2768,-0.43555,-0.22541,-0.10079
-0.38202,0.49033,-3.1577,9.179,-0.30085,-0.18723,-0.21411
-0.16183,0.90221,-2.9224,8.8652,-0.11393,-0.12309,-0.22816
0.070496,1.3337,-3.1381,7.9434,0.041539,-0.060476,-0.24374
0.30981,1.5298,-3.3146,7.4531,0.16371,0.0024435,-0.24129
0.55209,1.6867,-3.0008,7.708,0.15455,0.0079412,-0.18784
0.76633,1.8437,-2.432,8.0022,0.018631,-0.04612,-0.11942
0.95206,1.9221,-2.2751,8.1003,-0.32193,-0.1127,0.083994
1,2.0006,-2.5105,8.218,-0.25901,-0.14539,0.12065
1,1.8437,-3.0008,8.5318,-0.12798,-0.14416,-0.088575
1,1.4318,-3.9423,9.1986,0.018631,-0.11423,-0.071166
1,1.7652,-4.7856,8.8456,0.135,-0.060781,-0.058338
0.83102,1.824,-4.1776,6.0605,0.18815,0.0027489,-0.03543
0.48825,-0.35304,-3.0989,10.12,-0.1518,0.064141,-0.0030543
0.16174,0.41188,-3.7265,11.258,-0.27917,0.11057,0.038485
-0.13321,1.7456,-3.4519,9.2183,0.088575,-0.18418,-0.17929
-0.392,1.3533,-2.9028,7.61,0.051618,-0.16127,-0.16768
-0.55963,0.86299,-2.2751,7.5511,-0.067501,-0.15149,-0.1014
-0.6539,0.92183,-2.589,8.3749,-0.27611,-0.15149,-0.12309
-0.68018,0.92183,-2.6282,9.179,-0.562,-0.14875,-0.13775
-0.65158,0.80415,-2.3732,8.9044,-0.88453,-0.16524,-0.17135
-0.58368,1.118,-2.687,8.2376,-1.1225,-0.21136,-0.19059
-0.49069,1.3533,-2.8439,8.2572,-1.1628,-0.2645,-0.18631
-0.37918,1.6083,-2.687,8.7279,0.40592,0.38393,-0.1292
-0.27045,1.6475,-2.0398,8.7868,0.51435,0.39462,-0.10537
-0.21716,1.3925,-1.8829,8.4141,0.53084,0.36774,-0.089492
-0.19135,1.4318,-2.5105,8.4337,0.44379,0.31246,-0.080329
-0.15234,1.3925,-3.2166,8.2572,0.29963,0.25565,-0.081551
-0.090607,1.3729,-3.6285,8.4141,0.1518,0.22999,-0.088575
0.046326,0.86299,-3.0793,9.0417,0.067195,0.24374,-0.094684
0.20633,0.54917,-2.5105,9.1986,0.094073,0.28222,-0.11637
0.36432,0.74531,-2.7066,8.4729,0.3427,0.32467,0.0048869
0.46942,0.76492,-2.9812,7.6884,0.49724,0.34361,0.03146
0.51114,0.2942,-2.3732,8.5514,0.51038,0.32712,-0.07758
0.44629,0.23536,-2.2751,9.7478,0.48106,0.24496,-0.060476
0.33621,0.43149,-2.0398,8.9437,0.49724,0.18021,-0.023518
0.22614,0.098066,-2.3536,9.9832,0.42577,0.11454,0.011912
0.13852,0.60801,-1.6475,10.101,0.40317,0.021075,0.041233
0.058105,0.49033,-1.0199,9.5321,0.35583,-0.039095,0.031765
-0.015259,0.27459,-1.3729,8.6299,0.26725,-0.083078,-0.041844
-0.091217,-0.039227,-2.0986,8.5318,0.16493,-0.11118,-0.07025
-0.12946,-0.39227,-2.9812,9.8459,0.047037,-0.12065,0.049175
-0.10861,0.49033,-2.7655,9.3359,-0.053756,-0.1347,0.07422
-0.036224,0.25497,-2.2163,9.6301,-0.11637,-0.13073,0.075747
0.053711,0.70608,-1.118,8.8456,-0.099266,-0.11423,0.043371
0.093414,0.72569,-1.4318,7.9042,-0.028711,-0.1295,0.0088575
0.088379,1.0787,-2.4713,6.8254,0.05681,-0.17318,-0.025962
0.063599,1.9221,-2.9028,6.5312,0.0048869,0.0073304,0.22724
0.05899,1.8044,-2.2751,7.7865,0.38759,0.28405,0.29627
0.086548,1.0395,-1.5102,10.885,0.31979,0.44502,0.40775
0.081818,1.0199,-1.7456,10.689,-0.31246,0.26053,0.34422
0.065826,2.0594,-2.3144,8.3945,-1.0446,-0.1576,0.16982
0.042786,1.5887,-3.3735,8.0807,-1.3995,-0.45082,0.012828
-0.006012,1.1572,-4.0796,9.8066,-1.2599,-0.50732,-0.092852
-0.08078,1.1964,-2.5693,11.14,-0.79565,-0.39065,-0.11942
-0.16989,0.98067,-0.96105,10.454,0.4215,-0.20372,-0.044288
-0.36279,1.1964,-0.56879,9.0613,0.35644,-0.015272,-0.091324
-0.61273,1.0395,-0.72569,8.7083,0.072388,0.10507,-0.040928
-0.89279,0.82376,-1.471,7.7669,-0.27153,0.12859,0.055894
-0.99997,1.1964,-3.2362,6.1978,-0.54795,0.059559,0.10843
-0.99997,0.64724,-1.9417,8.8652,-0.71105,-0.05284,0.10385
-0.99997,-2.5301,-0.80415,11.003,-0.23671,-0.12523,0.062919
-0.99997,-1.4514,-3.0793,9.0417,0.2138,-0.14844,0.017104
-0.99997,0.60801,-4.6091,7.4531,-0.39309,-0.13714,-0.0048869
-0.99997,1.1964,-4.0796,7.4334,-0.13928,-0.096822,-0.032987
-0.99997,0.56879,-1.9809,8.7083,0.068417,-0.029627,-0.10568
-0.99997,0.25497,-1.4318,9.3555,0.13408,0.055589,-0.094684
-0.96616,0.66685,-2.432,8.7083,0.074831,0.11057,-0.058032
-0.64264,1.5102,-3.4519,8.2572,-0.030238,0.10232,-0.020464
-0.25092,1.2749,-3.9815,8.0807,-0.72662,0.041233,-0.0033598
0.077423,1.0591,-3.3735,8.7083,-0.60689,-0.033292,-0.0012217
0.36264,1.118,-2.9224,9.3359,-0.05284,-0.07025,-0.01069
0.55173,1.118,-2.8832,9.1202,0.050396,-0.067195,-0.018326
0.64749,1.6083,-2.8243,8.2572,0.11332,-0.029016,-0.067501
0.6734,1.7064,-2.7459,8.0807,0.11057,0.027794,-0.072998
0.63657,1.3533,-2.687,8.7868,0.072082,0.065668,-0.04215
0.58688,1.0787,-3.1381,9.1202,0.043677,0.061697,-0.016493
0.5372,1.118,-3.1577,8.6887,-0.1124,0.028711,-0.0097738
0.46063,1.2356,-2.8243,8.4729,-0.12217,0.0094684,-0.0064141
0.37314,0.74531,-2.7262,8.7279,-0.14997,-0.01741,-0.12462
0.28949,0.54917,-3.197,9.0221,-0.076664,-0.0039706,-0.15424
0.20004,0.90221,-3.0793,8.4729,-0.013439,0.0042761,0.039706
0.12122,0.5884,-2.687,8.5514,-0.0018326,0.0048869,0.079412
0.036743,0.56879,-2.589,9.0417,0.02138,0.04215,0.069944
-0.015045,1.2356,-3.0401,8.6299,0.14936,0.058948,0.023518
-0.037811,1.4318,-3.0989,8.0807,0.33445,0.039401,-0.0061087
-0.06131,1.2945,-2.8832,8.0022,0.44532,0.026267,-0.03543
-0.089783,1.1376,-2.6086,8.218,0.32467,-0.0085521,-0.047037
-0.10147,1.3533,-2.6086,8.6887,0.095295,-0.1014,-0.034819
-0.11639,1.0199,-3.0008,8.8652,-0.15272,-0.22144,-0.091935
-0.11856,1.3729,-3.2362,8.4141,-0.343,-0.30635,-0.08491
-0.1214,1.1768,-3.1577,8.2376,-0.42791,-0.31337,-0.13073
-0.1087,0.72569,-2.7459,8.4141,-0.39981,-0.26695,-0.14478
-0.092194,0.92183,-2.687,8.7083,-0.29627,-0.19884,-0.1237
-0.044708,1.118,-2.9812,8.5514,-0.17349,-0.13042,-0.084605
0.047638,1.1768,-3.0989,9.3752,-0.03146,-0.067501,0.093157
0.17703,1.2945,-3.6873,9.4928,0.10965,-0.009163,0.10904
0.32883,1.1376,-3.2166,8.316,0.17196,0.062919,-0.0281
0.54706,0.76492,-3.55,9.5321,0.12401,0.12675,-0.0064141
0.7399,0.74531,-2.2751,10.277,0.015882,0.14752,0.016188
0.89038,0.64724,-1.9613,9.2575,-0.083994,0.14264,0.041539
0.94302,1.4906,-2.3732,7.6884,-0.1182,0.14355,0.059865
0.92957,1.118,-2.4517,7.1589,-0.085827,0.16127,0.075136
0.86176,0.92183,-2.9028,7.4531,-0.10629,0.084299,-0.018021
0.77853,1.0395,-3.0597,7.8649,-0.073915,0.11606,-0.0018326
0.6958,0.98067,-2.7851,8.2572,-0.018326,0.14172,-0.068722
0.6293,0.96105,-2.687,8.2572,0.014355,0.1408,-0.067501
0.57202,0.74531,-2.7459,7.9434,0.0027489,0.11698,-0.066584
0.52365,0.70608,-3.0008,8.4141,-0.043982,0.080634,-0.064752
0.4422,0.90221,-3.1381,8.5514,-0.11545,0.032376,-0.050702
0.30087,1.0395,-3.3146,8.1787,-0.16616,-0.0067195,-0.03146
0.053864,2.0006,-2.7459,6.6881,0.0079412,-0.076053,-0.051924
-0.27942,-0.96105,-1.0199,11.827,0.025656,-0.082772,-0.035125
-0.59439,-0.96105,-4.0207,9.6301,0.026267,-0.080634,-0.036041
-0.69409,1.0787,-4.8641,8.5514,-0.0058032,-0.071471,-0.039706
-0.57339,0.66685,-3.4127,8.2572,-0.062003,-0.062919,-0.046731
-0.29193,0.2942,-1.9809,8.6887,-0.10446,-0.058948,-0.049786
0.082397,0.35304,-2.432,9.0417,-0.0064141,-0.065668,-0.054062
0.47058,0.70608,-2.8243,9.1986,-0.0033598,-0.080634,-0.05681
0.83554,1.3533,-2.8439,9.3359,-0.012523,-0.092241,-0.019242
1,1.3337,-3.1381,8.6495,0.027794,-0.094684,-0.025656
1,1.5298,-3.0793,8.4141,0.057421,-0.09499,-0.023518
1,1.5495,-2.8243,8.316,0.073915,-0.096822,-0.018631
1,1.3337,-2.5105,8.2572,0.075747,-0.098349,-0.017104
1,0.98067,-2.6086,8.3749,0.069333,-0.098349,-0.019548
1,0.96105,-3.0008,8.7083,-0.1014,-0.092241,-0.019853
0.98605,1.0591,-3.5304,8.8064,-0.060476,-0.08094,-0.018631
0.85873,1.2945,-3.7069,8.7279,-0.0045815,-0.049786,-0.019853
0.71375,1.3533,-3.5304,8.5318,0.065363,-0.014661,-0.024129
0.56601,1.0395,-3.2362,8.6299,0.062003,0.013439,-0.022602
0.39801,1.118,-3.0401,8.6887,0.042455,0.025045,-0.014355
0.22766,1.0395,-2.9028,8.3749,0.012217,0.022907,-0.0076358
0.059875,1.0395,-2.7851,8.316,-0.014661,0.027794,-0.0033598
-0.09259,1.1964,-2.7459,8.6299,-0.025656,0.030543,-0.0073304
-0.2244,0.80415,-2.9224,8.6495,-0.025351,0.028711,-0.013439
-0.3302,0.70608,-3.0793,8.8064,-0.17349,-0.0076358,-0.021075
-0.41913,0.8826,-3.1381,8.6495,-0.2419,-0.062308,-0.029016
-0.49026,0.98067,-3.0597,8.6299,-0.23518,-0.090408,-0.024129
-0.55719,1.1964,-2.8832,8.316,-0.17135,-0.088881,-0.033903
-0.65903,1.1964,-2.6282,8.0807,-0.1011,-0.065668,-0.03207
-0.7532,1.0395,-2.6282,8.1787,-0.050702,-0.052534,-0.026267
-0.84836,1.3533,-2.7262,8.2572,-0.018937,-0.053756,-0.023213
-0.9274,1.2356,-3.1381,8.5514,-0.0061087,-0.062308,-0.021075
-0.96402,1.5298,-3.3146,8.4141,-0.10476,-0.23366,-0.17074
-0.96362,1.0395,-3.2166,8.7083,-0.075442,-0.31704,-0.15058
-0.95096,1.0199,-2.5693,8.5514,0.045815,-0.38057,-0.11637
-0.92758,0.98067,-3.1381,8.5514,0.2022,-0.38454,-0.13286
-0.87268,1.5102,-3.9423,8.3749,0.28161,-0.33445,-0.21777
-0.77502,1.3533,-3.55,8.2376,0.25015,-0.25443,-0.26084
-0.66772,0.74531,-2.2751,9.3359,0.083383,-0.1631,-0.25168
-0.5473,0.8826,-1.6671,9.3163,-0.19181,-0.097128,-0.21716
-0.42303,1.1964,-2.8243,8.0807,-0.51129,-0.069944,-0.073304
-0.26248,1.0395,-4.0992,7.3158,-0.77458,-0.080329,-0.050396
-0.012207,0.49033,-2.687,8.7868,-0.86468,-0.097433,-0.12462
0.24554,-0.50995,-0.56879,10.787,-0.77244,-0.096517,-0.092852
0.44577,-0.35304,-0.23536,10.062,-0.57788,-0.050702,-0.073609
0.58228,1.1768,-2.2751,7.963,-0.32315,0.034514,-0.058948
0.6366,1.6867,-3.0793,6.845,-0.047647,0.16768,-0.064446
0.60236,0.86299,-3.55,7.7865,0.1628,0.3091,-0.089186
0.47208,0.80415,-3.6088,10.062,-0.01741,-0.12187,0.015272
0.26868,1.1376,-2.9028,11.062,-0.1127,-0.067501,-0.016188
0.0091248,1.824,-1.9809,10.277,-0.024435,0.062308,0.16005
-0.29108,1.824,-1.0591,9.3359,0.22297,0.19487,0.12889
-0.5892,1.6867,-0.80415,9.3359,0.51099,0.26359,0.11515
-0.87692,1.0395,-1.726,9.7282,0.80298,0.30696,0.11942
-0.99997,0.74531,-2.687,9.7282,0.97525,0.31307,0.098349
-0.99997,1.1768,-3.6285,9.5713,1.0153,0.27733,0.065363
-0.99997,1.8044,-2.9028,8.7083,0.94379,0.20342,-0.042761
-0.99997,1.9221,-1.216,7.9238,0.79871,0.11148,-0.069028
-0.97882,1.5298,-0.098066,7.2373,0.67531,0.036957,-0.08094
-0.85977,1.3533,-0.49033,6.6489,0.58246,-0.0027489,-0.14294
-0.73013,1.1768,-2.0006,7.2373,0.49847,-0.021991,-0.14294
-0.59967,1.6083,-3.2362,8.1787,0.39706,-0.050091,-0.12248
-0.38596,1.4318,-3.3735,8.0807,0.28497,-0.084605,-0.097433
-0.14471,1.0591,-2.687,8.6887,0.13775,-0.13775,-0.065057
0.038635,0.80415,-2.1182,8.9437,-0.25045,0.040623,0.050396
0.13855,0.5884,-1.6475,8.6299,-0.23732,0.040928,0.070555
0.10202,0.35304,-1.3533,9.6694,-0.14447,0.072082,-0.051924
-0.077118,-0.37265,-2.0594,8.7868,0.0094684,0.13775,-0.073609
-0.31924,-2.2555,-2.432,12.18,0.13256,0.20678,-0.10415
-0.59152,-0.80415,-2.7655,13.102,0.14355,0.23915,-0.07758
-0.83911,0.23536,-2.687,9.5713,-0.18479,0.20831,-0.0067195
-0.99997,-0.50995,-1.9809,8.0022,-0.21564,0.12462,0.030543
-0.99997,-0.50995,-1.3337,6.9039,0.15272,0.16982,0.083383
-0.99997,0.11768,-1.6475,7.0019,0.17287,0.20586,0.064141
-0.99997,0.60801,-1.4122,8.3945,0.26023,0.26328,0.099876
-0.99997,1.3533,-0.5884,8.0807,0.33934,0.30696,0.091324
-0.99997,2.0006,-1.0199,7.9434,0.32895,0.28741,0.054978
-0.99997,1.7064,-1.9613,9.3359,0.25473,0.23396,0.067806
-0.99997,1.6671,-2.1967,10.317,0.13439,0.1405,0.10751
-0.99997,1.3533,-2.2751,11.062,-0.023213,0.02138,0.10293
-0.99997,1.6867,-2.1182,10.513,-0.19151,-0.077274,0
-0.99997,1.7456,-1.8437,9.5125,-0.36805,-0.15058,0.01069
-0.99997,1.7652,-2.5301,8.9437,-0.53695,-0.21502,0.055589
-0.99997,1.9221,-3.1381,8.0611,-0.6524,-0.27,0.0562
-0.99997,1.5495,-3.3539,7.8649,-0.67378,-0.2981,0.055283
-0.9201,1.118,-2.4713,7.8649,-0.56963,-0.27336,0.035125
-0.78275,0.64724,-2.1967,8.218,-0.36744,-0.20006,0.0024435
-0.66699,0.66685,-2.589,8.3749,-0.12706,-0.10996,-0.0067195
-0.55832,0.74531,-2.8243,8.7475,0.068722,0.0018326,-0.039706
-0.46225,0.50995,-2.8243,9.3359,-0.051618,0.095295,-0.053145
-0.36285,1.1964,-3.1381,8.0807,-0.19303,0.12309,0.030238
-0.24524,0.98067,-2.687,7.8649,-0.27245,0.096211,0.040317
-0.12341,-0.33343,-2.1182,8.6299,-0.26053,0.046426,0.017715
-0.018463,-0.21575,-1.824,10.003,-0.20922,0.018326,-0.021991
0.090393,0.098066,-2.5301,10.297,0.054367,0.025351,-0.042455
0.2124,1.118,-3.1381,8.7083,0.11881,0.040012,-0.030849
0.32672,1.3533,-2.9028,8.0807,-0.0009163,0.055283,-0.029627
0.43228,1.0395,-2.7851,8.3945,0.037263,0.091019,-0.052229
0.48877,1.4906,-2.7459,8.5514,-0.0030543,0.078802,-0.074526
0.48349,1.6671,-3.2558,8.218,-0.07758,0.032987,-0.055894
0.40784,1.6083,-3.0793,7.5511,-0.11087,-0.025351,-0.063225
0.28558,0.27459,-2.687,10.454,-0.068722,-0.063835,-0.075442
0.1701,1.0395,-2.7459,11.199,0.015272,-0.060476,-0.062308
0.051392,2.0594,-2.9224,8.7083,0.071471,-0.033598,-0.033598
-0.060272,1.7456,-2.2163,7.2765,0.038485,-0.019548,-0.017715
-0.16397,0.98067,-1.8437,7.5315,-0.10904,-0.01741,0.029932
-0.23019,1.3337,-2.1967,8.0022,-0.31307,-0.032681,-0.074831
-0.18448,0.80415,-2.589,9.2183,-0.46059,-0.054367,-0.082467
-0.084564,0.74531,-2.8832,9.6694,-0.48625,-0.069639,-0.07758
0.075439,0.74531,-3.0793,9.4144,-0.42577,-0.074526,-0.069333
0.22888,0.50995,-2.7851,9.0221,-0.34483,-0.067501,-0.065668
0.36182,0.41188,-2.5105,8.7083,-0.29719,-0.061392,-0.053756
0.45157,0.5884,-2.4124,8.218,-0.29474,-0.05681,0.073609
0.46631,0.49033,-2.5105,8.0022,-0.27703,-0.041539,0.094073
0.46304,0.74531,-2.6086,8.4141,-0.25656,-0.010385,0.063835
0.44482,1.1768,-2.8439,8.5514,-0.25656,0.022907,0.090103
0.42673,1.2356,-2.7262,8.316,-0.27886,0.036957,0.10751
0.43524,0.98067,-2.7655,8.0611,-0.27642,0.041539,0.10629
0.48215,1.3337,-3.197,7.9238,-0.21472,0.060476,0.090408
0.55093,1.5102,-3.3931,8.316,-0.13317,0.09896,0.071166
0.63397,1.2945,-3.3931,8.8064,-0.05681,0.13347,0.18082
0.69281,1.1964,-3.4127,9.3359,0.002138,0.15363,0.22816
0.70404,1.5298,-3.6285,8.6887,0.078496,0.14661,0.11973
0.56284,2.0006,-3.2362,6.845,0.16524,0.13073,0.15394
0.25854,-0.50995,-1.6671,10.748,0.24862,0.12584,0.19456
-0.097595,-1.1572,-3.6285,9.5125,0.36346,0.13164,0.2251
-0.36301,1.0591,-4.2953,8.7083,0.45296,0.22816,0.21136
-0.42557,0.49033,-3.3931,8.3749,0.21044,0.43433,0.16738
-0.34882,0.41188,-1.8044,8.4729,0.010079,-0.01741,0.021075
-0.13943,0.25497,-1.5691,8.1787,0.013134,-0.013134,0.027794
0.1199,0.54917,-2.3732,8.218,-0.017715,-0.013439,0.05681
0.40054,1.0395,-2.9028,8.2572,-0.062308,-0.012828,0.045509
0.67471,1.3533,-3.3146,8.3357,-0.11209,-0.014966,0.03207
0.92822,1.3533,-3.2362,8.3749,-0.18112,-0.02474,0.022907
1,1.1768,-3.0597,8.7475,-0.26237,-0.058948,0.020159
1,1.0199,-2.9028,8.7083,-0.30238,-0.11362,0.020769
1,1.118,-3.2362,8.3749,0.069333,-0.15149,0.14355
1,0.80415,-2.6086,8.0807,0.18021,-0.15363,0.10385
1,0.72569,-2.2948,8.8456,0.22358,-0.13103,0.051007
1,0.74531,-2.6282,9.1594,0.14478,-0.11026,0.095295
1,1.1964,-3.0793,8.8848,-0.061392,-0.093462,0.13622
1,1.1964,-3.1577,8.8064,-0.24526,-0.11301,0.18234
1,1.3337,-2.7851,8.8652,-0.24435,-0.18295,0.23121
1,1.3337,-2.6674,8.8848,-0.092546,-0.23427,0.21411
1,0.8826,-2.5105,9.0025,-0.11423,-0.2248,-0.051007
0.90491,0.92183,-2.8439,8.8652,0.081551,-0.15027,-0.054062
0.76837,0.74531,-3.2362,8.7083,0.20861,-0.040928,0.069333
0.61142,0.90221,-2.9224,8.8652,0.21075,0.062003,0.048564
0.46677,0.66685,-1.8829,8.6887,0.10079,0.1292,0.055283
0.33881,0.27459,-1.8829,8.8848,0.019548,0.16005,0.038485
0.24838,0.80415,-2.687,8.4141,-0.32498,0.16554,-0.011606
0.18784,1.3533,-3.6285,7.6884,-0.27978,0.17349,-0.047342
0.15668,1.0395,-3.8442,8.2572,0.019548,0.16768,-0.15272
0.1911,0.80415,-3.4519,9.0417,0.08491,0.1408,-0.12675
0.21176,1.0787,-2.6282,8.4141,0.098349,0.080023,-0.12706
0.2049,1.118,-3.0401,7.6296,0.0015272,0.01405,-0.17776
0.21649,0.60801,-3.6285,9.2575,-0.1408,-0.043982,-0.16829
0.24243,1.0591,-3.6873,10.14,-0.24007,-0.099876,-0.17257
0.25354,1.3533,-2.687,9.1202,-0.0027489,-0.14997,-0.18295
0.20251,1.4906,-2.2948,7.8649,-0.0082467,-0.17532,-0.17776
0.10355,1.4318,-2.687,7.3942,-0.22571,-0.11118,0.10171
-0.038055,1.1964,-3.4127,8.1787,-0.12401,-0.098349,0.09163
-0.19098,1.5298,-2.7459,8.4926,-0.045815,-0.091935,0.070555
-0.34039,1.4318,-2.6674,8.6299,0.02138,-0.085827,0.075442
-0.50024,1.4318,-3.0597,7.9238,0.07422,-0.069944,0.071471
-0.68939,1.0395,-3.1381,7.9434,0.090713,-0.039095,0.059865
-0.87848,0.72569,-3.3539,8.8848,0.048869,-0.024435,0.065057
-0.99997,0.96105,-3.0401,8.9437,-0.014661,-0.045509,0.087048
-0.99997,0.90221,-2.4517,8.7083,-0.050702,-0.06689,0.0033598
-0.99997,0.90221,-1.8044,8.4926,-0.027794,-0.072388,-0.043677
-0.99997,0.76492,-1.8044,8.4141,0.054672,-0.034208,0.073915
-0.99997,0.19613,-1.9417,8.8848,0.16799,0.031765,0.055894
-0.99997,-0.50995,-2.3144,9.3163,0.20159,0.098044,0.065668
-0.99997,-0.35304,-2.3732,9.3359,0.11545,0.13592,0.099876
-0.99997,-0.05884,-2.3144,9.0613,-0.022297,0.06689,0.07758
-0.99997,0.41188,-2.432,8.8652,-0.18418,-0.053145,0.01405
-0.99997,0.35304,-2.942,8.4141,-0.33537,-0.14783,-0.045815
-0.99997,0.17652,-2.9028,8.5318,-0.37935,-0.21166,-0.032987
-0.99997,0.56879,-2.8243,8.9044,-0.28039,-0.23182,-0.1347
-0.95898,0.66685,-2.7655,8.8652,-0.12065,-0.21441,-0.1631
-0.7709,0.90221,-2.5693,9.0417,0.020464,-0.18082,-0.12339
-0.59427,0.82376,-2.9028,9.5125,0.10751,-0.13439,-0.0956
-0.46506,1.5102,-3.3931,9.0417,0.1179,-0.092546,-0.089492
-0.37195,1.2945,-2.7459,8.0807,0.040317,-0.04612,-0.070555
-0.30795,0.8826,-2.4517,8.4926,-0.063225,0.06689,0.072693
-0.26346,0.17652,-3.0401,9.6497,-0.16524,0.0064141,0.069028
-0.21552,1.5102,-3.3539,9.1594,-0.28619,-0.047342,0.0036652
-0.17441,1.1964,-3.1577,8.4337,-0.40256,-0.10324,0.038485
-0.14117,1.6867,-2.687,7.7865,-0.48808,-0.14966,0.064752
-0.13699,1.5298,-2.589,7.7865,-0.5171,-0.16768,0.067501
-0.14944,1.6671,-2.5105,7.9238,-0.48778,-0.16402,0.069333
-0.18549,1.4906,-3.0793,8.2572,-0.41203,-0.13836,0.074526
-0.22852,1.4318,-3.2362,8.3749,0.34056,0.12645,-0.044288
-0.24295,1.118,-2.9028,8.2768,0.33078,0.13744,-0.028711
-0.27963,1.0003,-2.4713,8.0611,0.29169,0.13836,0.054062
-0.31677,0.25497,-2.8243,8.3357,0.25717,0.13103,0.058948
-0.34222,0.41188,-3.4519,9.0025,0.23702,0.1066,0.043371
-0.34894,1.0395,-4.0796,8.8064,0.20556,0.10385,0.01405
-0.29877,1.118,-3.5304,8.6495,0.32009,0.12523,-0.030543
-0.23123,1.1964,-3.2362,8.6299,0.33048,0.14569,-0.055283
-0.094971,1.5102,-3.0597,8.6887,0.066584,0.1408,0.0024435
0.067932,1.6671,-3.0401,8.5514,0.10446,0.11759,0.01069
0.26321,1.3925,-3.5304,8.1787,0.15485,0.10812,-0.031154
0.46213,1.6083,-3.8834,7.9434,0.17318,0.11423,-0.047037
0.63663,1.1964,-3.3735,8.4926,0.13286,0.11698,-0.043066
0.74915,0.90221,-2.7459,8.6299,0.075136,0.11698,-0.013134
0.80902,1.0395,-2.4713,8.4141,0.14019,0.11881,-0.0018326
0.8364,1.0395,-3.1381,8.2376,0.075442,0.11301,-0.0042761
0.82965,1.3533,-3.4519,8.7279,-0.00030543,0.021075,0.059559
0.81995,0.90221,-3.5696,8.8652,0.2193,0.09163,0.038179
0.79794,0.8826,-3.3146,8.6299,0.35675,0.14355,-0.065973
0.73297,0.98067,-3.2362,8.2572,0.36652,0.15638,-0.024129
0.61246,0.98067,-3.1381,8.1591,0.28619,0.1518,0.01741
0.43439,0.49033,-3.3539,8.0218,0.1573,0.14508,0.031765
0.24493,0.2942,-3.6285,8.5514,0.071471,0.11118,0.03543
0.054291,0.92183,-3.4519,8.6299,0.076358,0.078802,0.050091
-0.15134,1.2945,-2.7655,8.4926,0.12217,0.071471,0.07086
-0.31805,0.98067,-2.7459,8.3945,0.18051,0.081551,0.054367
-0.45096,1.0395,-2.8832,8.4141,0.26298,0.09499,0.018937
-0.54044,0.72569,-3.0008,8.8848,0.3488,0.10996,0.047647
-0.57651,1.118,-2.9028,8.4337,0.38607,0.11729,0.078802
-0.57968,0.76492,-3.1381,7.9434,0.37415,0.11118,0.089492
-0.55252,0.70608,-3.1381,8.5514,0.34667,0.10293,0.086437
-0.4873,0.86299,-3.0401,9.2575,0.32345,0.10782,0.081245
-0.42404,1.1376,-3.3735,9.3163,-0.030543,0.078496,0.0085521
-0.42984,1.0199,-3.6285,8.6887,0.042761,0.12859,-0.0042761
-0.5611,0.86299,-3.3146,6.3547,0.030238,0.1408,0.10568
-0.79236,0.039227,-2.432,8.1003,-0.025351,0.10079,0.11729
-0.98889,-1.1572,-2.589,10.63,-0.062003,0.058032,0.11301
-0.99997,-0.13729,-2.9028,9.8263,-0.067195,0.033903,0.076053
-0.99997,0.2942,-2.2555,8.4141,-0.054367,0.016799,0.037568
-0.99997,0.49033,-1.5691,8.2572,-0.033903,0.0027489,0.020159
-0.99997,0.27459,-1.8044,7.8649,-0.069639,-0.0073304,0.016799
-0.99997,-0.19613,-2.7851,9.4928,-0.021686,-0.010385,0.010996
-0.99997,-0.66685,-2.2751,11.376,-0.0039706,-0.013744,-0.0076358
-0.99997,0.23536,-1.471,11.199,-0.0067195,-0.021686,0.0009163
-0.96832,1.3533,-1.9613,9.3555,-0.027489,-0.025962,0.0048869
-0.67328,1.118,-2.7459,7.963,-0.051313,-0.0097738,-0.0012217
-0.35843,1.118,-2.5105,7.2765,-0.064446,0.032376,-0.0085521
-0.10031,0.76492,-2.687,7.708,-0.059559,0.063225,0.00030543
0.096344,1.6083,-3.1577,8.1199,-0.52718,-0.2193,0.10996
0.28967,1.6475,-3.6677,8.218,-0.35736,-0.17593,0.10873
0.45419,1.824,-3.2166,8.3945,-0.25687,-0.1689,0.054062
0.57193,1.6867,-2.6086,8.316,-0.21105,-0.14386,0.088575
0.64874,1.3337,-2.4517,8.0022,-0.18692,-0.11301,0.088575
0.69568,1.5102,-3.0597,7.7473,-0.19487,-0.080023,0.098349
0.75558,1.2356,-3.8442,7.963,-0.21258,-0.046426,0.1127
0.82922,1.0591,-4.2953,8.2572,-0.25198,-0.013134,0.10782
0.91278,0.96105,-3.6873,8.7083,-0.4102,0.0064141,0.10049
0.97852,0.74531,-3.4716,8.9437,-0.52626,-0.0018326,0.098655
1,0.66685,-3.4519,8.8652,-0.59468,-0.018937,0.10324
1,0.74531,-3.4519,8.6887,-0.58948,-0.030543,0.10476
0.98566,0.86299,-3.2166,8.5318,-0.53206,-0.029016,0.10721
0.93591,0.90221,-3.0008,8.4926,-0.44502,-0.011301,0.1069
0.85052,0.90221,-2.9812,8.1787,-0.33323,0.013439,0.10324
0.75159,1.0199,-2.7459,8.0022,-0.17623,0.037874,0.10079
0.65622,0.76492,-3.2362,8.1787,0.19517,0.079412,-0.04948
0.58389,1.0199,-3.4519,8.2768,0.19792,0.085216,-0.051313
0.543,1.0199,-3.3539,8.4141,0.16066,0.080329,-0.10171
0.4993,0.90221,-2.9812,8.4926,0.081245,0.055589,-0.10263
0.44354,0.72569,-2.8243,8.316,-0.014966,0.013439,-0.10507
0.40192,0.90221,-2.9028,7.9238,-0.06689,-0.037874,-0.081551
0.34943,0.76492,-3.2166,8.2572,0.083689,-0.073609,-0.054062
0.29462,0.66685,-3.3931,8.3749,0.15791,-0.085827,-0.050396
0.25888,1.118,-3.9423,8.1591,-0.14386,-0.28619,-0.14661
0.22263,1.2945,-3.8246,7.9238,0.13592,-0.20983,-0.17562
0.14658,1.3925,-3.2362,8.8064,0.30238,-0.13286,-0.12828
-0.031189,0.098066,-2.8832,11.395,0.33048,-0.072693,-0.12339
-0.30582,-1.0003,-4.0992,10.12,0.2584,-0.030543,-0.11454
-0.5354,0.56879,-4.0403,8.8848,0.17196,-0.0082467,-0.11087
-0.64676,0.90221,-3.3146,7.9238,0.14142,0.0039706,-0.11515
-0.63782,0.80415,-2.7262,7.5511,0.14478,0.010385,-0.12523
-0.53656,0.35304,-2.5693,7.9434,0.0015272,0.0085521,-0.11332
-0.38785,0.27459,-2.6086,8.4141,-0.022297,0,-0.09163
-0.211,0.70608,-2.7459,8.4926,0.0036652,-0.011912,-0.20617
-0.042389,1.0395,-3.1577,8.4337,0.05681,-0.015577,-0.21472
0.12198,1.2945,-3.3931,8.3749,0.12767,-0.0054978,-0.20036
0.23013,1.1964,-3.1381,8.6887,0.19456,0.02138,-0.19731
0.28281,1.3533,-3.4127,8.4926,0.1295,0.045204,-0.19212
0.24319,1.2356,-2.8243,7.9238,0.069639,0.063225,-0.16157
0.13412,1.0395,-2.5105,8.0807,0.21991,0.08094,-0.078496
0.0068054,0.56879,-2.4517,8.7083,0.28161,0.09896,-0.096822
-0.13547,0.039227,-3.2362,8.7475,0.30635,0.13195,-0.10629
-0.23846,0.35304,-3.7265,9.179,0.25137,0.17593,-0.11881
-0.30237,0.27459,-3.1381,9.2575,0.1405,0.21044,-0.10049
-0.35117,0.41188,-2.589,9.1594,0.062308,0.2135,-0.065668
-0.39319,0.74531,-2.4713,8.0807,0.21594,0.17165,-0.047037
-0.41025,0.66685,-2.7262,8.218,0.2022,0.10812,-0.05681
-0.38623,0.49033,-3.0401,8.8652,0.029932,-0.027489,-0.11484
-0.31454,0.80415,-3.0989,8.6887,0.061392,0.049786,-0.16066
-0.2225,1.0395,-2.432,8.5906,0.1518,0.15241,0.16402
-0.13693,0.74531,-2.3732,8.9437,0.20617,0.24709,0.18387
-0.11026,0.8826,-2.8832,9.3359,0.095906,0.23763,0.19487
-0.19122,1.0395,-3.197,8.9437,-0.13928,0.062308,0.15241
-0.42377,1.2945,-2.6086,5.7467,-0.27764,-0.10843,0.062614
-0.74716,-0.68647,-1.6279,8.5514,-0.34667,-0.17929,-0.041844
-0.98886,-0.05884,-1.824,9.2575,-0.40836,-0.17623,0.018021
-0.99997,0.2942,-2.432,8.5318,-0.35644,-0.16127,0.036346
-0.99997,0.98067,-3.1381,9.434,-0.2303,-0.1405,-0.12798
-0.99997,1.2945,-3.4127,9.179,-0.085521,-0.11026,-0.072998
-0.99997,1.4318,-2.7655,7.61,0.00061087,-0.074831,-0.055894
-0.99997,1.118,-2.0594,7.1196,0.062003,-0.054062,-0.06353
-0.99997,-0.80415,-2.9812,9.9636,0.07422,-0.029932,-0.066584
-0.99997,-0.76492,-3.8638,10.454,-0.031154,-0.034208,-0.040012
-0.99997,1.4318,-3.0793,9.0417,-0.19792,-0.082772,0.028711
-0.99997,0.74531,-2.7459,7.4531,-0.32803,-0.14997,0.046731
-0.99997,0.54917,-2.6674,7.4531,-0.36499,-0.19517,0.038485
-0.99997,0.80415,-2.9028,8.4926,-0.31551,-0.1967,0.045204
-0.99997,0.27459,-2.5105,9.5713,-0.20892,-0.16005,0.040623
-0.99997,0.56879,-2.7851,9.2575,-0.087965,-0.090713,0.012523
-0.99997,0.90221,-3.0793,8.2768,0.012217,-0.014355,-0.007025
-0.77777,0.98067,-3.4519,7.8453,0.066279,0.040928,0.0048869
-0.39603,1.3533,-3.3146,8.0022,0.066279,0.067806,0.051618
-0.049957,0.90221,-3.0008,8.4926,0.024435,0.07025,0.062919
0.23325,0.80415,-2.8439,8.5514,-0.031154,0.049786,0.052229
0.45831,0.90221,-2.942,8.316,-0.062308,0.027794,0.049175
0.64807,0.92183,-3.0793,8.218,-0.055283,0.015272,0.037874
0.79889,1.1376,-2.8832,8.0022,-0.028405,0.023213,0.027489
0.92911,0.90221,-3.0793,8.3749,0.015882,0.060476,0.02474
1,0.82376,-3.4127,8.5318,0.067806,0.10232,0.033292
1,0.70608,-2.7459,8.5514,0.0015272,0.20097,-0.023824
1,0.60801,-2.6086,9.179,0.012523,0.18112,-0.030543
1,0.98067,-3.0989,9.3752,0.009163,0.1744,-0.074831
1,0.8826,-3.7658,9.1202,-0.025656,0.17623,-0.067806
1,0.72569,-4.0403,8.8064,-0.069333,0.15638,-0.0562
1,0.49033,-3.6285,8.8064,-0.072998,0.10568,-0.034819
1,0.5884,-2.8832,8.9437,0.095295,0.042455,-0.014966
1,0.80415,-3.0008,8.6495,0.019853,-0.0076358,-0.013744
1,1.3533,-3.5696,7.8649,0.054367,-0.028405,0.01741
1,1.7456,-4.2561,7.3746,0.040623,-0.025045,0.0088575
1,1.8044,-4.0207,7.3354,-0.0033598,-0.0079412,-0.025045
1,1.7456,-3.295,7.4923,-0.05284,0.022297,-0.014966
1,1.5298,-2.8439,7.9238,-0.10446,0.051618,-0.011301
1,1.3729,-2.6086,8.7083,-0.14294,0.052229,0.0042761
1,1.1768,-2.7655,8.8064,-0.030849,0.026878,0.022602
0.92932,0.90221,-2.8243,8.8456,0.023824,-0.011606,0.023213
0.73141,1.118,-3.1185,8.7475,-0.084605,-0.044899,-0.042761
0.5563,0.90221,-3.2362,8.8848,-0.0012217,-0.057116,-0.041539
0.43045,0.74531,-3.3931,9.179,0.067195,-0.039401,-0.010996
0.34531,0.90221,-3.6285,8.7868,0.085827,0,-0.030543
0.30783,1.0591,-3.4127,8.3945,0.055894,0.046426,-0.039706
0.27621,1.2945,-3.1381,7.9434,0.011301,0.083994,-0.03879
0.24036,1.0395,-2.7851,7.7473,-0.1628,0.098655,-0.038179
0.21664,0.90221,-3.0989,8.2768,-0.14447,0.093157,-0.040317
0.2334,1.0199,-3.6873,8.5906,-0.018021,-0.090713,-0.11057
0.27954,1.3925,-4.0796,8.218,0.14203,0.010079,-0.090103
0.36481,1.5495,-3.8246,8.1787,0.2474,0.087354,-0.043982
0.43423,1.2945,-3.3735,7.9434,0.32193,0.15211,-0.080634
0.47861,1.0395,-3.4127,8.0611,0.36072,0.20281,-0.11209
0.49606,0.90221,-3.5696,8.218,0.34606,0.22999,-0.12248
0.50235,0.72569,-3.7069,8.5906,0.28802,0.2306,-0.11729
0.48697,0.80415,-3.8246,8.8064,0.20097,0.21808,-0.11545
0.47714,0.90221,-3.4127,8.7279,-0.12156,-0.27153,-0.11484
0.45416,0.98067,-3.3931,8.4337,0.10721,-0.17685,-0.14019
0.40533,0.76492,-2.8243,8.6299,0.19334,-0.10873,-0.19792
0.35034,0.90221,-3.2362,8.4926,0.16829,-0.054978,-0.16677
0.32132,1.118,-3.6088,8.4337,0.078802,-0.029322,-0.086437
0.30362,1.118,-3.5304,8.316,-0.010996,-0.053451,-0.038179
0.28683,0.90221,-3.0793,8.2572,-0.090713,-0.084605,-0.053145
0.27933,0.82376,-2.8832,8.3357,-0.15363,-0.11362,-0.083689
0.26804,0.90221,-3.3735,8.2768,-0.19334,-0.1295,0.025656
0.25208,0.86299,-3.2362,8.4141,-0.20769,-0.12798,0.031154
0.2551,0.90221,-3.5304,8.4926,-0.20892,-0.1182,-0.14019
0.26059,1.216,-3.2362,8.2768,-0.21961,-0.1066,-0.11179
0.25647,0.92183,-3.0989,8.0807,-0.20556,-0.11423,-0.079412
0.23917,1.3925,-3.6677,7.8453,-0.14203,-0.12828,-0.052534
0.16388,1.2749,-4.3345,8.8652,-0.040317,-0.12798,-0.012523
0.039368,1.4514,-4.0796,9.3555,0.075747,-0.10476,0.019853
-0.21152,0.2942,-2.589,11.14,0.15913,-0.048564,0.072388
-0.52051,0.49033,-3.5304,7.8649,0.19212,0.030543,0.02474
-0.71857,0.86299,-4.3149,7.3158,0.18784,0.11545,0.050091
-0.70767,1.0395,-3.9423,7.6884,0.17226,0.1854,0.064446
-0.53055,0.35304,-3.0793,7.6884,0.13378,0.22327,0.069333
-0.255,0.41188,-2.5301,7.7473,0.051007,0.21594,0.073304
0.02063,0.2942,-2.9028,8.1003,-0.089492,0.1686,0.086132
0.27145,0.66685,-3.2362,8.4337,-0.24862,0.092852,0.096517
0.50613,0.92183,-3.5108,8.5514,0.28405,0.14111,-0.14019
0.71973,1.1768,-3.4716,8.6299,0.56322,0.18387,-0.17898
0.86362,1.3729,-3.8638,8.316,0.77641,0.24801,0.17562
0.92249,1.7456,-3.6677,8.0611,0.61361,0.28619,0.20128
0.86295,1.6083,-3.0008,7.5511,-0.036346,0.13042,0.23091
0.72491,1.118,-2.687,7.61,-0.76175,-0.16554,0.22297
0.56506,0.5884,-2.9028,8.2572,-1.0507,-0.35797,0.10629
0.43314,1.0395,-3.7658,8.9437,-0.83689,-0.36774,-0.057116
0.33255,1.3925,-4.7072,8.5514,0.16799,0.14447,-0.13806
0.28342,1.6475,-4.4914,8.3945,0.087354,0.14875,-0.13775
0.26306,1.1768,-3.6873,8.7083,0.024435,0.12828,-0.10873
0.22162,1.0591,-3.3735,8.8456,0.021686,0.089186,-0.10996
0.16467,1.1768,-3.7265,8.5318,0.076664,0.058032,-0.10171
0.095917,1.5298,-3.9423,8.1199,0.15333,0.048564,-0.11698
0.03302,1.4906,-3.6285,8.2376,0.26359,0.054672,-0.13714
-0.045288,1.2356,-3.3146,8.3749,0.23366,0.07025,-0.13683
-0.13385,1.118,-3.3146,8.0611,0.19151,0.091019,-0.0064141
-0.25607,1.3533,-3.55,7.9238,0.12981,0.097128,0.010996
-0.38779,1.0395,-2.9028,8.2376,0.051313,0.079718,-0.12798
-0.53326,0.45111,-2.7851,8.5514,-0.032376,0.054672,-0.11148
-0.67676,0.98067,-3.3539,8.4926,-0.11179,0.036652,-0.086132
-0.75671,1.1964,-3.9227,8.2376,-0.14447,0.025045,-0.055589
-0.80566,1.1768,-3.7658,8.1003,0.21441,0.025656,-0.022907
-0.82935,1.1376,-3.3539,8.3749,0.2248,0.057727,-0.0064141
-0.85742,1.1964,-3.0793,8.5318,-0.20464,-0.051924,-0.013439
-0.88007,1.216,-3.0008,8.5318,-0.14997,-0.036957,-0.013439
-0.89337,1.3533,-3.4127,8.1787,-0.022907,-0.0058032,-0.049175
-0.88318,1.4318,-3.7069,8.1787,0.12034,0.037568,-0.045204
-0.85028,1.5298,-3.7658,8.3749,0.22724,0.074526,-0.036652
-0.80917,1.5298,-3.3735,8.5318,0.26145,0.087354,-0.024129
-0.76517,1.2749,-2.9028,8.5514,0.22083,0.078496,-0.016799
-0.73883,1.0395,-3.0008,8.3945,0.13164,0.059559,-0.014966
-0.72543,1.3337,-3.3735,8.2572,-0.13378,0.033598,-0.10354
-0.71979,1.2945,-3.7265,8.4926,-0.1237,0.0085521,-0.10537
-0.71829,1.0787,-3.4127,8.5318,-0.059559,-0.0012217,-0.025351
-0.70279,0.8826,-2.7459,8.7279,0.037874,0.0094684,-0.040623
-0.70041,1.118,-2.432,8.6299,0.14355,0.035125,-0.05284
-0.69379,1.0787,-2.7851,8.2572,0.22969,0.069028,-0.065973
-0.70047,1.2356,-2.687,7.9434,0.019548,0.10446,-0.079412
-0.72321,0.49033,-3.8638,8.0022,-0.080023,0.13073,-0.093768
-0.71732,-0.27459,-4.668,9.8066,0.10965,-0.096517,0.066279
-0.6871,0.41188,-4.1776,10.611,0.096211,-0.093462,0.050396
-0.69406,0.90221,-2.7459,8.6299,0.10263,-0.078191,0.14142
-0.77966,0.41188,-2.2948,7.3158,0.10201,-0.067501,0.14875
-0.92322,0.56879,-2.6282,7.4727,0.11301,-0.069944,0.14875
-0.99997,1.1964,-2.6282,7.4727,0.14386,-0.072693,0.12584
-0.99997,1.118,-2.432,7.9238,0.15485,-0.04948,0.10446
-0.99997,1.118,-2.1575,7.7865,0.17654,0.029932,0.084605
-0.99997,1.216,-2.6086,7.7865,0.017715,0.25045,0.20678
-0.99997,1.3337,-3.4519,7.4923,-0.04215,0.21136,0.18326
-0.99997,1.5298,-3.7265,7.9434,-0.16035,0.14508,0.18418
-0.99997,1.3337,-3.0793,8.5514,-0.26909,0.091935,0.19028
-0.87115,0.98067,-2.7851,9.1202,-0.33995,0.066279,0.17287
-0.69327,1.0591,-3.197,9.0025,-0.3598,0.053756,0.16738
-0.54681,1.2356,-3.6285,8.8064,-0.26634,0.067806,0.17623
-0.41248,1.3533,-4.1776,8.8652,-0.10354,0.082772,0.19028
-0.28061,1.1376,-4.4914,9.2183,0.037568,0.10232,-0.11454
-0.17673,0.74531,-4.0207,10.12,0.17104,0.11087,-0.11148
-0.16086,0.49033,-3.0793,10.375,0.2755,0.078802,0.13683
-0.19528,1.3925,-2.7459,9.6301,0.3317,0.03543,0.12065
-0.27811,1.7064,-2.3732,8.2768,0.28802,-0.063835,0.087048
-0.34476,1.5298,-2.2555,7.61,0.16768,-0.18601,0.0094684
-0.4043,1.1964,-2.7459,8.0807,0.020159,-0.27855,-0.031154
-0.41248,1.118,-3.0793,8.1199,-0.093462,-0.3207,-0.067195
-0.37769,1.0395,-3.4127,8.2376,-0.18082,-0.32009,0.17226
-0.28265,0.98067,-3.6873,8.2572,-0.18143,-0.28619,0.15699
-0.14539,0.92183,-3.55,8.4141,-0.14539,-0.23182,-0.068722
-0.010773,0.76492,-3.5108,8.2572,-0.087659,-0.20097,-0.02138
0.12589,1.1768,-3.3931,7.6884,0.014966,-0.19914,0.026878
0.24805,0.92183,-3.8638,6.1782,0.15699,-0.1686,0.076664
0.38242,-0.05884,-4.668,8.6299,0.21014,-0.11942,0.10171
0.49255,0.27459,-4.0992,11.003,0.1686,-0.09499,0.1408
0.57437,1.4906,-2.6282,10.199,-0.19517,0.030849,0.10599
0.58914,1.5102,-1.5691,7.9434,-0.010079,0.036041,0.097433
0.53299,0.92183,-1.3533,7.1589,-0.062614,0.033598,0.068417
0.41534,1.0395,-2.6282,6.8058,-0.1518,0.033292,0.079718
0.2991,1.9809,-3.6873,7.3746,-0.22663,0.041844,0.084605
0.25128,1.7456,-3.7658,8.5514,-0.25045,0.055894,0.085521
0.25214,1.5102,-3.4519,9.4928,-0.23488,0.060476,0.085521
0.26251,1.824,-3.295,8.8848,-0.21533,0.04948,0.09499
0.1683,1.7064,-2.9224,7.1392,0.34575,0.022602,-0.10476
-0.033661,1.4318,-1.9613,7.4727,-0.0085521,-0.091019,-0.039706
-0.39862,-2.4909,-1.8829,11.552,-0.29108,-0.17807,-0.12981
-0.77136,-0.70608,-5.5113,8.4141,-0.46884,-0.22694,-0.17623
-0.95822,2.0594,-5.9821,7.7473,-0.55436,-0.23732,-0.21075
-0.91595,0.74531,-4.158,8.4926,-0.56444,-0.22419,-0.20953
-0.73279,0.70608,-1.8829,9.3359,-0.50274,-0.19242,-0.1912
-0.49606,0.49033,-1.5887,9.0025,-0.38515,-0.14508,-0.15669
-0.23068,0.90221,-2.2948,8.4141,0.022602,-0.096822,0.013439
0.043304,1.1964,-2.9028,8.2572,0.051924,-0.052229,0.044899
0.30365,1.2945,-3.5304,8.2572,0.014966,-0.019548,0.014661
0.52823,1.1964,-3.5108,8.2376,-0.027184,-0.0036652,0.03543
0.66409,1.2749,-3.3539,8.5514,-0.030849,-0.0027489,0.025351
0.70425,1.4906,-2.9812,8.3945,-0.015882,0.019853,0.0094684
0.61734,1.4318,-2.7851,7.7473,-0.23305,0.065057,0.0012217
0.50235,1.1964,-2.9224,7.8649,-0.083383,0.10018,-0.0030543
0.39325,1.3533,-3.0989,8.8652,-0.22755,0.10873,0.047647
0.27667,1.3729,-3.6285,8.8848,-0.27581,0.079718,0.053145
0.19711,1.4906,-3.9815,8.4141,-0.24496,0.027184,0.054672
0.13474,1.4906,-3.6677,8.2768,-0.15944,-0.018631,0.050091
0.082428,1.4514,-3.1577,8.3749,-0.069333,-0.036041,0.047647
0.035797,1.3533,-2.8832,8.0807,-0.014355,-0.023213,0.050702
-0.020721,1.0395,-3.0401,7.7669,-0.040928,0.00030543,0.055283
-0.062897,0.80415,-3.2362,8.0807,-0.12798,0.018021,0.053451
-0.087616,1.0395,-3.8638,8.4141,-0.014966,-0.1011,-0.084605
-0.05899,0.90221,-4.3345,8.7475,-0.066584,-0.094684,-0.039401
-0.0068359,1.1768,-3.6285,8.5514,-0.12706,-0.088575,-0.20831
0.063965,1.2356,-3.5304,8.4926,-0.15394,-0.07086,-0.18906
0.12338,1.216,-3.9815,8.1787,-0.13103,-0.033292,-0.1689
0.19696,1.0395,-4.0796,8.5514,-0.076664,0.035125,-0.15394
0.28024,1.2945,-3.8442,8.8848,-0.0012217,0.11179,-0.13928
0.34991,1.0395,-3.6873,8.8652,0.09896,0.1631,-0.11606
0.41922,0.98067,-3.8442,8.6887,0.24435,0.19731,0.10568
0.50095,0.98067,-4.0796,8.316,0.24374,0.21472,0.10873
0.58762,1.118,-4.4718,8.1003,0.18173,0.2025,0.010996
0.67361,1.2356,-4.4914,7.8453,0.082161,0.16677,0.047647
0.75601,1.3533,-3.8638,7.9434,-0.019242,0.12523,0.067195
0.82831,1.216,-3.2558,7.9434,-0.094684,0.090103,0.079107
0.8634,1.6083,-3.0597,7.8453,-0.13073,0.071166,0.091935
0.87952,1.7064,-3.3539,7.6884,-0.12737,0.06689,0.10263
0.86868,1.9221,-3.5304,7.3942,-0.08094,0.073304,0.18784
0.81818,1.4318,-3.3539,7.1785,0.0009163,0.087354,0.18692
0.74731,1.2945,-3.0793,7.8649,0.096517,0.10415,0.11454
0.64365,1.0395,-3.0008,8.4141,0.16616,0.1237,0.12798
0.55106,1.3533,-3.197,8.5318,0.17868,0.13531,0.13806
0.47433,1.2945,-3.5696,8.0611,0.13531,0.12156,0.14478
0.40158,1.3533,-3.8638,7.7669,0.066279,0.086132,0.16249
0.328,1.4318,-4.0207,7.8649,-0.00061087,0.043677,0.18112
0.24594,1.4906,-3.55,8.2572,-0.040317,0.0094684,0.089186
0.17566,1.118,-3.5108,8.7083,-0.03879,-0.021075,0.087659
0.092865,1.2749,-3.6677,8.5906,0.0094684,-0.045204,0.18204
0.010956,1.1964,-4.1384,8.4141,0.09896,-0.039706,0.16616
-0.060944,1.3533,-4.3345,8.0611,0.18692,-0.0058032,0.13531
-0.11768,1.4318,-4.2953,8.0022,0.2364,0.029016,0.11515
-0.16229,1.3533,-3.9423,8.0611,0.24465,0.060781,0.10873
-0.21475,1.0591,-3.6285,8.2572,0.23243,0.079412,0.098349
-0.2663,0.76492,-3.5304,8.6495,-0.0012217,-0.0076358,0.083994
-0.28925,1.0787,-3.8834,8.4337,-0.027489,0.0018326,0.07422
-0.32068,1.2945,-3.7854,8.1787,-0.057727,0.00061087,0.053756
-0.35059,0.92183,-3.3931,8.1003,-0.055894,-0.0061087,0.068722
-0.38129,1.118,-3.3931,7.9042,-0.048869,-0.015577,0.077885
-0.41058,0.98067,-3.4519,7.963,-0.06353,-0.015577,0.080329
-0.43604,1.1964,-3.6873,8.0807,-0.033903,-0.0061087,0.080634
-0.46594,0.92183,-3.2558,8.1199,-0.0048869,-0.0048869,0.086743
-0.48804,1.1964,-3.1381,7.8453,0.00030543,-0.014661,-0.02138
-0.5058,1.1768,-3.4127,7.7865,0.025656,-0.014966,-0.024435
-0.50592,1.1964,-3.8638,8.3749,0.047647,-0.0015272,0.066279
-0.49295,1.0395,-4.2953,8.4729,0.045204,0.0061087,0.04948
-0.46274,0.90221,-4.0207,8.5318,-0.0082467,0.017715,0.010996
-0.43958,0.90221,-3.3146,8.4337,-0.082772,0.017715,-0.02474
-0.38077,0.72569,-2.9028,8.4141,-0.072082,-0.0027489,-0.027184
-0.33984,0.56879,-3.0989,8.7083,-0.043677,-0.039401,-0.01741
-0.24774,0.70608,-3.1381,8.7868,-0.10263,-0.072693,-0.063835
-0.13443,0.92183,-3.0793,8.5514,-0.069333,-0.082467,-0.066584
-0.0045471,0.98067,-3.0008,8.4926,-0.049786,-0.07086,-0.029627
0.08374,1.0395,-3.0008,8.316,-0.052534,-0.051007,-0.040012
0.12802,1.1376,-3.0793,8.5906,-0.07025,-0.03146,-0.046731
0.12247,1.0787,-3.5108,8.1787,-0.10324,-0.017104,-0.051313
0.066528,1.0395,-3.9815,8.1591,-0.13134,-0.012217,-0.054367
0.031403,1.2356,-3.8638,8.4141,-0.13195,-0.015882,-0.059559
-0.01297,1.118,-3.55,8.4926,0.11973,0.067806,0.016188
-0.057373,1.1768,-3.6285,8.2572,0.13439,0.083689,0.029322
-0.093842,1.0591,-3.8638,8.0611,0.1011,0.091324,0.021075
-0.1116,1.2749,-3.8442,8.0022,0.036346,0.082161,0.029627
-0.12469,0.90221,-3.6677,8.1199,-0.047037,0.054978,0.037874
-0.13559,1.0395,-3.5304,8.2376,-0.10507,0.014661,0.050702
-0.13443,0.92183,-3.2362,8.0807,-0.11362,-0.022602,0.051618
-0.11664,0.92183,-3.3539,8.1199,-0.079718,-0.025962,0.03207
-0.089478,1.118,-3.1381,8.2572,0.0015272,-0.037263,-0.25809
-0.023529,0.74531,-3.4716,8.5318,-0.073304,-0.072082,-0.21808
0.087036,0.74531,-3.2362,8.4926,-0.0012217,-0.10721,-0.29413
0.2128,0.98067,-3.2362,8.9044,0.12584,-0.1182,-0.21716
0.33978,0.90221,-3.6285,8.6495,0.28802,-0.1014,-0.19853
0.47824,0.76492,-5.8644,7.2373,0.56413,-0.012217,-0.26145
0.62497,2.1378,-7.9238,6.0409,0.85399,0.14111,-0.354
0.78711,2.7459,-7.2765,5.7075,1.0336,0.30146,-0.32712
0.9046,1.5298,-5.8252,5.9624,1.0385,0.42058,-0.091324
0.98911,1.1964,-5.0798,6.0409,0.85796,0.46609,-0.050396
1,1.4318,-5.4525,6.5312,0.54947,0.43921,-0.18754
1,1.4906,-5.4525,6.5901,0.2193,0.34331,-0.16524
1,1.2945,-4.5699,6.8058,-0.032987,0.21105,-0.14752
1,1.2749,-4.0992,7.0804,-0.15363,0.088881,-0.13775
1,1.216,-4.2561,7.7865,-0.16707,0.012828,-0.13256
0.99368,1.118,-4.3934,9.1006,-0.12126,-0.0061087,-0.1179
0.80151,0.82376,-4.413,6.5312,0.95753,0.1854,0.15974
0.50586,0.35304,-5.6682,8.5514,1.1374,0.24312,0.22816
0.21353,1.2945,-5.7467,9.3555,1.2547,0.2981,-0.1066
-0.064697,2.1771,-4.3345,8.7279,1.3069,0.3259,-0.056505
-0.29602,1.9613,-2.7655,7.2373,1.3143,0.32834,-0.0094684
-0.51144,0.98067,-3.5108,6.6489,1.3131,0.31551,0.0281
-0.68347,2.1771,-4.5111,6.1193,1.3384,0.31582,0.069639
-0.78348,2.3732,-4.7072,6.7077,1.3616,0.3262,0.1127
-0.77725,1.5102,-3.7265,7.8649,1.2996,0.29719,-0.29932
-0.72903,1.1376,-2.7655,8.9044,1.1206,0.20495,-0.32529
-0.64346,0.49033,-2.7459,9.1202,0.978,0.17685,0.29749
-0.56061,0.86299,-3.6873,8.5514,0.87354,0.18509,0.32681
-0.46671,0.96105,-3.8638,8.218,0.6298,0.069028,0.25931
-0.40527,0.8826,-3.6285,7.9434,0.50916,0.0058032,0.065057
-0.38739,0.56879,-3.4127,7.7473,0.46456,-0.01069,-0.16402
-0.41312,0.43149,-3.8246,8.1787,0.33109,-0.022602,-0.27428
-0.46979,0.74531,-4.2953,8.7475,-0.43097,0.27428,-0.060781
-0.50516,1.2356,-4.2365,8.8652,-0.55803,0.034819,-0.073915
-0.5282,1.4318,-3.8834,8.7475,-0.45173,-0.23182,0.17318
-0.54523,1.4906,-3.55,8.4337,-0.17776,-0.4047,0.067501
-0.59003,1.4318,-3.2362,8.4926,0.01405,-0.42302,-0.076358
-0.66791,1.1964,-3.2362,8.3945,-0.052229,-0.32193,-0.20708
-0.75824,1.6083,-3.1381,8.2572,0.26023,-0.21075,-0.20647
-0.85071,1.6475,-3.1577,8.1787,-0.13622,-0.21961,-0.091935
-0.93872,1.6083,-3.3931,7.5903,-0.32009,-0.26176,0.035125
-0.99905,1.5887,-3.5696,7.4727,-0.23702,-0.27092,0.040623
-0.99997,1.6671,-3.7658,7.7669,-0.21961,-0.24862,-0.030543
-0.99997,1.5298,-3.7658,7.9434,-0.2532,-0.21014,-0.018631
-0.99997,1.3925,-3.5696,8.2572,-0.30635,-0.197,-0.011912
-0.99997,1.1964,-4.0796,8.1787,-0.35247,-0.18234,-0.015577
-0.99811,1.3533,-4.413,7.8649,-0.21044,-0.1854,-0.030543
-0.94772,1.0395,-4.1972,7.61,-0.31979,-0.19609,0.0024435
-0.86566,0.72569,-3.8246,8.0022,0.011912,0.09499,-0.070555
-0.74326,1.0591,-3.8246,8.316,0.086132,0.14478,-0.03879
-0.60367,1.0395,-3.5304,9.3163,0.15577,0.18876,-0.045204
-0.46786,1.1376,-3.2362,9.5713,0.20128,0.20495,-0.061392
-0.3382,2.1575,-3.2362,8.4926,0.20678,0.18601,-0.06689
-0.27731,2.0594,-2.9224,7.0608,0.19273,0.14691,-0.073304
-0.35501,0.80415,-2.589,6.6685,0.19609,0.11545,-0.083689
-0.53452,-1.4318,-3.6873,10.375,0.20647,0.089797,-0.086743
-0.74188,-0.45111,-4.8837,11.003,0.14142,0.049786,0.25595
-0.94003,1.5298,-4.0796,8.0022,0.092852,0.0058032,0.25962
-0.99997,0.43149,-3.0008,7.4334,0.018326,-0.019242,-0.0079412
-0.99997,0.49033,-2.0594,7.1785,0.035736,0.0018326,0.015882
-0.99997,0.49033,-2.8439,7.2373,0.20189,0.050702,0.060476
-0.99997,0.5884,-3.6285,8.1787,0.41569,0.10965,0.10721
-0.99997,1.118,-3.5304,8.4337,0.19884,0.18845,0.1408
-0.99997,1.1964,-3.5304,8.316,0.16707,0.3204,0.19914
-0.93295,1.5298,-3.4127,8.1787,0.13011,0.16768,0.11668
-0.68137,1.5298,-3.4716,7.9238,0.097738,0.18234,0.13622
-0.44775,1.9221,-3.55,7.7865,0.062614,0.15547,0.0042761
-0.26566,1.824,-3.6285,7.61,0.081551,0.12523,0.015882
-0.16031,1.8044,-3.8834,7.7473,0.14508,0.12828,0.023824
-0.074524,1.6475,-3.6873,8.2572,0.19914,0.15608,0.037568
0.008606,1.6083,-3.6873,8.6495,0.20159,0.17196,0.065057
0.076019,1.7456,-3.9815,8.4926,0.13775,0.16646,0.094073
0.14111,1.6475,-4.0796,8.1199,0.091935,-0.044288,-0.062308
0.21002,1.5102,-4.2561,8.2572,0.099876,-0.05284,-0.064446
0.2583,1.4318,-4.3934,8.4926,0.092852,-0.04948,-0.04948
0.29752,1.1964,-4.1384,8.5514,0.047037,-0.0562,-0.054978
0.34454,1.3533,-4.0207,8.3945,-0.038485,-0.080634,-0.049786
0.38116,1.2749,-3.8638,8.2376,-0.14447,-0.11087,-0.047342
0.42453,1.3533,-3.8442,8.2572,-0.24709,-0.14019,-0.046426
0.44333,1.2356,-3.7265,8.4337,-0.32315,-0.16677,-0.053756
0.46732,1.118,-3.7265,8.2572,-0.36194,-0.17593,-0.042761
0.47821,1.5102,-3.8638,7.7865,-0.35613,-0.16677,-0.039706
0.49152,1.6671,-3.8638,7.7669,-0.35613,-0.14997,-0.06689
0.4967,1.9613,-3.7854,7.9042,-0.36866,-0.12859,-0.071471
0.51755,1.824,-3.6285,7.9238,-0.39737,-0.11057,-0.06353
0.54736,2.0594,-3.6873,7.8649,-0.44379,-0.10201,-0.0562
0.57739,2.0202,-3.7658,7.5903,-0.49297,-0.1066,-0.052229
0.61423,1.9221,-3.8834,7.3354,-0.53329,-0.11087,-0.046731
0.67297,1.8633,-4.2561,7.3158,-0.54886,-0.10171,-0.025962
0.73853,1.8044,-4.6484,7.1589,-0.53359,-0.086132,-0.011301
0.80682,1.6867,-4.1972,7.6492,-0.49388,-0.07086,-0.03543
0.88193,1.4318,-3.9423,8.0218,-0.43616,-0.046731,-0.024129
0.93503,1.9221,-3.8442,7.7865,-0.36469,-0.022907,-0.020464
0.98297,1.6867,-3.6873,7.8453,-0.23732,-0.0045815,-0.024435
1,1.5887,-3.7069,8.1591,-0.062614,0.027489,-0.030543
1,1.5298,-4.0796,7.4531,0.082772,0.09896,-0.032987
1,1.5298,-4.2365,7.2961,0.067195,0.032681,-0.058338
1,1.3533,-4.2561,7.9238,0.074526,0.067806,-0.081551
1,1.0199,-4.4718,8.9437,0.0281,0.065363,-0.17074
0.9537,1.3925,-4.3345,7.4531,-0.018631,0.024129,-0.12737
0.70959,-0.90221,-1.9809,12.886,0.013134,-0.015577,-0.077274
0.26428,-2.7459,-3.8442,9.5909,0.11668,-0.010385,-0.021991
-0.14795,0.54917,-6.7666,7.3354,0.23702,0.038485,0
-0.31665,2.1575,-5.8644,6.6097,0.31521,0.10751,-0.024129
-0.27368,0.98067,-3.5108,7.2373,0.35094,0.18418,-0.015272
-0.12637,0.8826,-1.6279,7.7473,0.37049,0.23793,-0.0082467
-0.015717,0.50995,-2.4713,7.5511,0.37813,0.27184,-0.083078
0.055298,1.3729,-3.3931,7.6884,0.34636,0.29322,-0.055589
0.1207,1.3533,-3.6285,8.1787,0.281,0.29566,-0.028405
0.14761,1.0199,-3.7658,8.9437,0.22571,0.27947,-0.02474
0.14304,1.0787,-4.1972,8.0807,0.20006,0.26176,-0.027794
0.10089,1.8044,-3.9423,7.61,0.17959,0.25107,-0.025045
0.0038452,1.8044,-3.3146,7.3354,0.13164,0.24679,-0.18601
-0.13589,1.216,-3.2362,7.4531,0.25137,0.24618,-0.20586
-0.27472,0.98067,-3.1381,8.3749,0.45571,0.22022,-0.007025
-0.38696,1.1768,-3.3146,8.8652,0.63469,0.23549,-0.0058032
-0.47647,1.3533,-3.5304,9.179,0.67317,0.2926,-0.029322
-0.51904,1.6083,-3.9423,8.5514,0.55986,0.26389,-0.054978
-0.53461,1.5887,-3.7265,8.1787,0.13134,0.17349,-0.085827
-0.49612,0.76492,-3.8246,9.7282,0.09896,0.069333,-0.13164
-0.49133,1.4906,-3.0793,10.689,-0.027489,-0.03879,-0.16829
-0.51456,1.2945,-2.3144,9.9636,-0.18021,-0.13867,-0.16218
-0.58478,1.6083,-2.2751,8.8064,-0.26909,-0.21075,-0.20525
-0.71365,1.824,-2.2163,7.7473,-0.30207,-0.22113,-0.22816
-0.88477,1.4318,-3.2166,7.2961,-0.20892,-0.17196,-0.25015
-0.9967,1.8044,-3.3931,7.0608,0.013439,-0.13408,-0.23549
-0.99997,1.0787,-2.6086,7.6884,0.37904,-0.088575,-0.20159
-0.99997,0.27459,-2.2751,8.4729,0.17043,0.011606,-0.18754
-0.99997,0.74531,-3.0597,8.8456,-0.64752,-0.28161,-0.031765
-0.99997,-0.17652,-3.9227,9.3555,-0.62339,-0.28924,0.0018326
-0.99997,-0.66685,-3.3735,8.1003,-0.48289,-0.22388,-0.082161
-0.99997,-1.9025,-3.7658,10.474,-0.31429,-0.15363,-0.1014
-0.99997,0.35304,-4.3345,9.8459,-0.146,-0.11179,-0.098349
-0.99997,0.17652,-4.0207,7.6296,0.0067195,-0.078191,-0.061392
-0.99997,0.27459,-2.432,7.2373,0.14997,-0.019242,-0.033292
-0.99997,0.56879,-1.6475,8.0807,0.26786,0.055283,-0.046731
-0.99997,1.1964,-1.824,8.4926,0.2587,0.12004,0.08094
-0.99997,2.0202,-1.3533,7.9042,0.19761,0.1686,0.068111
-0.99997,2.432,-1.9417,7.5511,0.18692,0.19364,-0.010079
-0.99997,1.9025,-3.2558,9.1594,0.24435,0.22571,-0.033903
-0.99997,1.2945,-3.2166,10.787,0.3317,0.28314,-0.03879
-0.96506,1.6083,-3.0401,10.317,0.39615,0.35919,-0.021991
-0.78165,1.824,-2.6086,9.2575,0.37293,0.41356,0.010385
-0.59149,2.079,-3.4519,7.9434,0.24801,0.40256,0.052229
-0.42407,2.2948,-3.2362,7.9238,0.11912,0.35827,-0.055589
-0.27014,1.6671,-3.6873,8.3945,0.0562,0.33323,-0.14386
-0.12894,2.2751,-3.3735,8.2572,0.13897,0.30177,0.051313
0.0090027,2.1378,-2.7459,7.61,0.41325,0.23579,0.072693
0.08606,1.824,-2.6282,7.4727,0.65912,0.18754,0.062614
0.084656,1.3533,-2.7262,7.4923,0.63897,0.099876,-0.013134
0.034363,0.90221,-2.1182,7.9238,0.36469,-0.033903,-0.05284
-0.035553,0.60801,-2.5105,8.7279,-0.13225,-0.25045,-0.029322
-0.098877,0.90221,-3.3146,9.2771,0.45693,-0.51801,-0.15119
-0.12378,-0.27459,-4.8053,8.8652,-0.40164,-0.7086,-0.084299
-0.015717,-0.39227,-5.6682,12.298,-0.8152,-0.73884,-0.24465
0.16254,0.23536,-3.0597,12.984,-0.9389,-0.63438,-0.30329
0.29706,0.74531,-2.0006,10.12,-0.76541,-0.47159,-0.33475
0.35269,1.7064,-2.6086,6.845,-0.40348,-0.29199,-0.32132
0.28381,1.824,-2.8243,5.5702,0.019242,-0.11301,-0.2697
0.15268,1.6475,-2.432,6.4528,0.33475,0.03146,-0.20983
0.015015,1.9613,-1.6475,7.4923,-0.56505,-0.28039,0.26023
-0.10449,1.5102,-1.6475,7.6884,-0.73884,-0.35888,0.25656
-0.20477,1.7652,-2.0398,7.3746,-0.7871,-0.36621,-0.041844
-0.29816,1.4906,-2.7851,7.3158,-0.72968,-0.29841,-0.023213
-0.36688,1.0395,-3.2362,7.7473,-0.68173,-0.21197,0.028711
-0.45172,0.90221,-3.0793,9.1594,-0.6805,-0.19487,0.10568
-0.59537,0.098066,-3.0008,9.7478,-0.62094,-0.22694,0.18479
-0.81366,-1.6867,-3.2362,11.238,-0.40042,-0.22877,0.23915
-0.98724,-1.216,-4.0403,12.964,0.41783,-0.16035,0.26542
-0.99997,1.2945,-4.0011,9.9636,0.4047,-0.084299,0.11087
-0.99997,0.74531,-2.7851,7.4727,0.29413,-0.041539,0.30421
-0.99997,0.098066,-1.3141,7.0608,0.15058,-0.040623,0.39676
-0.99997,0.45111,-1.5102,7.4727,0.02138,-0.035125,0.44929
-0.99997,1.1768,-2.2751,7.8649,0.057421,0.033903,0.46976
-0.99997,1.3533,-2.9028,8.4141,-0.059559,0.1124,0.47525
-0.99997,1.1964,-2.2751,10.199,0.26267,0.17287,0.41233
-0.99997,0.72569,-1.2553,10.827,1.0956,0.18295,-0.07086
-0.867,1.0591,-1.2553,10.12,0.95661,0.21777,-0.12553
-0.63864,1.4906,-1.6475,9.179,0.5284,0.23793,0.031765
-0.43051,2.3928,-2.2555,8.2572,0.032681,0.13073,0.065973
-0.20563,2.5497,-2.2751,8.0022,-0.42852,-0.0562,0.039095
0.01532,1.7064,-2.8243,8.0611,-0.80909,-0.22999,0.01069
0.28436,1.5298,-3.4127,8.0807,0.32406,-0.33567,0.041844
0.57889,1.5495,-3.0008,8.7475,0.78527,-0.3766,0.012217
0.8356,1.3533,-2.0986,8.6299,0.15852,0.035125,-0.018937
0.96661,0.92183,-2.0594,7.1785,0.3882,0.11454,-0.03879
1,0.39227,-4.3345,5.9821,0.61758,0.2022,-0.028711
1,-0.35304,-5.4133,10.415,0.7367,0.26267,0
1,0.72569,-3.7069,13.082,0.62583,0.21105,-0.0058032
1,0.76492,-1.9809,10.944,0.36682,0.087048,-0.022907
1,1.0395,-1.2553,8.5514,0.032681,-0.052229,0.0073304
1,0.92183,-1.8044,6.8058,-0.2981,-0.17532,0.01405
0.96765,1.3533,-4.0207,6.237,0.069028,0.047342,-0.072082
0.92035,2.7851,-4.8837,6.3939,0.089492,0.089492,-0.065057
0.95242,2.4517,-3.0008,7.61,0.06689,0.10934,-0.055589
1,2.1575,-1.5691,8.2376,0.055894,0.092852,-0.048258
1,1.824,-1.1768,7.6492,0.067806,0.076053,-0.051618
0.91766,1.6867,-2.1575,7.0216,0.092852,0.07422,-0.064446
0.61707,-0.90221,-1.3533,12.101,0.12431,0.072998,-0.073915
0.2236,-2.3928,-3.2362,10.513,0.17318,0.069028,-0.073915
-0.10016,0.5884,-5.3348,8.1003,0.20372,0.083078,0.067806
-0.27487,2.0006,-4.7268,7.9238,0.16921,0.10415,0.11179
-0.29974,1.1964,-2.9028,8.5514,0.078802,0.12492,-0.041233
-0.27649,1.0395,-2.1967,8.9633,-0.011912,0.16157,-0.032987
-0.21204,0.98067,-2.9028,9.2771,-0.02474,0.18876,-0.036041
-0.12436,1.6083,-3.3146,8.4926,0.08094,0.19914,-0.023824
0.0084534,1.9025,-3.3735,8.2572,0.28894,0.208,0.011301
0.13464,1.8633,-2.9028,8.1199,0.34208,0.24465,0.044899
0.20163,1.1964,-3.2362,8.2572,-0.15333,-0.039095,-0.13195
0.189,1.216,-2.6086,8.4141,-0.22266,-0.055894,-0.09163
0.11511,1.0591,-2.3732,8.7279,-0.17929,-0.041844,-0.16921
0.035767,1.0395,-2.7655,8.6887,-0.05681,0.0054978,-0.22724
-0.014557,1.0787,-3.3735,8.8064,0.034819,0.075747,-0.23091
-0.048462,1.2945,-3.3539,8.8456,0.029932,0.12401,-0.21289
-0.065887,1.2356,-2.7459,8.316,0.010079,0.13775,-0.208
-0.077057,0.90221,-2.7851,8.1787,0.063835,0.1518,-0.18448
-0.0448,0.96105,-3.0989,8.8652,0.19364,0.18876,-0.089492
0.014587,0.86299,-2.942,9.179,0.30116,0.23763,-0.071471
0.08075,1.0395,-2.687,8.4337,0.31215,0.24496,-0.063835
0.12204,1.3533,-2.432,8.1199,0.23671,0.20922,-0.046731
0.065094,0.92183,-3.1381,8.6299,0.11087,0.15363,-0.051924
-0.11057,0.35304,-3.0989,9.2575,-0.025045,0.098349,-0.0562
-0.33139,-1.1376,-3.0597,11.552,-0.11118,0.052534,-0.07086
-0.56586,0.70608,-3.2166,10.827,-0.09499,0.029932,-0.090103
-0.77948,1.5298,-2.9028,7.3746,0.073915,-0.17013,-0.10751
-0.96194,0.90221,-1.9025,6.4332,0.27061,-0.23854,-0.12187
-0.99997,1.0787,-1.9417,7.0019,0.416,-0.27428,-0.062919
-0.99997,1.2356,-2.4713,7.61,0.46517,-0.29199,-0.085521
-0.99997,0.90221,-2.687,8.6887,0.43463,-0.31521,-0.069944
-0.94504,0.90221,-2.4713,8.9044,0.29077,-0.35705,-0.060781
-0.75079,0.98067,-2.6282,8.4337,-0.30879,-0.37965,-0.072388
-0.51501,0.72569,-2.8243,8.2376,-0.14386,-0.34941,-0.087965
-0.25156,0.27459,-2.5105,8.6887,-0.15974,0.11209,0.12126
0.0061035,0.39227,-2.7459,9.0613,-0.12981,0.12309,0.034514
0.22574,0.64724,-3.0597,8.9633,-0.096517,0.13317,0.069639
0.39767,1.0395,-3.0793,9.3163,-0.062308,0.13256,0.12309
0.47916,1.1964,-2.687,9.2575,-0.041233,0.12126,0.16707
0.43979,1.118,-2.6086,8.8456,-0.086437,0.096211,0.18295
0.30359,0.17652,-2.9224,9.9636,-0.17898,0.014966,0.17837
0.1676,0.039227,-3.6285,10.375,-0.27061,-0.12217,0.16738
0.023224,1.0395,-3.4519,8.2572,-0.34514,-0.24068,0.0036652
-0.12216,0.74531,-2.432,7.3746,-0.343,-0.27703,0.07025
-0.25415,0.72569,-2.0594,8.6887,-0.23854,-0.22999,-0.046731
-0.34344,1.2749,-1.6279,8.0807,-0.084299,-0.15272,-0.067195
-0.38583,1.1964,-1.5102,7.2373,0.043371,-0.092852,-0.053145
-0.4664,0.43149,-2.687,7.61,0.084299,-0.07025,-0.04612
-0.53369,0.098066,-3.3539,9.179,0.047342,-0.055894,-0.038179
-0.56006,-0.05884,-3.6677,9.9832,0.030849,0.0064141,-0.022907
-0.53107,0.33343,-4.3934,9.9439,-0.20342,0.094684,0.11087
-0.42151,1.2945,-4.9622,10.454,-0.17257,0.13744,0.015577
-0.15854,1.1768,-4.0011,10.375,-0.12492,0.15333,0.11209
0.17642,1.3729,-2.7459,9.3359,-0.11301,0.17807,0.15547
0.54739,1.8044,-1.6867,9.0417,-0.18631,0.19639,0.18967
0.88373,1.3533,-1.824,8.5318,-0.28833,0.17471,0.14478
1,1.3533,-2.4713,7.3158,-0.031765,0.091019,0.12034
1,1.4906,-2.8243,6.8647,-0.15944,-0.037874,0.14752
1,1.1964,-2.6674,7.2373,0.032681,0.10446,-0.040623
1,0.74531,-3.0597,8.0807,0.18234,0.092241,-0.054062
1,0.90221,-3.1381,7.8649,0.25473,0.082467,0.1463
1,1.1964,-3.55,7.8453,0.26878,0.019853,0.19334
1,1.1964,-3.7069,7.4727,0.22724,-0.067501,0.19578
1,1.1964,-3.5304,7.6296,0.15119,-0.14539,0.13256
1,0.72569,-2.7851,8.2376,0.077885,-0.15333,0.075136
1,0.74531,-3.0008,9.1202,0.052534,-0.10996,-0.0027489
1,1.0787,-3.3146,8.5514,0.06353,0.11484,-0.0051924
1,1.6083,-3.3931,8.0022,0.095906,0.12462,-0.030543
1,1.2356,-2.8243,8.2572,0.12431,0.13164,0.013744
1,0.92183,-3.0401,8.7083,0.14997,0.14019,-0.0009163
1,1.4318,-3.5108,8.7083,0.15791,0.14508,-0.009163
1,1.2945,-3.6088,8.7475,0.14111,0.13011,-0.009163
1,1.6083,-3.6873,8.5318,0.11118,0.1124,0.0058032
1,1.3533,-3.6285,8.5318,0.11332,0.1127,0.012523
1,1.3533,-3.2166,8.8064,0.26084,0.13225,-0.080329
1,1.1768,-3.1381,8.7083,0.37538,0.16707,-0.067501
1,1.118,-3.6088,8.0022,0.4444,0.19914,-0.047037
0.99319,1.1964,-3.6677,8.316,0.44593,0.21136,-0.057727
0.82242,0.90221,-3.3146,8.7083,0.39645,0.21166,-0.065668
0.58249,0.92183,-2.687,8.3945,0.32437,0.21472,-0.069333
0.30969,0.70608,-2.6086,8.8064,0.25443,0.20311,-0.076358
0.034882,0.80415,-2.7459,8.6299,0.18967,0.17104,-0.086132
-0.20352,0.80415,-2.7459,8.4729,0.13256,0.13744,0.098349
-0.42719,0.80415,-2.4517,8.7083,0.092241,0.11332,0.12706
-0.61572,0.96105,-2.7851,8.9437,0.075136,0.10415,-0.066279
-0.77701,0.82376,-3.0401,9.3359,0.054062,0.10751,-0.05681
-0.93314,0.13729,-3.2362,8.9437,0.027794,0.1124,-0.038485
-0.99997,-0.17652,-3.3146,9.8851,0.018937,0.1124,-0.013134
-0.99997,0.41188,-3.0793,9.6301,0.022602,0.11332,0.018021
-0.99997,1.0787,-2.5105,7.6296,0.0012217,0.11942,0.054672
-0.99997,0.92183,-1.9809,7.1589,0.078802,-0.086132,-0.18448
-0.99997,0.45111,-2.6086,7.708,0.34789,0.030849,-0.15211
-0.99997,0.25497,-2.7459,9.2771,0.34117,0.072388,-0.075136
-0.99997,0.039227,-1.7456,10.768,0.10018,0.031154,-0.048869
-0.9845,0.98067,-1.2553,10.454,-0.24251,-0.081856,-0.04215
-0.70151,1.4906,-2.4713,8.8064,-0.49999,-0.1857,-0.051007
-0.34625,1.6083,-2.9028,7.7473,-0.58613,-0.19945,-0.1011
-0.09079,1.0591,-2.6282,7.5315,-0.54459,-0.14691,-0.1686
0.047119,1.0787,-2.5693,6.747,-0.29535,-0.087354,0.024129
-0.0046387,1.2749,-3.0008,6.7077,-0.26114,-0.044593,0.012828
-0.17847,-0.50995,-2.3144,10.434,-0.27519,-0.013134,-0.12309
-0.40884,-0.90221,-4.2953,9.9636,-0.32498,0.0009163,-0.085216
-0.53061,0.86299,-6.0605,8.4141,-0.35858,-0.007025,-0.024435
-0.45917,1.0199,-4.5699,8.0218,-0.33995,-0.031765,0.031765
-0.20056,0.74531,-2.0986,8.7083,-0.45448,-0.043371,0.059865
0.13129,0.56879,-1.4318,9.0221,-0.36469,-0.013134,0.050396
0.487,1.3533,-2.6674,7.9238,-0.13744,0.041844,-0.047037
0.85413,1.824,-3.0793,8.1591,-0.084299,0.093768,-0.065668
1,1.7456,-3.0597,8.5514,0.0009163,0.10934,0.020769
1,1.7456,-2.7655,9.0417,0.13347,0.092241,0.038485
1,1.4318,-2.8832,8.9437,0.27397,0.073609,0.049786
1,1.8044,-3.0989,8.0807,0.35491,0.077274,0.03879
1,1.6867,-3.1381,7.7865,-0.27153,0.099266,0.0079412
1,1.118,-3.3539,8.6299,-0.19517,0.10812,-0.026878
1,1.0199,-4.0796,8.9437,0.25687,0.095906,-0.016493
1,1.118,-4.0207,9.2575,0.22755,0.068722,-0.017104
1,0.98067,-3.5304,9.1202,0.23824,0.047953,-0.085827
1,1.0395,-3.0793,8.7279,0.27245,0.052229,-0.10201
1,1.0395,-2.7459,8.1787,0.2813,0.072693,-0.095906
1,0.54917,-2.4124,8.2572,0.23121,0.097128,-0.075136
1,0.41188,-2.6086,8.4141,0.35675,0.11026,-0.054672
0.89313,0.5884,-3.197,8.4141,0.31185,0.094379,-0.030238
0.76254,0.80415,-3.3146,8.5906,0.12614,0.23182,-0.11515
0.71677,0.5884,-3.3735,8.4141,0.26328,0.28039,-0.083994
0.72272,0.74531,-2.7262,7.963,0.42577,0.3879,0.16738
0.74585,0.98067,-2.6086,7.8649,0.33537,0.27367,0.18906
0.79269,1.118,-3.2362,8.0218,-0.002138,-0.016799,0.21044
0.80695,0.49033,-3.9423,9.434,-0.31918,-0.25504,0.092852
0.67239,0.8826,-3.5108,7.0216,-0.55283,-0.39584,-0.036652
0.44583,-0.45111,-2.8439,10.003,-0.57238,-0.4105,-0.089797
0.18637,0.66685,-2.4517,10.905,-0.22663,-0.3488,-0.015882
-0.072754,1.0787,-2.9028,7.8649,-0.020159,-0.24954,-0.011606
-0.28455,1.216,-3.0793,6.6685,0.13958,-0.14997,-0.060476
-0.39612,1.4318,-2.5301,7.0608,0.23915,-0.07025,-0.067806
-0.4198,0.98067,-2.3536,8.6887,0.31368,0.0018326,-0.076358
-0.35754,0.90221,-2.687,9.5713,0.31521,0.079412,-0.082161
-0.21838,0.98067,-3.4519,9.0417,0.22419,0.10904,-0.063225
-0.028809,1.5298,-3.3931,7.963,0.085216,0.088881,-0.026267
0.025726,0.98067,-2.8439,7.708,-0.043066,0.041539,0.040623
-0.11676,-0.13729,-2.6086,8.4141,-0.087048,0,0.048258
-0.34155,-1.216,-3.1381,11.827,-0.031154,-0.019853,-0.015577
-0.57944,0.98067,-3.4127,11.003,0.094073,-0.01069,-0.019242
-0.78229,1.0395,-3.6088,7.6296,0.21533,0.01741,-0.017715
-0.91309,1.0591,-2.6282,6.8647,0.28741,0.046426,-0.009163
-0.95523,0.80415,-2.7459,7.1785,0.29535,0.066584,0.0079412
-0.90692,0.60801,-2.1967,8.0022,0.25229,0.065668,0.025351
-0.7428,-0.11768,-2.1967,9.1202,0.16982,0.051924,0.079412
-0.52502,0.078453,-2.6086,9.0613,0.26878,0.095906,0.12034
-0.23346,0.35304,-3.1381,8.6299,0.23427,0.082772,0.030238
0.054749,0.41188,-3.0989,8.4926,0.11393,0.039401,0.06017
0.33722,0.56879,-2.7459,8.8064,-0.009163,-0.0024435,0.062919
0.5571,0.60801,-2.687,8.9633,-0.081245,0.0048869,0.065363
0.70929,0.66685,-2.7459,8.6299,-0.069639,0.065363,0.06017
0.80728,1.2945,-2.7851,8.2572,0.0027489,0.15058,0.06017
0.84827,1.3729,-2.7655,8.5514,0.092241,-0.062003,-0.17074
0.88702,1.4318,-2.9028,8.6299,-0.14111,-0.034819,-0.12248
0.90402,1.7064,-2.9224,8.3945,-0.35766,-0.034819,-0.1967
0.88995,1.7064,-2.8243,8.4729,-0.5452,-0.055589,-0.20128
0.85959,1.2945,-2.6086,8.8652,-0.67195,-0.063835,-0.197
0.82837,1.4318,-2.7655,8.4926,-0.70983,-0.069944,-0.20311
0.79086,1.2945,-2.942,8.3749,0.30879,-0.075747,-0.19914
0.74646,0.8826,-2.7262,8.8064,0.26328,-0.071471,-0.19242
0.6991,0.74531,-2.6674,8.7868,-0.18234,-0.067806,-0.098349
0.63553,1.1768,-2.5105,8.6299,0.08491,-0.047342,-0.094073
0.53906,0.80415,-2.5105,8.5122,0.25412,0.027184,-0.06689
0.4285,0.41188,-2.6086,9.3359,0.29993,0.12156,-0.036652
0.27097,0.5884,-2.7655,10.513,0.2361,0.19181,-0.030543
0.1088,0.98067,-2.6086,10.513,0.13714,0.22969,-0.024129
-0.041138,0.96105,-2.0006,9.9636,-0.63958,0.24038,-0.040623
-0.14954,0.66685,-1.7848,9.3359,-0.44929,0.23243,-0.072388
-0.23004,0.56879,-1.8829,8.9437,0.073915,0.21808,0.09896
-0.28247,1.1768,-1.824,7.9434,0.045815,0.2022,0.12614
-0.30826,0.43149,-2.4124,8.8456,0.029322,0.19364,0.17013
-0.27142,1.216,-2.2751,8.9437,-0.0051924,0.18906,0.18906
-0.12451,1.118,-1.9025,9.179,-0.080329,0.18051,-0.062003
0.03537,1.0199,-1.5887,8.8652,-0.13439,0.16677,-0.022907
0.18161,1.118,-1.4318,8.218,-0.094684,0.18326,0.019853
0.26825,0.74531,-1.6671,7.4727,-0.048869,0.1857,0.066584
0.30319,0.41188,-2.7262,7.9238,0.20342,-0.17837,-0.1909
0.33215,0.98067,-3.3931,7.7865,0.07086,-0.21197,-0.19487
0.37494,0.56879,-3.3931,8.6299,-0.028405,-0.23305,-0.12614
0.39273,0.43149,-2.6086,8.9437,-0.087659,-0.22999,-0.14203
0.32672,0.41188,-1.5887,8.8652,-0.080023,-0.18479,-0.15394
0.15948,0.35304,-1.0395,8.4729,-0.0024435,-0.14233,-0.17776
-0.099762,0.098066,-1.3141,8.7083,0.094073,-0.13561,-0.17196
-0.42337,-0.039227,-2.0594,8.4141,0.22022,-0.10293,-0.1628
-0.7597,-0.66685,-2.6086,10.258,-0.03879,-0.28711,0.06689
-0.99051,-0.5884,-3.4519,11.925,-0.26512,-0.25045,0.098349
-0.99997,0.74531,-3.7069,9.8263,-0.52229,-0.21961,-0.040623
-0.99997,0.74531,-2.6086,7.708,-0.70738,-0.18112,-0.030238
-0.99997,0.17652,-0.56879,7.3158,-0.73823,-0.14875,-0.021991
-0.99997,-0.13729,-1.0395,8.2572,-0.65149,-0.11729,-0.0061087
-0.99997,0.82376,-2.1378,8.4141,-0.55222,-0.060476,0.018937
-0.99997,1.1964,-2.0594,9.5125,-0.4215,-0.0064141,0.047342
-0.99997,1.2945,-0.86299,9.9636,-0.28039,0.040012,0.343
-0.99997,1.1964,-0.56879,10.003,-0.17685,0.08094,0.29719
-0.99997,1.5495,-0.68647,9.7478,-0.1127,0.12828,0.12095
-0.99997,1.8044,-0.78453,9.434,-0.050702,0.18937,0.10782
-0.99997,1.6867,-1.5102,9.1202,0.031154,0.23793,0.10965
-0.99997,1.2749,-2.8243,7.8649,-0.015882,0.31796,0.14936
-0.99997,0.90221,-3.9423,7.9238,-0.50366,0.43463,0.21075
-0.99997,0.56879,-3.7069,7.4334,-1.2911,0.31521,0.27245
-0.99997,0.41188,-2.432,6.2959,-0.94837,-0.14875,0.18173
-0.98267,-0.68647,-3.3539,8.8064,-0.69516,-0.098349,0.14936
-0.79553,-1.1572,-3.5696,12.199,-0.32742,0.01405,0.23396
-0.52698,-0.54917,-3.1577,12.101,0.039401,0.13592,0.22999
-0.26062,0.80415,-2.6086,10.591,0.32162,0.27458,0.27153
-0.048431,1.4906,-1.7456,9.3752,0.50305,0.38393,0.29566
0.067108,1.6867,-1.3533,8.2768,0.61331,0.40684,0.30543
0.058228,1.3533,-1.0395,7.708,0.65912,0.38423,0.27184
0.013428,1.6475,-1.1768,7.3158,0.60842,0.31979,-0.076969
-0.047485,1.1964,-2.1575,7.3746,0.45998,0.18173,-0.058032
-0.06543,1.8044,-2.5105,7.9434,0.33995,-0.014355,0.17226
0.023773,1.5495,-3.3146,8.1787,0.27886,-0.1857,0.089797
0.15359,1.6475,-3.3931,8.2572,0.23335,-0.29199,-0.012828
0.20923,1.4906,-2.687,8.1199,0.18876,-0.35277,-0.043677
0.062012,0.50995,-0.90221,10.297,0.1576,-0.37843,-0.051618
-0.25604,-2.7066,-2.2555,11.533,0.1011,-0.34728,-0.072082
-0.59616,-0.86299,-5.0798,8.1199,-0.041539,-0.021991,0.074831
-0.72852,1.2356,-4.2561,7.6296,-0.043677,-0.045204,0.075747
-0.61346,0.39227,-2.1575,8.5318,-0.046731,-0.076358,0.018021
-0.28384,0.098066,-0.90221,9.2575,-0.081856,-0.096211,0.022907
0.13885,-0.50995,-2.3536,8.7083,-0.11729,-0.10782,0.038485
0.62103,0.56879,-4.0207,7.8453,-0.1237,-0.12462,0.057421
0.97806,1.3533,-3.6873,8.7083,0.053145,-0.13744,0.072693
1,0.54917,-3.2558,9.8066,-0.0067195,-0.13561,0.072998
1,0.8826,-2.8439,9.7478,-0.2755,0.14416,0.027184
1,1.2356,-3.1381,9.3359,-0.41417,0.059254,0.0281
1,2.2359,-3.0401,7.7865,-0.40897,0.026573,-0.03207
1,2.2948,-2.0398,6.9235,-0.25259,0.061392,-0.051007
1,0.90221,-1.7456,7.61,-0.0048869,0.14294,-0.0562
1,0.74531,-3.4127,8.1199,0.24068,0.23274,-0.040317
1,1.216,-4.4522,8.4141,0.40134,0.29871,-0.013744
1,1.2945,-4.2561,8.2572,0.43035,0.32956,0.011912
1,0.90221,-2.8832,8.7083,-0.067806,0.29596,0.0027489
1,0.41188,-1.7848,9.2183,-0.17898,0.19487,0.016188
1,0.41188,-2.6086,9.179,-0.18173,0.073915,0.019548
1,0.54917,-3.2362,8.8064,-0.10293,-0.018937,0.015577
1,0.80415,-3.3146,8.5514,0.0012217,-0.041844,0.0082467
1,0.90221,-2.8832,8.8456,0.085521,-0.015577,-0.0076358
1,0.70608,-2.6674,8.8652,0.32956,0.012217,-0.018326
1,0.90221,-3.0008,8.8652,0.13073,0.034819,-0.012828
1,1.0395,-3.0793,8.8652,0.03879,0.04215,0.010385
1,0.72569,-2.7459,8.8848,0.028711,0.03146,0.018326
1,0.41188,-2.6086,8.8064,0.044593,0.014355,0.017715
0.98297,0.35304,-2.687,8.6887,0.079412,-0.0054978,0.014661
0.86392,0.64724,-2.7851,8.7083,0.10904,-0.013439,0.016493
0.72061,0.80415,-2.9812,8.3749,0.10232,-0.0073304,0.0082467
0.56992,0.98067,-2.9224,8.1199,0.11118,-0.0051924,-0.0051924
0.42932,1.118,-2.7459,8.0807,0.076053,-0.011301,-0.0024435
0.29016,1.3337,-2.9028,8.0022,0.092241,-0.12828,-0.011301
0.1767,1.0591,-3.8442,8.7279,0.034819,-0.1295,-0.040012
0.093994,1.3533,-3.6285,8.7083,-0.047037,-0.13011,0.05284
0.052124,1.4906,-3.2362,8.7475,-0.12248,-0.1182,0.049786
0.027222,1.118,-3.0989,9.1202,-0.15241,-0.082161,0.03146
-0.0040894,0.98067,-3.0793,9.3752,-0.13011,-0.017104,0.015272
-0.057983,0.74531,-3.0989,9.0417,-0.086132,0.06353,0.010996
-0.15009,0.90221,-2.7459,8.6495,-0.043982,0.13683,0.0033598
-0.28543,0.66685,-2.4124,8.316,-0.011301,0.18601,-0.083689
-0.45987,0.45111,-2.5693,8.5318,0.022297,0.21411,-0.15424
-0.62018,0.80415,-2.9812,8.6299,0.089797,0.19914,-0.065363
-0.7998,0.72569,-2.6282,8.5514,0.29016,0.17898,-0.060476
-0.93155,0.66685,-2.6674,8.4141,0.54245,0.17349,-0.070555
-0.99997,1.1768,-2.7655,7.61,0.72174,0.16707,-0.10782
-0.99997,1.2945,-3.0008,7.3354,0.69975,0.11148,-0.10171
-0.99997,1.1768,-3.3931,8.0807,0.35125,-0.051924,-0.0562
-0.99997,1.5495,-3.5108,9.0417,-0.46029,-0.2584,-0.021686
-0.99997,1.4514,-4.3345,8.7083,-0.65912,-0.38729,-0.01405
-0.99997,1.2749,-3.6873,10.454,-0.61392,-0.39615,-0.19639
-0.97922,1.0787,-2.3732,11.611,-0.45357,-0.32162,-0.22266
-0.94983,1.4514,-1.9809,9.7282,-0.30635,-0.22297,-0.22052
-0.95438,1.824,-2.0594,7.5315,-0.23549,-0.12889,-0.17349
-0.98529,1.3729,-1.8829,7.0608,-0.20708,-0.094073,-0.10537
-0.99997,0.8826,-2.2948,7.1785,-0.1014,-0.068722,-0.038179
-0.99997,0.45111,-3.2166,7.4531,0.043677,0.0058032,0.018631
-0.99545,0.50995,-3.3931,7.6884,0.15547,0.10996,0.021075
-0.90475,0.2942,-3.0401,8.0807,0.197,0.20036,0.0067195
-0.78363,-0.05884,-2.6086,8.4337,0.15272,0.23518,0.0045815
-0.65546,0.56879,-2.9028,8.4337,0.07758,0.22388,0.013744
-0.54391,0.90221,-3.4519,8.7083,-0.0076358,0.20678,0.022602
-0.5217,0.70608,-3.6285,9.179,-0.087659,0.19303,0.021991
-0.62381,1.216,-2.6086,8.6495,-0.15058,0.18631,0.023213
-0.76877,0.72569,-2.1575,10.572,-0.32773,-0.22144,0.16829
-0.90543,0.90221,-2.9028,11.003,-0.39279,-0.1686,0.21594
-0.99988,1.7064,-3.2558,9.1594,-0.50824,-0.1857,0.015272
-0.99997,2.1575,-2.9028,7.61,-0.57024,-0.197,0.029627
-0.99997,1.4318,-2.3536,7.61,-0.51465,-0.14752,0.041233
-0.99997,1.1768,-2.9028,8.8652,-0.27886,-0.0045815,0.026267
-0.99997,1.3533,-3.4519,8.6299,0.0030543,0.15272,0.018937
-0.99997,1.9221,-3.4127,7.6296,0.15211,0.24801,0.097128
-0.99997,1.6475,-3.1381,8.0807,0.41875,0.28375,-0.14844
-0.99997,0.60801,-2.5105,8.5514,0.20403,0.30146,-0.16341
-0.99997,-0.13729,-2.2163,7.1589,-0.64446,0.41203,0.26817
-0.99997,-1.9417,-2.9028,10.925,-1.3314,0.58704,0.27611
-0.99997,0.25497,-3.4519,10.925,-1.2599,0.28527,0.29658
-0.99997,1.8044,-3.1577,8.0807,-0.69852,-0.32284,0.38332
-0.99997,1.216,-1.3533,7.0019,0.1909,-0.57757,0.25748
-0.99997,0.8826,-0.62763,6.6881,0.27458,-0.49755,0.0097738
-0.99997,0.92183,-3.0401,7.2373,0.51099,-0.28344,0.2025
-0.99997,1.7456,-3.6873,7.9434,0.37477,-0.09163,0.20769
-0.99997,1.3729,-3.9423,8.7279,0.13011,0.020464,-0.028405
-0.99997,1.3729,-3.6285,7.9238,-0.053756,-0.0027489,0.12431
-0.99997,1.3337,-2.1967,8.9044,-0.099571,-0.10293,0.20953
-0.99997,-1.2945,-1.9809,11.729,-0.065057,-0.18937,0.2419
-0.99997,0.49033,-5.884,9.0025,-0.057421,-0.21014,0.24648
-0.99997,2.2948,-5.4525,7.8649,0.38301,-0.16707,0.22694
-0.90652,1.5298,-2.5105,7.9434,0.25687,-0.1066,0.15302
-0.51157,0.80415,-1.0199,8.8456,-0.0079412,-0.040317,0.15485
-0.13498,1.0395,-2.1967,8.1199,0.024129,0.0073304,0.20892
0.1983,1.5298,-3.0401,7.9238,0.036346,0.029932,0.19517
0.4892,1.3729,-3.3931,7.9434,0.01069,0.028405,0.19028
0.73602,1.3925,-3.3931,8.8456,-0.0281,0.015577,0.19761
0.92117,0.98067,-3.4519,9.0417,-0.028711,0.0012217,0.20953
1,1.2356,-3.7658,8.7083,0.054672,0.0048869,0.19487
1,1.118,-4.4522,8.1199,0.079412,-0.31887,-0.062308
1,0.039227,-5.6094,9.0613,-0.054978,-0.38087,-0.084299
1,0.60801,-3.7265,11.238,-0.18815,-0.42425,-0.059559
1,1.0395,-1.9809,10.317,-0.35339,-0.42119,-0.034819
1,1.1768,-1.8437,7.9238,-0.55558,-0.38973,-0.034819
1,1.0395,-2.2555,6.9627,-0.72815,-0.34575,-0.036652
1,1.2356,-2.9028,6.7077,-0.77336,-0.33995,-0.042455
0.8493,1.6867,-2.942,7.1589,-0.66401,-0.34911,-0.05284
0.6116,1.1964,-2.589,7.4727,-0.41081,-0.32834,-0.11881
0.38077,1.1964,-2.2555,7.6296,-0.098655,-0.25107,-0.13958
0.16965,1.1376,-2.3732,7.4531,0.15394,-0.13439,-0.11301
0.015778,0.92183,-2.8243,7.7865,0.29138,-0.033903,-0.10843
-0.07666,0.64724,-3.4519,8.4729,0.30543,0.033292,-0.099876
-0.10132,0.45111,-3.1577,8.8652,0.23121,0.062614,-0.086743
-0.10742,-0.13729,-3.4127,9.689,0.12065,0.058032,-0.083689
-0.096466,0.56879,-5.2564,10.513,0.022602,0.058032,-0.09499
-0.013062,1.118,-4.0992,11.062,-0.080023,0.071166,-0.065363
0.16293,1.1964,-3.55,11.062,-0.20281,0.072998,-0.06017
0.40057,1.5495,-2.6086,9.4928,-0.30146,0.052229,-0.15088
0.62305,1.4514,-2.3732,8.4141,-0.32101,0.029932,-0.15088
0.74255,1.0395,-2.2555,7.4334,-0.27489,0.026267,-0.14508
0.77621,0.39227,-2.9028,7.1196,-0.20831,0.038179,-0.13042
0.73407,0.72569,-3.9423,6.8058,-0.15394,0.054062,-0.099876
0.67551,1.2356,-3.9423,7.3158,-0.10843,0.063835,-0.075747
0.64667,1.1964,-3.6677,7.9434,-0.021075,0.32406,0.075747
0.64059,1.0787,-3.3146,8.4141,-0.013134,0.29108,-0.010079
0.66711,1.2356,-3.0989,7.9042,-0.034208,0.21258,0.30788
0.72919,1.3533,-3.0008,8.1787,-0.040928,0.052534,0.30971
0.82025,1.3337,-3.2362,8.1787,-0.03207,-0.06689,0.24465
0.94107,1.4514,-3.4127,8.1787,0.0058032,-0.090103,0.098044
1,1.5495,-3.4519,8.3357,0.11759,-0.1408,-0.062308
1,1.4514,-3.5304,8.3749,0.20708,-0.2364,-0.014661
1,1.5887,-3.3735,8.316,0.42241,-0.00061087,-0.15211
1,1.6083,-3.0793,8.4141,0.41264,-0.052534,-0.17654
1,1.5298,-3.0793,8.4926,0.27184,-0.077885,-0.05284
1,1.6867,-3.3146,8.3945,-0.017715,-0.085216,-0.094073
1,1.5495,-3.1381,8.4926,-0.40103,-0.12767,-0.083689
1,1.4906,-3.0793,8.6299,-0.73945,-0.2193,-0.047647
1,1.6475,-3.0989,8.316,0.24312,-0.32376,-0.051618
1,1.2945,-3.5696,8.5514,0.35186,-0.39798,-0.1011
1,1.4318,-3.8246,8.7083,-0.58521,-0.41997,-0.15669
1,1.5298,-3.6285,8.5514,-0.30024,-0.39156,-0.16768
0.95529,1.2945,-3.0793,8.4141,-0.030849,-0.32437,-0.17776
0.77115,1.2356,-2.9028,8.0611,0.15424,-0.2364,-0.17013
0.5882,1.1964,-2.687,8.2768,0.22907,-0.14813,-0.16524
0.41315,0.98067,-3.0401,8.4926,0.2645,-0.040623,-0.1631
0.25647,1.0395,-3.0008,8.2768,-0.88667,0.032987,-0.15944
0.15945,0.92183,-3.0793,8.316,-0.81123,0.076969,-0.15027
0.077545,0.64724,-3.197,8.4729,0.16677,0.10934,0.15241
0.037048,0.41188,-3.5108,8.7868,0.14416,0.10324,0.13592
0.0090637,0.54917,-3.8638,8.8652,0.093462,0.073915,0.057727
0.028687,1.0591,-3.8638,8.8456,0.075442,0.056505,0.06689
0.067017,0.90221,-3.55,9.1202,0.11026,0.069333,0.072998
0.14554,0.90221,-3.8638,9.3555,0.16738,0.097738,0.099571
0.3009,1.3533,-3.2362,10.003,0.19548,0.11484,0.13806
0.45209,0.56879,-2.432,10.042,0.17593,0.11545,0.1628
0.55188,0.80415,-2.5105,8.7868,-0.014661,0.10293,-0.016493
0.52106,0.80415,-3.0401,7.3942,-0.060476,0.082161,-0.029627
0.38095,0.8826,-3.5108,6.9039,-0.053756,0.055589,0.13317
0.19061,0.74531,-3.7658,7.0019,0.0045815,0.026267,0.12645
-0.018982,1.0591,-3.6873,7.2961,0.085827,0.012828,0.10232
-0.21222,1.118,-3.8246,7.0019,0.14966,0.024129,0.065057
-0.36859,1.1964,-3.6677,7.61,0.12614,0.044288,0.020159
-0.49573,1.3533,-3.0989,8.218,0.059559,0.038485,-0.0085521
-0.60162,1.0787,-2.432,8.3357,-0.2584,-0.28986,0.3824
-0.72885,0.8826,-2.2751,9.5125,-0.10049,-0.28314,0.48472
-0.85843,1.2945,-2.5693,9.5713,0.0956,-0.22052,-0.059865
-0.99915,2.1771,-2.432,7.7865,0.17074,-0.13317,-0.053756
-0.99997,2.432,-2.432,8.1787,0.10446,-0.086743,-0.00030543
-0.99997,1.118,-3.0989,9.5713,-0.045815,-0.10843,0.071166
-0.99997,1.7064,-3.4519,10.199,-0.18418,-0.19334,0.15882
-0.99997,2.0594,-2.7655,8.8064,-0.22755,-0.29627,0.26756
-0.99997,1.824,-2.1182,8.2376,0.22266,0.13103,-0.39798
-0.99997,1.7064,-3.0597,7.9042,0.52168,0.23091,-0.37171
-0.99997,1.9221,-3.6677,8.2572,0.69333,0.31398,-0.27245
-0.99997,1.8633,-3.4127,8.316,0.67073,0.35003,-0.23549
-0.99997,1.7064,-3.0793,8.6495,0.52687,0.34667,-0.23182
-0.99997,1.7456,-3.3146,8.2572,0.35644,0.32773,-0.27886
-0.99997,1.6083,-3.3146,8.316,0.2755,0.33414,-0.33537
-0.90292,1.0395,-2.6674,8.9437,0.33109,0.38301,-0.38057
-0.66199,0.86299,-1.4906,8.3749,0.45571,0.44104,-0.014661
-0.50137,0.17652,-1.3729,8.7868,0.53726,0.48655,0.043371
-0.46329,-0.49033,-1.9417,9.5321,0.53115,0.5006,-0.31062
-0.55472,-0.70608,-2.5105,9.3359,0.43799,0.47525,-0.22602
-0.70523,-1.2749,-2.8832,10.375,0.26145,0.42761,-0.13928
-0.84137,0.27459,-2.9812,9.6694,0.066584,0.35003,-0.081551
-0.95187,-0.039227,-2.7459,8.7083,-0.058948,0.24954,-0.052229
-0.99777,-0.11768,-2.4124,8.4141,-0.087659,0.15302,-0.047342
-0.97363,0.35304,-2.7851,8.0611,-0.043066,0.096517,-0.055894
-0.85474,0.90221,-1.9613,8.6887,-0.18357,0.020159,-0.052229
-0.67636,1.1768,-0.56879,9.5909,-0.33598,-0.12217,0.094379
-0.51382,1.4318,-0.098066,9.4732,-0.43127,-0.22938,0.071777
-0.42484,1.7064,-0.90221,8.9437,-0.45601,-0.2642,-0.0015272
-0.39587,1.7064,-1.5102,8.2768,-0.43035,-0.26389,-0.044593
-0.39648,1.5102,-1.5691,8.4729,-0.37538,-0.27306,-0.073915
-0.38849,0.8826,-2.7262,9.1986,-0.32254,-0.28405,-0.071166
-0.33035,0.80415,-4.7072,8.9044,0.33781,-0.0009163,-0.26878
-0.20267,1.0787,-5.5702,8.4141,0.33048,0.066279,-0.22694
-0.0095825,1.1964,-5.7075,8.1787,0.24984,0.10079,-0.28039
0.18552,1.5495,-5.5898,8.1787,0.15485,0.1124,-0.25595
0.35803,1.824,-4.9426,8.1003,0.1237,0.1069,-0.24343
0.43411,1.5298,-3.5304,8.0022,0.18204,0.090713,-0.26053
0.44629,1.2356,-2.4124,7.9434,0.069333,0.083994,-0.28069
0.41687,1.0787,-2.2751,7.8649,0.25198,0.10446,-0.28772
0.39368,1.0199,-2.432,7.9434,-0.25809,0.047953,0.19059
0.36514,1.1964,-2.8832,8.0807,-0.24343,0.048564,0.13408
0.35834,1.6083,-2.9028,8.0807,-0.2193,0.050702,0.18754
0.39392,1.6083,-1.824,8.2768,-0.21075,0.047037,0.22297
0.40442,1.3533,-1.3141,8.4141,-0.21044,0.03879,0.2361
0.39865,1.6867,-1.4122,8.4141,-0.19823,0.032681,0.23427
0.40314,1.6867,-2.1575,8.7083,-0.15119,0.034514,0.2248
0.39771,1.3533,-3.0793,9.0025,-0.067806,0.047647,0.21441
0.41367,1.1964,-3.4127,9.1006,0.10232,0.052534,-0.10568
0.45255,1.118,-3.7265,8.8652,0.18601,0.035125,-0.083078
0.48691,1.3729,-3.7854,9.2575,0.29138,0.013134,0.074831
0.55365,1.1964,-4.1972,9.5125,0.43921,0.018021,0.036041
0.63849,1.1768,-3.6873,9.1006,0.59468,0.018937,-0.016493
0.75162,0.80415,-3.55,9.179,0.58796,-0.0073304,-0.055283
0.89716,0.70608,-2.5693,10.258,0.0048869,-0.0045815,-0.082772
0.98767,0.27459,-1.9809,9.7478,0.053451,-0.018021,-0.11332
0.99805,0.80415,-2.2751,7.9434,-0.35186,-0.10415,-0.26848
