0.04715,0.86299,-4.1776,7.7865,0.0024435,0.0085521,-0.015577
0.045288,0.82376,-4.0403,7.9238,0.014661,0.011606,-0.011606
0.060913,0.80415,-4.0796,8.0218,0.0073304,0.0085521,-0.024129
0.068481,0.74531,-3.9815,7.9434,-0.021075,0.00030543,-0.021686
0.066101,0.92183,-4.0796,7.9042,-0.055283,-0.015577,-0.019242
0.065125,0.80415,-4.0796,7.8649,-0.083078,-0.032376,-0.014661
0.061707,0.80415,-4.0207,7.8649,-0.095906,-0.034819,-0.0048869
0.053192,0.86299,-4.158,7.9434,-0.085521,-0.023824,-0.01069
0.053986,0.80415,-4.1972,7.8061,-0.055589,0.0097738,-0.0094684
0.054352,0.82376,-4.0207,7.9238,-0.05681,0.0073304,-0.0073304
0.065338,0.54917,-3.9423,8.1003,-0.045509,0.010079,-0.014966
0.063232,0.74531,-3.9423,7.9434,-0.029016,0.013744,-0.018021
0.06781,0.90221,-4.1776,7.9434,-0.015882,0.017715,-0.017715
0.066864,0.98067,-4.158,7.9042,-0.0079412,0.015882,-0.015272
0.077576,0.72569,-4.0403,8.0807,-0.010385,0.012217,-0.014966
0.08075,0.98067,-4.0011,7.9434,-0.020464,0.0051924,-0.014355
0.086395,0.92183,-3.9815,7.963,-0.034514,-0.0015272,-0.01069
0.088348,0.98067,-4.1384,7.8649,-0.045204,-0.0079412,-0.015577
0.084808,0.80415,-4.2561,7.7865,-0.054367,-0.009163,-0.0048869
0.10187,0.96105,-4.158,8.0022,-0.054978,-0.0067195,-0.0027489
0.094666,0.90221,-4.158,8.0022,-0.041233,0.00030543,-0.0033598
0.093628,0.90221,-4.1972,7.9042,-0.030849,0.007025,-0.0033598
0.088928,0.74531,-3.9423,7.8649,-0.025656,0.009163,-0.0042761
0.081879,0.74531,-4.1776,8.0807,-0.019548,0.010996,-0.0061087
0.075378,0.70608,-4.158,8.0611,-0.012828,0.011606,-0.029932
0.075378,0.96105,-4.0992,7.8061,-0.0076358,0.0094684,-0.026878
0.08374,0.90221,-4.0796,7.9042,0.0045815,0.016188,-0.019242
0.077637,0.80415,-3.8246,7.9434,0.0036652,0.012217,-0.021991
0.078583,1.0591,-4.1776,7.9434,-0.0024435,0.010385,-0.017104
0.087402,0.98067,-4.2953,7.7473,-0.011606,0,-0.015577
0.094086,1.0787,-4.158,7.9434,-0.024129,0.0033598,-0.015577
0.10574,0.74531,-4.0796,8.0218,-0.010079,0.0027489,-0.021075
0.10696,0.80415,-4.0992,7.9434,-0.0036652,-0.024435,-0.01405
0.12659,0.72569,-4.2953,8.1003,-0.13286,-0.033903,-0.0097738
0.13965,0.74531,-4.158,8.0022,-0.15577,-0.043677,0.0045815
0.13254,0.98067,-4.1972,7.8649,-0.15944,-0.042761,-0.0079412
0.14337,0.8826,-4.158,7.7865,-0.14203,-0.032376,-0.01405
0.1459,0.98067,-4.0796,7.9238,-0.11454,-0.023824,-0.014355
0.14413,0.92183,-4.0403,8.0022,-0.082467,-0.011912,-0.013134
0.14465,0.96105,-4.158,8.0022,-0.043371,0.0064141,-0.013134
0.13852,0.82376,-4.158,7.9434,-0.047953,0.0039706,-0.028711
0.14471,0.86299,-4.0796,7.963,-0.053451,-0.0027489,-0.029016
0.12698,0.82376,-3.9815,7.7669,-0.06689,-0.0064141,-0.013439
0.12949,0.82376,-3.9423,7.9238,-0.076358,-0.0036652,-0.015882
0.11664,0.98067,-4.0796,7.963,-0.07086,0.00061087,-0.019242
0.097809,0.80415,-4.1776,7.7865,-0.061392,0.0064141,-0.021075
0.097046,0.80415,-4.0403,7.9434,-0.05284,0.011912,-0.023518
0.099609,1.0395,-4.1384,7.8649,-0.043982,0.013134,-0.0281
0.095184,1.0787,-4.2561,7.9238,-0.029016,0.014661,-0.02474
0.084503,0.90221,-4.2561,8.0022,-0.024435,0.017104,-0.02138
0.096069,1.0395,-4.158,7.9434,-0.0281,0.022297,-0.030238
0.096222,1.0395,-4.1384,8.0022,-0.039706,0.02474,-0.027794
0.10397,0.92183,-4.0207,7.963,-0.06017,0.019548,-0.027489
0.10745,0.74531,-4.0207,7.8649,-0.08094,0.012217,-0.027489
0.098633,0.90221,-4.1384,8.0022,-0.092852,0.0042761,-0.027184
0.10535,1.0395,-4.1972,7.8649,-0.097128,-0.0039706,-0.026573
0.10168,0.90221,-4.1776,7.7865,-0.1014,-0.0058032,0.011301
0.10489,0.74531,-4.2561,7.9238,-0.10415,-0.0067195,0.010079
0.097839,0.8826,-4.158,7.8649,-0.098655,-0.009163,-0.01405
0.099792,0.90221,-4.1776,7.9042,-0.086132,-0.013439,-0.0088575
0.090759,0.98067,-4.1776,7.8649,-0.078191,-0.015577,-0.010079
0.068359,0.80415,-4.2561,7.7865,-0.079412,-0.016799,-0.0082467
0.048279,1.0395,-4.3934,7.708,-0.093157,-0.017104,0.00061087
0.039917,1.0199,-4.3542,7.6884,-0.11881,-0.017715,0.009163
0.022156,1.1964,-4.3934,7.7865,-0.034514,0.034514,-0.094379
0.020447,1.0395,-4.1776,7.8649,-0.042761,0.036652,-0.085216
0.022095,0.90221,-4.158,7.8061,-0.055589,0.034819,0.0073304
0.017456,1.0199,-4.1776,7.6884,-0.07422,0.029016,0.011912
0.01001,0.66685,-4.2365,8.0022,-0.071166,0.015577,0.010079
0.0041809,1.0395,-4.2953,7.963,0.036957,0.0009163,0.0024435
-0.0019836,1.0591,-4.3345,7.7473,0.26206,0.025656,-0.030543
0.0019226,1.118,-4.4914,7.6884,0.53878,0.084299,-0.078802
-0.0048828,0.98067,-4.2757,7.8453,0.79443,0.16341,0.027489
-0.0055237,0.92183,-4.3345,7.9434,0.62492,0.21105,0.03543
-0.014343,1.0787,-4.4522,7.7865,0.40684,0.21289,-0.066584
-0.020538,0.72569,-4.1972,7.9434,0.16768,0.17165,-0.033598
-0.023132,1.0395,-4.2953,7.7473,-0.061392,0.10568,-0.011606
-0.028168,1.118,-4.3149,7.7473,-0.24587,0.033292,-0.0039706
-0.023346,0.98067,-4.3345,7.6884,0.76633,-0.03207,0.0064141
-0.02597,1.0591,-4.2953,7.8649,0.85491,-0.072388,0.018937
-0.089111,0.98067,-4.9426,7.7865,-0.55314,-0.072082,0.0039706
-0.24487,1.3337,-5.6486,7.4531,-0.54153,-0.051924,-0.011606
-0.50348,1.118,-4.7072,7.6884,-0.47312,-0.043677,0.057727
-0.79941,0.50995,-3.3735,8.316,-0.35613,-0.045509,0.083383
-0.99786,0.54917,-2.6674,8.3749,-0.19731,-0.04612,0.083689
-0.99997,0.5884,-2.8832,8.1199,-0.019242,-0.036041,0.065973
-0.99997,1.0395,-3.4519,7.8061,-0.38729,-0.0067195,0.046426
-0.99997,1.0199,-3.7265,7.9238,-0.49602,0.03879,0.027184
-0.99997,0.70608,-4.3542,8.1787,-0.024435,0.10415,-0.31246
-0.99997,0.96105,-5.1191,7.9434,-0.21625,0.14752,-0.32834
-0.99997,1.118,-4.9426,8.0022,-0.32162,0.14294,-0.017715
-0.99997,1.3729,-4.4914,7.9434,-0.23915,0.087354,-0.036041
-0.9845,1.3925,-4.0403,8.5514,-0.002138,0.002138,-0.064446
-0.80728,0.70608,-5.0798,8.7083,0.32681,-0.062614,-0.11087
-0.57721,1.118,-6.3743,7.963,0.10476,-0.066279,-0.18265
-0.33609,1.5495,-6.0409,7.3746,0.098655,-0.0018326,-0.26023
-0.10724,1.8437,-5.3544,7.6884,-0.69914,1.0641,-1.3702
0.21371,2.4517,-6.3939,8.1003,-0.6915,1.0455,-1.3048
0.5213,3.1577,-7.1589,7.2961,-0.67317,1.0198,-1.5379
0.8425,3.7069,-6.7077,6.8647,-0.62644,0.98624,-1.5198
1,3.8638,-5.884,6.6685,-0.54581,0.93951,-1.496
1,3.8442,-4.8641,6.6881,-0.44624,0.89064,-1.4673
1,3.5892,-4.3934,6.6881,-0.34514,0.84941,-1.4444
1,3.6285,-4.3345,6.747,-0.25962,0.8097,-1.4193
1,3.2754,-4.1972,6.8647,-0.19884,0.76572,-0.86101
1,3.2558,-4.4914,6.6097,-0.16096,0.72143,-0.76205
1,3.4912,-4.3934,6.1978,-0.12798,0.67195,-1.2425
1,3.1774,-4.5503,6.2959,-0.080023,0.61117,-1.1823
1,3.2754,-4.7072,6.5312,-0.0036652,0.55619,-1.128
1,3.0204,-4.9426,6.6097,0.096211,0.51526,-1.0849
1,3.0793,-4.7856,6.747,0.18784,0.48808,-1.0342
1,2.9224,-5.0798,6.8647,0.24801,0.47342,-0.95845
1,2.9224,-5.4525,6.9823,0.25412,0.47189,-0.20036
1,2.7459,-5.4133,7.2765,0.19426,0.48289,-0.09499
1,2.7066,-5.4525,7.3746,0.10537,0.48045,-0.66462
1,2.9028,-5.3937,7.4727,0.067501,0.4386,-0.56749
1,2.9224,-5.1191,7.4727,0.13134,0.38851,-0.47586
1,3.0204,-4.9229,7.4727,0.25107,0.36988,-0.3992
1,2.687,-4.766,7.4923,0.36713,0.37171,-0.33995
1,2.589,-4.4914,7.5903,0.4664,0.37965,-0.27978
1,2.589,-4.158,7.61,-0.80848,0.85002,-1.595
1,2.1575,-3.6285,7.4727,-0.81764,0.90011,-1.5684
1,2.1182,-3.0597,7.0608,-0.82528,0.94867,-1.6848
0.91083,1.824,-3.197,7.1589,-0.83383,0.99388,-1.6628
0.69632,1.6083,-3.8442,7.7865,-0.83475,1.0284,-1.6399
0.457,1.1768,-4.3542,8.4141,-0.81581,1.0486,-1.6185
0.20169,0.49033,-3.8638,8.7083,-0.78466,1.0602,-1.6047
-0.076721,0.45111,-2.9028,8.218,-0.75075,1.0666,-1.6011
-0.3916,-0.13729,-2.4517,7.61,0.24465,0.11668,0.11973
-0.69037,-0.27459,-3.5696,7.1196,0.11393,0.088575,0.12095
-0.94882,-0.13729,-3.8442,7.1589,-0.0018326,0.028405,0.13408
-0.99997,-0.39227,-3.5696,7.9434,-0.086132,-0.049786,0.15424
-0.99997,-0.82376,-2.9028,8.0611,-0.15944,-0.10751,0.15699
-0.99997,-1.0787,-2.8243,8.1787,-0.24587,-0.12339,0.13256
-0.99997,-1.3729,-3.7658,8.0611,0.31582,-0.10751,0.10965
-0.99997,-1.3141,-4.9426,8.1199,0.32681,-0.082772,0.11087
-0.99997,-1.1572,-5.1191,7.9042,-0.54917,-0.079107,0.014355
-0.99997,-0.68647,-4.7268,7.4334,-0.60292,-0.098349,0.026573
-0.99997,-0.50995,-4.1972,7.5511,-0.57696,-0.12889,0.10873
-0.99997,-0.50995,-3.8834,7.6884,-0.4725,-0.16921,0.087659
-0.99997,-0.21575,-3.5108,8.1787,-0.33537,-0.20067,0.068722
-0.99997,-0.39227,-3.3931,8.6887,-0.22113,-0.19395,0.046426
-0.99997,-0.76492,-4.158,8.9437,-0.34606,-0.16127,0.021991
-0.99997,-0.82376,-4.9818,8.3749,-0.45265,-0.12523,0.0097738
-0.99997,-0.5884,-4.668,8.2768,0.81795,0.72571,0.37477
-0.99997,-0.92183,-4.0207,8.9437,0.83017,0.78374,0.31551
-0.99997,-0.84337,-3.8638,9.1594,0.79412,0.82589,0.68875
-0.99997,-0.35304,-3.9815,8.5514,0.69303,0.83108,0.63438
-0.99997,-0.50995,-3.2362,8.8064,0.54642,0.80115,0.58246
-0.99997,-1.0591,-2.4713,8.9633,0.38729,0.74464,0.53512
-0.99997,-0.50995,-2.432,8.8652,0.24618,0.66645,0.48808
-0.99997,-0.05884,-2.5693,8.7868,0.19975,0.59315,0.43952
-0.99997,0.098066,-2.4124,8.7279,0.2923,0.56719,0.10934
-0.99997,-0.05884,-2.687,8.8652,0.44257,0.5678,0.11454
-0.99997,-0.019613,-3.4519,8.7868,0.54734,0.54917,0.28711
-0.99997,0.25497,-4.0796,8.4337,0.53939,0.4777,0.27855
-0.992,0.25497,-3.8638,8.6495,0.42333,0.36408,0.26114
-0.91855,0.039227,-3.0793,9.0613,0.27886,0.25748,0.21655
-0.8483,-0.11768,-2.8439,9.3163,0.20983,0.1799,0.17013
-0.78824,-0.05884,-3.4519,8.7475,0.24496,0.13683,0.13256
-0.73221,0.098066,-4.158,8.4141,-0.050091,0.051007,-0.24435
-0.66644,-0.66685,-4.413,8.7475,0.00061087,0.062614,-0.22205
-0.61502,-0.50995,-3.5696,8.8652,0.065057,0.069639,-0.66768
-0.58633,-0.39227,-3.6285,8.6887,0.083383,0.07086,-0.57666
-0.59061,-0.50995,-4.4914,8.1003,0.026267,0.064752,-0.48411
-0.59958,-0.64724,-5.2564,7.8649,-0.087354,0.045509,-0.40042
-0.62305,-1.1572,-5.884,8.0807,-0.22724,0.010079,-0.33567
-0.63321,-0.86299,-6.3743,7.7865,-0.36377,-0.038485,-0.28527
-0.64398,-0.66685,-5.9624,7.8061,-0.47006,-0.078191,-0.1573
-0.64011,-0.68647,-5.2368,8.0022,-0.54306,-0.10263,-0.1576
-0.62726,-0.54917,-5.0406,7.963,-0.58521,-0.11148,-0.20861
-0.60571,-0.17652,-5.4133,7.3354,-0.5904,-0.11087,-0.18723
-0.56937,0.60801,-5.884,6.3743,-0.53909,-0.11606,-0.16249
-0.5159,1.1964,-5.6094,6.3351,-0.41936,-0.13195,-0.14844
-0.44565,1.0395,-5.3348,6.5116,-0.27245,-0.13134,-0.14325
-0.38248,1.2356,-5.0406,6.492,-0.12278,-0.10782,-0.14875
-0.32584,2.2751,-4.6091,6.0409,-0.26817,-1.014,-1.2535
-0.2587,3.0597,-4.2953,5.7663,-0.25931,-0.97647,-1.2327
-0.2081,3.4912,-4.2561,5.5898,-0.29841,-0.93554,-1.2013
-0.14203,3.8834,-3.6873,5.8055,-0.34575,-0.88178,-1.215
-0.088379,4.1972,-3.0401,6.237,-0.39462,-0.81489,-1.2297
-0.040985,4.8053,-2.1182,6.3939,-0.43066,-0.73304,-1.2593
-0.016327,5.2564,-1.824,6.6685,-0.43952,-0.64966,-1.2831
-0.0159,5.5898,-1.7456,6.9823,-0.41264,-0.56169,-1.274
-0.010895,5.7663,-1.471,7.1589,-0.18967,-0.45571,-0.81764
0.0024414,5.8252,-1.6671,7.4531,-0.0051924,-0.33598,-0.75045
-0.0041809,5.5702,-2.432,7.3942,0.1295,-0.22052,-1.1988
-0.0063477,5.4133,-3.0597,7.4727,0.18692,-0.12065,-1.1481
-0.0053101,5.7663,-3.7658,7.1589,0.1741,-0.047342,-1.0901
0.021515,5.6879,-3.6873,7.2961,0.10782,-0.0073304,-1.0165
0.062408,5.0602,-4.0011,7.3746,0.0094684,0.012828,-0.93707
0.11563,5.0406,-4.158,7.0216,-0.055589,0.034208,-0.87201
0.17072,4.6876,-4.0011,6.8254,0.31429,0.48167,0.02138
0.21933,4.8053,-3.2166,6.8058,0.36408,0.47373,0.011301
0.25174,4.5111,-2.2948,7.0608,0.40623,0.48289,0.080634
0.2572,4.3345,-1.6671,7.3158,0.46517,0.48197,0.088575
0.23141,4.4326,-1.5102,7.3746,0.50732,0.45937,0.088881
0.17657,4.5895,-2.0594,6.9235,0.5342,0.43097,0.072388
0.13443,5.1975,-3.0793,6.8058,0.26176,0.39492,0.06017
0.10736,5.1191,-3.3146,6.5312,0.26053,0.35949,0.04215
0.099396,4.8837,-3.0008,6.6097,-0.12981,0.3204,0.72021
0.094513,4.3345,-3.3146,6.4332,0.20006,0.47861,0.60384
0.091034,4.5111,-3.8638,6.5312,0.4948,0.60231,0.88575
0.092987,3.9423,-5.021,6.3547,0.697,0.70616,0.89858
0.1138,4.158,-6.3743,5.5898,0.80054,0.80237,0.87262
0.15463,4.3345,-6.2763,5.0406,0.77855,0.87384,0.84147
0.19116,3.5696,-6.0409,5.1779,0.62644,0.88178,0.83444
0.20117,3.4127,-5.5702,5.5702,0.4722,0.82528,0.80573
0.16516,2.2751,-5.884,6.845,0.8207,0.78313,0.2303
0.095337,1.3533,-6.9039,7.0019,1.0614,0.79443,0.1686
-0.018341,1.5298,-7.2961,6.6097,1.1936,0.86224,0.50671
-0.12274,1.5298,-6.1782,6.7077,1.1863,0.95203,0.44654
-0.25803,0.45111,-5.4525,7.3354,1.0993,1.0073,0.41844
-0.41965,0.11768,-5.276,7.7669,1.0174,0.99388,0.41722
-0.61563,0.35304,-5.1975,7.963,0.44043,0.93187,0.4047
-0.79984,0.41188,-4.9229,7.9434,0.56902,0.86712,0.32712
-0.96375,-0.019613,-4.0796,8.4337,0.98594,0.82375,0.12859
-0.99997,-0.27459,-4.2561,8.7868,0.98746,0.80695,0.099266
-0.99997,-0.13729,-4.7856,8.1591,0.91477,0.80084,0.13928
-0.99997,-0.17652,-4.7856,7.7473,0.7419,0.80298,0.13042
-0.99997,-0.39227,-4.3934,8.0022,0.5229,0.79199,0.12798
-0.99997,-0.21575,-4.0992,8.7083,0.35308,0.72785,0.14294
-0.99997,0.019613,-3.7265,9.1202,0.97036,0.62736,0.16493
-0.99997,0.13729,-3.3539,9.1986,0.96395,0.53634,0.15638
-0.99997,0.17652,-3.0008,8.9044,0.50824,0.2193,-0.15149
-0.99997,0.019613,-2.6086,9.2575,0.44257,0.18967,-0.14844
-0.99997,0.35304,-2.6086,9.8066,0.34911,0.17562,-0.11973
-0.99997,0.66685,-3.5696,10.101,0.2584,0.16432,-0.11118
-0.99997,1.216,-3.8638,9.3359,0.16249,0.14722,-0.1069
-0.99997,2.0202,-3.2362,7.7669,0.13897,0.1295,-0.091935
-0.99997,2.1771,-2.8243,6.8254,0.16096,0.094379,-0.099266
-0.99997,1.8437,-2.8243,7.8061,0.22327,0.064446,-0.11118
-0.99997,1.0199,-2.4713,9.0417,0.33323,0.0281,0.13836
-0.99997,0.74531,-2.3732,9.5321,0.30513,-0.011606,0.13195
-0.99997,0.60801,-2.5301,9.3163,0.18692,-0.064446,-0.11148
-0.99997,0.49033,-2.2751,9.4144,-0.032376,-0.12859,-0.071777
-0.99997,0.74531,-2.0594,9.2183,-0.33445,-0.19334,0.0042761
-0.99997,0.70608,-1.8829,9.1594,-0.65821,-0.25534,0.075747
-0.99997,0.41188,-2.432,8.2572,-0.90561,-0.3207,0.12523
-0.99997,-0.17652,-3.0597,9.3752,-1.0232,-0.37293,0.14325
-0.99997,0.098066,-2.3732,10.062,-1.0006,-0.3821,-0.01405
-0.99997,0.41188,-1.0199,10.062,-0.84758,-0.34056,-0.013744
-0.99207,0.41188,-0.41188,9.5321,-0.59712,-0.26878,0.12156
-0.90967,0.23536,-0.94144,8.5514,-0.29963,-0.16066,0.099571
-0.85901,0.2942,-1.726,7.7865,-0.038485,-0.027184,0.054672
-0.83279,0.49033,-2.8832,7.3746,0.14539,0.10599,0.0082467
-0.79831,0.60801,-4.158,7.4923,0.18601,0.19028,-0.026878
-0.75888,1.0199,-3.7069,8.2572,0.078496,0.19853,-0.034208
-0.70193,0.39227,-2.6086,9.1202,-0.13256,0.15455,0.15944
-0.66895,0.43149,-1.5691,9.3359,-0.38057,0.083994,0.17349
-0.67453,0.74531,-1.2749,9.179,-0.60476,0.011301,-0.0088575
-0.69778,0.90221,-1.6867,8.7083,-0.72235,-0.049786,0.010996
-0.73367,0.8826,-2.1182,8.7083,-0.70036,-0.087965,0.036652
-0.74103,0.86299,-2.2751,9.0025,-0.60109,-0.083689,0.061087
-0.70526,0.90221,-3.0008,9.1594,-0.48319,-0.058948,0.087048
-0.6199,0.54917,-2.9028,9.7478,-0.40073,-0.044288,0.12309
-0.51462,0.078453,-2.687,10.003,-0.25656,-0.12828,0.062308
-0.37991,0.49033,-2.942,9.0025,-0.21289,-0.099266,0.067806
-0.2316,0.49033,-3.6088,8.4729,-0.14386,-0.072388,-0.080329
-0.088501,0.41188,-3.6677,8.5514,-0.07025,-0.046426,-0.052534
0.042419,0.41188,-3.0793,8.8848,-0.0042761,-0.017104,-0.029932
0.14273,0.41188,-2.4713,8.9437,0.048258,0.018937,-0.016188
0.21744,0.66685,-2.1378,8.8064,0.061392,0.055894,0.0027489
0.25284,1.0591,-2.432,8.4141,0.028405,0.058338,0.036346
0.23984,0.54917,-2.7262,8.8652,-0.09163,0.031154,0.12187
0.20438,0.90221,-2.8243,9.0221,-0.12614,0.0054978,0.11393
0.13651,0.90221,-2.7459,8.8652,-0.17685,0.0012217,0.075442
0.055969,1.2749,-2.5105,8.5514,-0.21258,0.0045815,0.093157
-0.027802,1.5298,-2.2555,8.4926,-0.22052,-0.0082467,0.10843
-0.10034,1.3337,-2.432,8.5906,-0.1967,-0.020159,0.12523
-0.16901,1.0787,-2.9224,8.3357,-0.020159,-0.010996,0.13867
-0.22012,1.0395,-3.2362,7.9238,-0.065973,0.015272,0.13408
-0.26346,0.86299,-3.2362,7.9238,-0.057421,0.047342,0.019548
-0.30801,0.94144,-3.3931,7.8061,-0.059865,0.079107,0.014966
-0.33096,0.90221,-3.0597,7.9042,-0.088575,0.1069,0.10934
-0.35312,0.70608,-3.0401,7.9238,-0.11209,0.12523,0.10079
-0.3577,0.66685,-2.9028,8.0611,-0.10965,0.12156,0.09499
-0.37378,0.70608,-2.7459,8.1787,-0.086132,0.10965,0.08827
-0.39307,0.60801,-3.0989,8.1199,-0.14936,0.099876,0.061087
-0.41837,1.0395,-3.3146,8.0611,-0.09499,0.087354,0.031154
-0.43402,0.98067,-3.2362,8.218,-0.051924,0.078802,0.0067195
-0.45959,1.1964,-2.9812,8.7279,-0.033598,0.080634,-0.010996
-0.47992,0.92183,-3.0989,9.0221,-0.056505,0.079107,-0.038179
-0.46841,1.0787,-3.5304,9.1202,-0.082161,0.072998,-0.054062
-0.46411,0.80415,-3.4519,9.2183,-0.068417,0.092241,-0.047647
-0.45221,1.0395,-3.3931,8.7279,-0.018937,0.11545,-0.043982
-0.439,1.0787,-3.4519,8.1787,0.052229,0.12584,-0.041539
-0.44611,0.86299,-3.2558,7.9434,0.094379,0.12981,-0.041233
-0.46951,0.80415,-3.0793,8.1787,-0.24923,0.12492,-0.027184
-0.49597,0.74531,-3.5304,8.218,-0.33934,0.15699,-0.041233
-0.52444,0.90221,-2.9028,8.2572,-0.45845,0.16493,0.11362
-0.57166,0.72569,-2.9028,8.5514,-0.55833,0.135,0.10232
-0.61841,1.0199,-2.6086,8.4926,-0.58826,0.079718,0.091935
-0.6658,0.92183,-2.5105,8.2768,-0.52718,0.022297,0.069944
-0.69302,0.35304,-2.6282,9.2575,-0.38271,-0.0054978,0.034208
-0.69785,0.41188,-3.1381,10.415,-0.19395,0.013439,0.00061087
-0.68665,0.64724,-3.0008,9.2575,-0.013439,0.059865,0.0061087
-0.66037,0.39227,-2.6282,8.1787,0.11912,0.12492,0.019548
-0.61652,-1.2945,-4.4914,9.9636,0.18815,0.18357,-0.027794
-0.54041,0.98067,-3.9423,10.689,0.19517,0.22969,0.0054978
-0.48386,0.64724,-2.1967,10.219,0.16768,0.25595,0.0097738
-0.48846,1.0787,-1.2553,9.0613,0.13073,0.26939,-0.01741
-0.5578,1.1964,-1.5298,7.3158,0.12095,0.26114,-0.03207
-0.61438,1.3925,-2.3144,6.6097,0.14783,0.24038,-0.014355
-0.63193,1.6083,-3.0597,6.6685,0.18967,0.22297,0.021686
-0.58701,1.6867,-3.0401,7.1196,0.22633,0.20342,0.0082467
-0.49368,1.3729,-3.0989,7.7473,0.25962,0.1741,0.03207
-0.36673,1.3533,-3.3343,8.316,0.30665,0.13836,0.041233
-0.22382,0.98067,-3.6873,8.7475,0.35827,0.10965,0.044288
-0.073212,0.96105,-4.5699,8.7083,0.38759,0.091019,0.042761
0.083832,1.2945,-4.4522,8.2768,0.36805,0.081245,0.03543
0.21008,1.5298,-3.55,8.1199,0.29688,0.068417,0.028405
0.27905,1.1964,-3.1381,8.0807,-0.47586,-0.53267,0.093157
0.2847,1.1964,-2.7459,8.2572,-0.72693,-0.54611,0.11484
0.24109,0.8826,-2.9224,8.5514,-0.80909,-0.50427,-0.1011
0.18225,0.70608,-3.3931,8.8456,-0.72601,-0.41142,-0.091324
0.074707,0.49033,-3.6285,8.8064,-0.55711,-0.28619,-0.065363
-0.01239,0.41188,-3.8638,8.7083,-0.39401,-0.14661,-0.023213
-0.076233,0.49033,-3.6285,8.7475,-0.27,-0.019548,0.0082467
-0.15186,0.23536,-3.4127,8.8652,-0.2135,0.068722,0.044288
-0.21722,0.33343,-3.0793,8.3749,-0.1686,-0.043677,0.0073304
-0.285,0.35304,-2.8832,8.4141,-0.12095,0.0027489,0.014966
-0.36472,0.23536,-2.7459,8.4141,-0.068111,0.039095,0.010996
-0.40045,0.56879,-2.942,8.316,-0.054062,0.075136,-0.010385
-0.45184,0.98067,-3.3146,7.6296,-0.10293,0.12187,-0.033292
-0.49457,0.80415,-3.6677,7.7865,-0.18387,0.16585,-0.03146
-0.52585,0.49033,-3.2166,8.7083,-0.21289,0.18845,-0.0097738
-0.53577,0.66685,-3.0793,9.0025,-0.19578,0.18143,0.0030543
-0.55255,1.0395,-2.8832,8.7475,-0.35888,0.16738,-0.025656
-0.56052,1.0787,-2.7262,8.1003,-0.36255,0.16952,-0.043371
-0.56317,1.0199,-2.589,8.4926,-0.33109,0.19212,0.020464
-0.55579,0.5884,-2.6086,10.297,-0.26634,0.2135,0.026267
-0.5563,0.49033,-3.3931,10.199,-0.16829,0.22663,0.031154
-0.56058,0.41188,-3.6285,8.6887,-0.063225,0.2248,0.027794
-0.56659,0.098066,-4.7856,10.101,-0.25473,0.21838,0.016188
-0.58231,0.98067,-2.687,9.5713,-0.31673,0.21533,-0.0039706
-0.63025,0.41188,-2.1967,8.9044,0.03146,-0.069944,-0.083689
-0.70367,1.3533,-2.3732,7.4923,0.0088575,-0.093768,-0.14294
-0.79153,1.2945,-2.2948,7.3354,0.19028,-0.14142,0.11912
-0.86746,1.0591,-2.687,7.9434,0.3543,-0.20036,0.097128
-0.91281,1.3533,-3.0597,7.5511,0.35064,-0.21625,0.0012217
-0.90317,1.0787,-3.2166,7.6884,0.33567,-0.22571,-0.1689
-0.84805,1.0199,-3.3931,7.61,0.22694,-0.29841,-0.1689
-0.76843,0.90221,-3.0989,7.8649,0.018631,-0.4102,-0.058032
-0.67249,0.82376,-2.7655,8.0022,-0.13714,-0.46976,0.036957
-0.57263,0.74531,-2.687,8.1787,-0.078496,-0.43249,0.024435
-0.47028,1.1964,-2.9224,8.1003,-0.087659,-0.34239,-0.11698
-0.36832,1.2356,-3.3539,8.1787,-0.13317,-0.26481,-0.072388
-0.26624,1.0395,-3.7265,8.7475,-0.17593,-0.23121,-0.023824
-0.16287,0.74531,-3.9423,9.0613,-0.20556,-0.20159,0.018937
-0.063385,1.0395,-3.6285,9.0613,-0.15638,-0.15211,0.045204
0.021484,0.98067,-3.0989,9.1202,-0.20159,-0.09499,0.04612
0.081543,0.92183,-2.8439,8.7475,0.30207,0.20464,-0.025962
0.13113,0.72569,-3.1381,8.8652,0.23243,0.1912,-0.011606
0.17953,1.0591,-3.0989,8.5514,0.19853,0.17685,-0.13714
0.2077,0.90221,-3.197,8.3749,0.22663,0.17135,-0.13408
0.25476,0.98067,-2.942,8.1199,0.30879,0.18173,-0.13256
0.3009,0.80415,-3.0008,8.3357,0.34361,0.21075,-0.12339
0.35895,0.74531,-3.3735,8.4337,0.29871,0.22541,-0.080023
0.4165,0.64724,-3.4127,8.2572,0.25168,0.2306,-0.032681
0.4621,0.54917,-3.2558,8.218,0.84299,0.40073,-0.17226
0.46335,0.41188,-3.55,8.4141,0.92424,0.62858,-0.10629
0.39966,0.8826,-4.1384,8.218,0.39676,0.58735,0.08827
0.19391,1.4318,-3.6873,6.5312,-0.46517,0.044899,0.15882
-0.17151,-0.76492,-1.0003,11.846,-0.83078,-0.3769,0.13928
-0.6178,-2.4124,-3.0008,10.415,-0.57971,-0.40989,-0.018937
-0.93912,0.43149,-4.0796,8.5122,-0.19761,-0.27611,-0.11515
-0.99997,0.64724,-3.0793,8.0022,0.019242,-0.15485,-0.15302
-0.99997,0.039227,-2.0006,8.5514,0.0076358,-0.093157,-0.1744
-0.99997,0.35304,-2.4517,8.2572,-0.14142,-0.09163,-0.17685
-0.91202,1.0395,-3.197,7.8649,-0.28863,-0.13011,-0.023213
-0.72931,1.1768,-3.4127,8.2768,-0.33781,-0.17257,-0.0076358
-0.54257,1.2945,-3.6873,8.5318,-0.28344,-0.15913,-0.049786
-0.38788,1.1964,-3.6873,8.5514,-0.20067,-0.098044,-0.11057
-0.28159,1.5102,-3.6088,8.5514,-0.13958,-0.033598,-0.15821
-0.21625,1.5887,-3.1381,8.3945,-0.092546,0.017715,-0.17165
-0.18271,1.3533,-2.7459,8.2572,-0.037263,0.049786,-0.14844
-0.16931,0.92183,-2.7262,8.2376,0.045815,0.070555,-0.14294
-0.15872,0.70608,-2.9028,8.2572,0.15119,0.083383,-0.16677
-0.14365,0.41188,-2.5105,8.4337,0.25565,0.094684,-0.15211
-0.12173,0.70608,-2.5693,8.1003,0.33872,0.11423,-0.146
-0.12436,0.56879,-2.7262,8.1787,0.39645,0.13897,-0.14752
-0.13742,0.17652,-2.7459,9.0221,0.41356,0.17013,-0.14875
-0.19153,-0.43149,-2.7655,9.9439,0.3766,0.19578,-0.15027
-0.32626,-0.84337,-2.9224,8.0022,0.064141,0.080023,-0.11087
-0.47739,-1.7652,-2.7262,10.572,-0.12248,0.072693,-0.11545
-0.61902,-0.76492,-2.1967,11.219,-0.11148,0.061697,-0.064446
-0.75952,-0.11768,-1.9025,8.5514,-0.097738,0.047342,-0.063225
-0.853,0.56879,-2.3732,6.7666,-0.057421,0.02474,-0.067195
-0.9057,1.3337,-2.8832,6.9627,-0.0012217,0.0054978,-0.065363
-0.85983,1.6083,-2.9224,7.7669,0.033292,0.0042761,-0.059865
-0.72165,1.0395,-2.5105,8.6299,0.027184,0.019548,-0.073609
-0.54733,0.8826,-2.2948,9.1006,0.20097,-0.040928,-0.10904
-0.33572,0.5884,-2.8243,9.3163,-0.13561,-0.2303,-0.1014
-0.12057,0.35304,-3.3931,9.6694,-0.29474,-0.28314,-0.039401
0.026917,0.86299,-3.6873,8.7083,-0.3259,-0.25259,-0.068111
0.0014038,1.4514,-3.4519,4.7856,-0.33964,-0.22724,-0.050702
-0.10437,-1.1572,-2.8243,9.5125,-0.3207,-0.21686,-0.030543
-0.24521,-1.2945,-2.5105,11.944,-0.22846,-0.18082,-0.054062
-0.41238,0.098066,-2.4124,9.4928,-0.1066,-0.1182,-0.085216
-0.5694,0.2942,-2.3536,7.4923,0.11362,-0.021075,-0.012523
-0.72336,0.098066,-2.4517,7.2373,-0.015272,0.038485,0.00030543
-0.81387,0.56879,-2.9224,7.61,-0.14019,0.029322,-0.039706
-0.81216,0.43149,-2.4517,8.4926,-0.2025,-0.02138,-0.0027489
-0.7467,0.41188,-2.0006,9.3555,-0.18998,-0.06689,0.0009163
-0.62524,0.86299,-2.432,8.9437,-0.13256,-0.089492,-0.0058032
-0.47202,1.3533,-2.6086,8.316,0.066279,-0.07758,-0.011606
-0.28964,1.5298,-3.0401,8.2376,0.16127,-0.036041,-0.017104
-0.12277,1.1964,-3.1381,8.4729,0.032681,0.009163,-0.045815
0.010468,1.1768,-3.0401,9.0025,0.059865,0.041233,-0.057421
0.11166,1.3533,-3.0597,8.6299,0.047647,0.063835,0.0076358
0.17816,1.2356,-3.197,8.218,-0.0061087,0.080023,0.0073304
0.25305,1.1964,-3.2362,9.0417,-0.072998,0.083078,0.0048869
0.30981,1.0787,-3.4716,9.6694,-0.11515,0.081856,0.0033598
0.38928,1.118,-3.6873,9.6694,-0.07086,0.083383,-0.0064141
0.42978,1.118,-3.2166,8.316,-0.014966,0.082161,-0.027489
0.43942,0.41188,-2.7262,8.0807,0.0009163,0.087048,0.17074
0.41635,-0.70608,-2.3536,9.8851,0.0048869,0.065363,0.13592
0.35181,-0.05884,-1.7456,9.3163,0.020769,0.044593,0.15241
0.23578,0.45111,-2.1378,8.1199,0.060781,0.027184,0.13836
0.093323,0.5884,-3.2362,7.6492,0.071777,0.0082467,0.13347
-0.012512,0.8826,-3.5696,8.1787,0.0088575,0.0051924,0.16188
-0.063721,0.8826,-2.8243,8.218,0,0.078802,0.18815
-0.082825,0.54917,-2.6086,8.3945,0.16371,0.23091,0.18112
-0.065765,0.86299,-2.8243,8.2376,0.082467,0.1909,-0.088575
-0.029755,0.74531,-2.5693,8.218,0.054367,0.044288,-0.11576
0.014252,0.64724,-2.432,8.1787,-0.049175,-0.081551,0.032987
0.060822,0.64724,-2.432,8.316,-0.208,-0.18326,-0.010996
0.11591,0.45111,-2.6086,8.3945,-0.3262,-0.24801,-0.066279
0.18005,0.49033,-2.8243,8.9044,-0.35369,-0.28802,-0.10843
0.246,0.35304,-3.0793,9.7282,-0.29077,-0.31124,-0.089492
0.28406,1.0199,-3.1381,9.434,-0.20678,-0.31154,-0.067195
0.19586,1.6083,-3.2558,7.2765,-0.12675,-0.28222,-0.033292
0.039764,0.56879,-3.0008,8.8652,0.0030543,-0.2193,-0.021991
-0.098175,-0.50995,-3.9423,10.689,0.12584,-0.12004,-0.12859
-0.23013,1.118,-3.5108,10.768,0.18815,-0.018021,-0.11393
-0.32346,1.1964,-2.7459,8.7083,0.17135,0.050091,-0.084299
-0.38037,1.2945,-2.8243,7.61,0.090713,0.07025,-0.059254
-0.39807,1.7456,-3.1381,7.7669,0.0018326,0.04948,-0.044899
-0.34964,1.6475,-3.3146,8.0807,-0.048258,0.012523,-0.041844
-0.26996,1.4514,-2.8243,8.5318,-0.037874,-0.0015272,-0.042455
-0.16638,0.90221,-2.2948,8.7279,0.0051924,0.017104,-0.047342
-0.10666,0.86299,-2.4517,8.7083,0.030238,0.052534,-0.02138
-0.080627,0.8826,-2.6086,8.4141,0.013439,0.086132,-0.022297
-0.084625,0.70608,-2.8047,8.5514,-0.039095,0.11393,-0.018021
-0.10205,0.56879,-2.7459,8.0807,-0.08094,0.13164,-0.019853
-0.12234,0.27459,-2.942,8.0022,-0.062614,0.13378,-0.026878
-0.14166,0.39227,-3.2166,9.3555,0.016799,0.13011,-0.03543
-0.14374,0.45111,-2.9028,9.5125,-0.38851,-0.083994,-0.24038
-0.12039,0.35304,-2.3144,9.3359,-0.59529,-0.15455,-0.25137
-0.085632,0.80415,-2.3732,8.5514,-0.6857,-0.20097,-0.086743
-0.058472,0.98067,-2.5693,8.1591,-0.59529,-0.20678,-0.097433
-0.0029297,0.98067,-3.197,8.0022,-0.30604,-0.19151,-0.10599
0.085297,1.2945,-3.0008,8.316,0.071471,-0.14386,-0.12462
0.18555,1.118,-2.7459,8.4926,0.21411,-0.036041,-0.1686
0.27426,1.0591,-2.8243,8.2572,-0.097738,0.12767,-0.21258
0.34915,1.0199,-3.2166,8.0611,0.60384,0.28253,-0.19181
0.40512,0.80415,-3.4127,8.5318,0.46853,0.36621,-0.12523
0.45264,0.90221,-3.3931,8.9437,0.33903,0.37232,-0.23579
0.49127,0.74531,-2.8832,9.179,0.29719,0.3372,-0.21747
0.47916,0.60801,-3.0597,9.4928,0.35339,0.31826,-0.23091
0.40417,1.0591,-3.0008,9.0025,0.43768,0.33323,-0.25198
0.25809,1.4906,-3.3146,8.2572,0.41264,0.38698,-0.25381
0.099426,1.1376,-3.3146,9.8066,0.60689,0.45051,-0.23702
-0.06189,1.1964,-2.2555,10.297,0.58185,0.4893,0.10476
-0.21744,1.5495,-1.1768,8.8652,0.57391,0.50763,0.04948
-0.3566,1.824,-1.6279,7.5903,0.59284,0.48045,-0.025962
-0.46384,1.7456,-3.2362,6.9039,0.38607,0.44074,0.070555
-0.52661,1.9221,-4.158,7.5511,0.053145,0.42852,0.13928
-0.53012,1.1768,-3.3931,9.1202,-0.27703,0.27122,0.22663
-0.49185,1.0395,-3.0793,9.179,0.51801,0.029932,0.2584
-0.43964,0.92183,-2.9028,8.0611,0.59132,-0.17929,0.16524
-0.39056,0.54917,-2.4517,7.6884,0.15027,0.083689,-0.083078
-0.37143,0.098066,-1.6475,8.3945,0.13592,0.057727,-0.074526
-0.44638,-0.80415,-1.2553,8.8064,0.16463,0.030849,-0.016799
-0.58264,-1.7652,-1.216,8.2572,0.20678,-0.0027489,0.010996
-0.71777,-2.8832,-1.9809,11.219,0.27245,-0.012828,0.023213
-0.83414,-1.4514,-2.6674,10.454,0.34758,0.0018326,-0.012217
-0.94293,-0.13729,-2.3144,7.4727,0.40348,-0.0088575,-0.033292
-0.99997,-0.078453,-1.824,6.6685,0.40592,-0.029627,-0.058338
-0.99997,0.35304,-2.7459,8.4141,-0.13928,-0.12706,0.37874
-0.99997,0.8826,-2.5105,9.6301,-0.040623,-0.012523,0.24312
-0.99997,0.49033,-1.7848,9.9636,0.040012,0.098655,0.014966
-0.99997,1.0395,-1.5691,9.8066,0.15852,0.21655,0.080023
-0.99997,1.0591,-1.6475,9.5125,0.35919,0.3989,0.15821
-0.99997,1.1376,-1.824,8.7083,0.50152,0.6298,0.2364
-0.99997,1.3533,-2.0594,7.9434,0.21961,0.71257,0.30146
-0.99997,0.90221,-2.9028,8.8064,-0.5904,0.31429,0.34483
-0.97784,1.1376,-3.5108,8.6495,-1.4438,-0.28253,-0.026573
-0.8587,1.1964,-2.9028,8.6299,-1.0455,-0.52779,-0.070555
-0.71512,0.90221,-2.7655,9.3359,-0.39554,-0.40867,0.0067195
-0.59216,1.216,-2.3144,8.5514,0.13011,-0.16707,-0.15974
-0.48822,0.35304,-3.5304,8.7083,0.30971,0.0082467,-0.21166
-0.38895,0.098066,-4.2953,10.12,0.10599,0.05284,-0.14844
-0.29532,0.35304,-2.9028,10.591,-0.26053,-0.034819,-0.043371
-0.2453,0.41188,-1.8829,9.6694,-0.5061,-0.17349,-0.0024435
-0.2619,0.86299,-1.5691,8.1591,-0.029932,0.086132,-0.10721
-0.31802,1.4906,-1.5102,8.0022,-0.1912,0.081856,-0.075136
-0.39328,1.1768,-2.2555,8.316,-0.22052,0.040928,0.13347
-0.44321,0.90221,-3.2558,8.5514,-0.035736,0.0033598,0.16157
-0.49451,1.7652,-2.5693,7.1589,0.25809,0.0045815,0.15088
-0.56699,1.6083,-1.5887,5.9821,0.47953,0.010996,0.058643
-0.65628,0.39227,-0.70608,6.5312,0.51068,-0.010385,-0.062308
-0.80948,-3.6481,-0.43149,12.709,0.3769,-0.073915,-0.1182
-0.94891,-2.1575,-4.5699,9.3359,0.14752,-0.17013,-0.033598
-0.97388,1.3533,-5.3937,8.0022,-0.077885,-0.28314,-0.0076358
-0.84717,0.17652,-3.6873,8.7083,-0.18998,-0.34941,-0.10201
-0.61288,0.2942,-2.1967,9.8066,-0.16493,-0.30788,-0.146
-0.36017,0.72569,-2.5301,8.9437,-0.18662,-0.2474,-0.1518
-0.085327,1.1964,-2.7459,8.0807,-0.32101,-0.24465,-0.1066
0.19308,1.9025,-2.5105,7.9434,-0.37415,-0.23793,-0.10018
0.44333,1.6867,-2.6086,8.7868,-0.27306,-0.20281,-0.087354
0.65173,1.3925,-2.7851,9.434,-0.0082467,-0.084299,-0.058338
0.80679,1.2945,-3.2558,9.2575,0.099266,-0.061087,-0.058032
0.90347,1.7064,-3.2166,8.1003,0.19731,-0.0076358,-0.043677
0.94482,1.1964,-3.0401,7.7669,0.21014,0.055283,-0.065668
0.97998,0.54917,-2.8243,8.9437,0.12889,0.10446,-0.06353
1,0.35304,-3.1381,9.2575,0.018021,0.11912,-0.044593
1,0.90221,-3.4519,8.6299,-0.14844,0.094684,-0.030849
1,0.98067,-3.0793,8.0807,-0.083689,0.05284,-0.041233
1,0.80415,-2.5301,8.1199,-0.092852,0.025351,-0.039401
1,0.43149,-2.5693,8.4141,-0.060476,0.014661,-0.040012
0.99481,0.66685,-2.7851,8.7475,-0.036346,0.012217,-0.051924
0.94162,0.66685,-2.6674,8.7868,-0.022297,0.02138,-0.045509
0.87848,0.8826,-2.9812,8.8064,0.0061087,0.045509,-0.049786
0.82983,0.80415,-3.0008,8.2376,0.027489,0.064446,-0.060476
0.80072,0.92183,-2.942,8.316,-0.064446,0.085521,-0.065363
0.73502,0.90221,-2.8243,8.1787,-0.10018,0.10385,-0.055589
0.6908,0.98067,-2.8832,8.4729,-0.13195,-0.00061087,-0.053451
0.65228,1.118,-3.2362,8.5514,-0.10568,0.029932,-0.048564
0.64206,1.2945,-3.3146,8.6299,-0.096517,0.060476,0.011912
0.64349,1.1768,-2.7262,8.9044,-0.091324,0.069944,0.0088575
0.6492,0.98067,-2.4713,8.5906,-0.081551,0.072388,0.0027489
0.66214,0.56879,-2.6086,8.8456,-0.069028,0.073915,-0.0079412
0.68671,0.27459,-3.3735,9.1006,-0.041539,0.080023,-0.021991
0.70963,1.0395,-3.9423,8.6299,0.0061087,0.090408,-0.041233
0.73755,0.92183,-3.6285,8.0611,0.12095,0.10721,0.0048869
0.74295,0.5884,-2.7851,8.4926,0.043371,0.13103,-0.011301
0.72821,0.35304,-2.5105,8.5514,-0.057421,0.14722,-0.029322
0.66718,0.49033,-2.6086,8.7083,-0.13714,0.14111,-0.009163
0.59851,0.54917,-2.8243,8.6299,-0.1854,0.1069,0.0094684
0.52051,0.72569,-2.7459,8.5318,-0.1912,0.051618,0.02474
0.46548,0.72569,-2.7459,8.5318,0.076053,-0.0076358,0.020464
0.40939,0.8826,-2.9224,8.4926,0.13103,-0.062308,0.0085521
0.35284,0.70608,-3.2362,8.7475,0.58521,0.30635,-0.12523
0.32196,0.27459,-3.3146,9.3359,0.5959,0.38943,-0.11942
0.29251,0.56879,-2.8243,9.1986,0.61056,0.47098,-0.20892
0.26996,0.82376,-2.9028,8.8456,0.61361,0.52229,-0.20159
0.26178,0.90221,-2.687,8.4926,0.61514,0.55528,-0.18112
0.25098,0.8826,-2.3732,8.2572,0.61209,0.56108,-0.15608
0.23642,0.70608,-2.4517,8.4141,0.59346,0.55314,-0.13653
0.22278,0.56879,-2.687,8.6887,0.60445,0.53451,-0.12584
0.21063,0.5884,-3.0401,9.4144,0.36621,-0.013134,0.019242
0.20447,0.45111,-3.3735,9.9636,0.24709,-0.099266,0.057116
0.19751,0.76492,-3.4127,8.6495,0.0024435,-0.20525,-0.13134
0.16251,0.90221,-3.3146,8.0022,-0.28711,-0.29322,-0.11576
0.10382,-0.039227,-3.197,9.2183,-0.54947,-0.35949,-0.086437
0.010132,0.33343,-2.3144,10.003,-0.7138,-0.37904,-0.075442
-0.11432,0.66685,-1.4906,8.8652,-0.75442,-0.34911,-0.050702
-0.22079,1.3533,-1.8829,7.5511,-0.69272,-0.28711,-0.016493
-0.29947,1.4906,-2.432,7.0608,-0.55222,-0.21686,-0.037263
-0.33334,1.6475,-3.0793,7.61,-0.53756,-0.1628,-0.071471
-0.30301,1.5298,-3.7658,8.2768,-0.59071,-0.11393,0.082161
-0.25174,1.2356,-3.5108,8.4337,-0.67775,-0.069028,0.10018
-0.10449,0.80415,-4.158,8.4141,-0.79443,-0.051313,0.1069
0.062531,1.0591,-4.7072,7.9434,-0.84483,-0.075747,0.11026
0.25726,1.2945,-4.6484,7.6492,-0.7532,-0.11087,0.093768
0.41321,1.118,-4.0207,7.9434,-0.52534,-0.11209,0.029627
0.4808,0.80415,-2.9028,8.3357,-0.20861,-0.078802,-0.14508
0.45029,0.74531,-2.7262,8.2572,0.13408,-0.0097738,-0.19273
0.35159,1.118,-2.432,8.1003,0.43616,0.079412,-0.088881
0.20251,0.82376,-2.2751,7.9434,0.63774,0.17074,-0.099266
0.031494,0.66685,-2.0006,8.1787,0.71593,0.24099,-0.093768
-0.11758,0.17652,-2.6086,8.8652,0.69669,0.27245,-0.089797
-0.22989,0.17652,-3.0793,8.8652,0.63805,0.27122,-0.085521
-0.27115,0.039227,-3.0008,8.8652,0.59743,0.27,-0.097433
-0.23532,-0.05884,-2.5105,9.179,0.068417,-0.12706,-0.048564
-0.13559,-0.39227,-2.1378,9.434,0.16432,-0.12462,-0.043982
0.0055542,-0.39227,-2.4517,8.9437,0.19945,-0.13103,-0.019853
0.13214,0.2942,-2.432,8.6887,0.17257,-0.16402,-0.023518
0.25455,0.27459,-2.0594,8.8456,0.11087,-0.19456,-0.0054978
0.34677,-0.05884,-2.5105,9.8066,0.012828,-0.22052,-0.0030543
0.38437,0.45111,-2.7262,9.3359,-0.059254,-0.24374,-0.015882
0.31082,0.74531,-1.9809,7.9042,-0.030849,-0.22571,-0.033292
0.19815,-0.27459,-1.8829,9.2575,0.063225,-0.18845,0.016493
0.10077,0.25497,-2.9812,9.3359,0.13042,-0.17074,0.0009163
0.016418,0.90221,-3.3931,8.9437,0.13989,-0.18509,-0.023824
0.0050354,0.66685,-3.197,8.8064,0.15394,-0.18998,-0.015272
0.073456,0.56879,-2.432,9.4144,0.23549,-0.15913,-0.025962
0.1907,0.56879,-2.432,9.5125,0.3375,-0.11759,-0.022297
0.31973,1.0395,-3.0008,9.3163,0.40653,-0.092546,-0.0012217
0.43658,0.2942,-3.0989,9.0613,0.41172,-0.11118,0.009163
0.54645,0.54917,-2.6086,8.7475,0.24771,-0.15088,-0.050702
0.60318,0.45111,-2.6086,8.4141,0.30513,-0.1347,-0.05681
0.62997,0.43149,-2.5105,8.6887,0.29566,-0.0027489,0.0033598
0.61047,0.17652,-2.0594,9.3359,0.27917,0.1799,0.068417
0.47076,0.72569,-2.0594,8.9437,0.20006,0.20831,0.15455
0.22559,1.6867,-1.4906,6.0801,0.05284,0.12156,0.16493
-0.080353,0.41188,-0.94144,7.7865,0.33414,-0.018021,0.093768
-0.34891,-0.70608,-2.1967,10.591,0.24465,-0.14325,0.024129
-0.54495,0.80415,-2.432,11.062,-0.2645,-0.20556,-0.00030543
-0.69293,0.72569,-1.8044,9.9636,-0.46945,-0.23579,0.0045815
-0.78503,1.0199,-1.0199,8.3945,-0.6692,-0.26573,-0.0018326
-0.82889,0.8826,-1.6867,7.8649,-0.72846,-0.29108,0.040623
-0.82181,0.90221,-2.8243,8.218,-0.59498,-0.31734,0.058338
-0.73889,1.118,-2.9812,8.7475,-0.3824,-0.34544,0.073304
-0.58017,0.98067,-2.432,9.0613,-0.057116,-0.31337,0.078802
-0.41544,1.0787,-2.2751,8.9437,-0.13867,-0.23885,0.036957
-0.2363,1.3533,-2.1967,8.4926,1.0171,0.38973,0.055589
-0.053223,1.4318,-2.5693,8.3945,1.0113,0.40714,0.039706
0.089844,1.4514,-2.1575,8.2572,0.94409,0.42119,-0.12889
0.19485,0.80415,-2.2751,8.9044,0.81123,0.42272,-0.07758
0.25043,0.80415,-2.3732,8.9437,0.66768,0.40134,-0.036652
0.30118,0.66685,-2.2751,9.1202,0.5959,0.37385,-0.019853
0.34729,0.098066,-2.1967,9.434,0.57635,0.34911,-0.007025
0.40411,0.098066,-3.6873,8.8652,0.55375,0.32651,0.037874
0.48627,0.76492,-4.4914,7.6884,0.52351,0.2926,-0.025351
0.5694,0.90221,-4.9426,7.2373,0.47403,0.25473,-0.032987
0.64734,1.2749,-4.4718,7.6296,0.39798,0.20861,0.034514
0.71017,1.1768,-3.6677,8.4926,0.32406,0.14142,0.033903
0.72217,0.8826,-3.0989,8.8064,0.28924,0.085827,0.030543
0.70099,0.82376,-2.8243,8.5514,0.281,0.069639,0.010385
0.65656,1.0395,-2.6282,8.2768,0.26939,0.07086,-0.017104
0.60669,0.80415,-2.2751,8.2768,0.24587,0.067501,-0.022297
0.55408,0.86299,-2.0006,8.316,0.16188,0.065057,-0.11484
0.49216,0.60801,-2.2751,8.1591,0.090713,0.056505,-0.10721
0.45691,0.13729,-2.942,8.9437,0.030238,0.042761,-0.029322
0.45547,0.2942,-3.1381,9.179,0.055894,0.0281,-0.024435
0.44934,0.23536,-3.0793,9.179,0.19426,0.035125,-0.050396
0.4812,0.49033,-3.0989,8.5514,0.39584,0.087659,-0.0956
0.5076,0.74531,-2.9028,8.3749,0.5623,0.16829,-0.12156
0.548,0.66685,-2.7459,8.4141,0.62766,0.24435,-0.12584
0.59836,0.74531,-2.4909,8.6299,0.50213,0.28833,-0.091019
0.64529,0.80415,-2.942,8.3749,0.62156,0.2978,-0.033598
0.67831,0.76492,-3.1381,8.4141,0.56077,0.28802,-0.11698
0.6904,0.90221,-2.6086,8.5514,0.48075,0.27947,-0.14416
0.69986,0.41188,-1.8829,8.4337,0.4444,0.28711,-0.17715
0.68259,0.5884,-1.8829,8.4337,0.50488,0.31337,-0.19731
0.63968,0.23536,-1.824,9.179,0.63255,0.32101,-0.19212
0.59995,-0.019613,-1.6279,9.9636,0.66279,0.28558,-0.1518
0.44144,0.098066,-1.3729,8.8848,-0.36408,0.0012217,0.084299
0.23517,-0.23536,-1.7456,9.7478,-0.074831,0.011301,0.066584
0.019257,-0.27459,-1.3533,10.513,0.33872,0.096822,0.028405
-0.19107,-0.039227,-1.1572,10.748,0.71593,0.20892,-0.0067195
-0.41272,0.098066,-1.0199,10.003,0.83444,0.26573,0.012828
-0.60873,-0.21575,-1.216,9.8459,0.63835,0.2364,0.063225
-0.77441,-0.45111,-2.1575,9.5713,0.22938,0.11942,0.083994
-0.86215,0.27459,-2.9812,9.5909,-0.18784,-0.027184,0.074831
-0.8645,0.90221,-2.1967,8.9437,-0.71166,-0.12767,0.1347
-0.82712,0.27459,-0.72569,9.5321,-0.59407,-0.15577,0.097433
-0.79547,0.35304,-0.56879,8.5514,-0.3992,-0.12645,0.022297
-0.77972,0.72569,-2.0594,6.2959,-0.16188,-0.058948,0.023518
-0.75562,1.5298,-2.7655,5.7467,0.048869,0.024129,0.04612
-0.69269,1.7064,-2.5105,7.6884,0.17471,0.12645,0.053756
-0.62051,0.8826,-2.0594,10.356,-0.51496,0.23152,0.080023
-0.51669,0.98067,-1.0395,10.532,-0.70005,0.32193,0.12737
-0.45889,1.4906,-0.62763,9.1594,0.1631,0.35339,-0.15272
-0.42715,1.4906,-1.0591,7.1785,0.29871,0.33445,-0.19456
-0.41217,0.90221,-2.9812,8.4337,0.43371,0.33414,0.040317
-0.36731,1.2749,-2.7459,9.9636,0.27397,0.36835,0.037874
-0.30365,1.3533,-1.3533,10.827,-0.013134,0.43494,0.079718
-0.29218,0.90221,-0.23536,10.16,-0.23396,0.25626,0.096822
-0.32602,1.1768,-0.84337,9.0221,0.13958,-0.061392,0.099571
-0.38535,1.3925,-1.8044,8.8456,0.086437,-0.30482,-0.029322
-0.42691,1.0395,-2.589,8.2572,-0.12981,0.15791,0.083383
-0.45456,0.80415,-2.5105,7.7865,0.1295,0.24251,0.071777
-0.46729,0.5884,-2.7655,8.1003,0.20586,0.22907,-0.10568
-0.49033,0.27459,-3.0793,9.5125,0.12828,0.16127,-0.049175
-0.56656,-0.39227,-2.4713,7.61,-0.053451,0.071166,-0.028405
-0.68597,-3.0204,-2.0594,11.042,-0.29108,-0.024129,0.0076358
-0.79678,-1.471,-2.2163,12.337,-0.47953,-0.061087,0.051313
-0.86673,1.118,-1.5887,9.8851,-0.51496,-0.018326,0.073915
-0.91971,0.27459,-0.8826,7.9042,0.30971,0.085216,-0.17929
-0.94403,0.35304,-0.49033,7.3746,0.011301,-0.083078,-0.15119
-0.91916,0.74531,-1.6475,7.7865,-0.25137,-0.24618,-0.1179
-0.83154,1.118,-2.432,9.1594,-0.42516,-0.35736,-0.15485
-0.66934,1.1964,-2.6086,9.6694,-0.50335,-0.40348,-0.16829
-0.49646,1.4318,-2.2555,7.61,-0.47709,-0.43097,-0.15485
-0.42508,1.3533,-1.2749,6.4528,-0.3375,-0.43188,-0.14539
-0.48337,-1.6867,0.52956,11.944,-0.13042,-0.38729,-0.16921
-0.5827,-1.2945,-3.2362,9.3359,0.038485,-0.31154,-0.04215
-0.5654,1.4906,-4.7856,8.2572,0.11362,-0.25137,-0.036041
-0.3165,1.2749,-3.2558,8.4337,0.090103,-0.22816,-0.1182
0.03421,0.23536,-1.2749,9.5713,0.0076358,-0.22297,-0.079412
0.37173,0.49033,-2.1967,8.6299,-0.07422,-0.22235,-0.044593
0.67484,1.5495,-3.5304,7.61,-0.12828,-0.21625,-0.044899
0.94257,1.4318,-3.5696,7.6884,-0.17898,-0.18845,-0.051007
1,1.5495,-3.2558,8.4337,-0.23427,-0.14813,-0.047953
1,1.0199,-3.1577,8.4141,-0.93493,-0.38882,0.24068
1,0.49033,-3.6285,8.6887,-0.90378,-0.43463,0.24954
1,0.80415,-4.2953,8.316,-0.66126,-0.36194,0.2248
1,0.39227,-4.0796,8.4141,-0.3598,-0.25717,0.19303
1,-0.84337,-3.6285,9.9832,-0.10996,-0.15516,0.20189
1,-0.37265,-2.5105,10.591,0.033903,-0.073609,0.23793
0.87149,0.098066,-2.1967,9.6301,0.071166,-0.013744,0.25809
0.62225,0.5884,-2.8243,8.316,0.05681,0.029016,0.24557
0.39371,0.98067,-3.6873,8.1003,0.067806,0.064752,-0.007025
0.23337,1.3337,-3.6677,8.0807,0.12217,0.079412,-0.061087
0.13297,0.80415,-2.7459,8.1199,0.24282,0.093768,0.24038
0.062225,0.80415,-2.2751,8.218,0.43585,0.15913,0.19334
0.01828,0.90221,-2.2948,7.9238,0.56139,0.25595,0.13867
0.026489,1.3337,-2.432,7.7473,0.61453,0.2981,0.10507
0.076599,1.4906,-2.2751,7.5903,0.65668,0.27,0.07422
0.13626,1.3533,-2.5105,7.7865,0.6411,0.20556,0.037568
0.2196,0.90221,-3.0597,8.5514,-0.36041,-0.11209,0.041844
0.30725,1.118,-3.4127,8.8848,-0.30543,-0.1237,0.034514
0.37601,1.118,-2.9224,9.3359,-0.23366,-0.13011,-0.010996
0.42731,0.66685,-2.687,9.6694,-0.18601,-0.13256,-0.024435
0.44772,1.0199,-2.8832,9.5125,-0.17074,-0.1237,-0.023518
0.48642,1.3533,-3.2362,8.8652,-0.15211,-0.11515,-0.0033598
0.53641,1.824,-3.4716,8.6299,-0.37354,-0.13164,0.018326
0.56531,1.5102,-3.3146,8.6299,-0.37477,-0.17715,0.034819
0.60583,1.0591,-2.942,8.8652,-0.19028,-0.016799,-0.036957
0.6423,1.118,-2.9224,8.5318,-0.21319,-0.013439,-0.046731
0.66718,1.3337,-2.9224,7.7473,-0.20831,-0.0061087,-0.067195
0.68396,0.90221,-2.7262,7.61,-0.19578,0.013134,-0.06017
0.71475,0.86299,-3.0401,7.963,-0.18418,0.035125,-0.057116
0.74768,1.118,-3.0793,8.0807,-0.16829,0.054672,-0.051924
0.7814,1.0199,-3.197,8.2768,-0.14111,0.074526,-0.040317
0.82578,1.4514,-3.0597,8.2572,-0.10812,0.097738,-0.031154
0.87656,1.216,-2.7262,8.2768,-0.082772,0.12492,0.034819
0.92276,0.90221,-2.6282,8.7083,-0.085216,0.14997,0.018326
0.94373,0.92183,-3.3539,8.9044,-0.12431,0.16157,-0.037874
0.95621,0.90221,-3.8834,9.0417,-0.18509,0.15333,-0.010385
0.97003,0.74531,-3.3539,9.3359,-0.23396,0.1295,0.015882
0.95575,1.0591,-2.942,9.1986,-0.24038,0.10232,0.025962
0.93488,1.3533,-2.687,8.8064,-0.2135,0.079718,0.036957
0.90613,0.92183,-2.9028,8.8064,-0.1689,0.059559,0.050702
0.86899,0.98067,-3.5304,8.6299,-0.080329,0.039706,-0.0045815
0.82083,1.118,-3.5304,8.3945,-0.13164,0.015882,-0.0054978
0.75439,1.118,-3.4716,8.4141,-0.19884,-0.012523,0.027794
0.70886,1.216,-3.295,8.8456,-0.26206,-0.029627,0.028405
0.65549,0.98067,-3.4716,8.7475,-0.31765,-0.044288,0.0097738
0.52301,0.5884,-4.0992,8.4926,-0.35827,-0.064752,0.0018326
0.35013,1.0199,-3.8442,8.6299,-0.1124,-0.08491,0
0.15356,1.216,-2.687,8.5514,-0.07086,-0.099266,-0.00030543
-0.041107,1.2749,-2.5105,8.2572,-0.09499,0.12095,0.13958
-0.19598,1.2356,-3.4127,8.1003,0.062308,0.15027,0.18143
-0.32544,1.7456,-3.3931,7.7865,0.18265,0.16646,0.04612
-0.3952,1.5298,-3.5304,7.7669,0.22113,0.18295,0.049175
-0.43829,1.7456,-3.6285,7.6884,0.19578,0.18234,0.067195
-0.44635,1.6867,-3.4519,7.6296,0.16341,0.15272,0.09163
-0.44574,1.4318,-3.3931,7.7865,0.16677,0.1124,0.10507
-0.43216,1.3925,-3.8442,8.3357,0.18143,0.090713,0.12004
-0.41068,1.7456,-4.0796,8.7279,0.12095,-0.019548,-0.011606
-0.39267,2.1378,-3.8638,9.1202,0.080634,0.00061087,-0.021991
-0.3905,2.1771,-3.3146,9.1202,0.021075,0.043066,-0.015577
-0.40002,1.8044,-2.9028,8.5514,-0.083994,0.0956,-0.0048869
-0.41135,1.5298,-3.0008,8.5514,-0.22297,0.12584,0.023824
-0.41574,1.6083,-3.2362,8.5514,-0.33598,0.13989,0.028711
-0.4165,1.7456,-3.2166,8.0807,-0.3711,0.146,0.0051924
-0.42307,1.6475,-2.8439,7.7865,-0.34911,0.1463,-0.0033598
-0.41928,1.2945,-2.7459,7.1785,-0.34483,0.12981,0.022297
-0.39197,0.8826,-2.9224,7.2373,-0.39737,0.099571,-0.0094684
-0.34561,0.70608,-3.3931,8.2376,-0.4835,0.073304,-0.031154
-0.23459,0.92183,-3.6873,9.1006,-0.6072,0.059559,-0.039401
-0.10666,0.90221,-3.5304,9.1006,-0.78741,0.054062,-0.042455
0.046265,1.1376,-2.687,9.0417,-1.0088,0.029016,-0.037874
0.1832,0.80415,-3.2362,8.7279,-1.1695,-0.064752,-0.017715
0.33215,1.3533,-3.7069,8.218,-1.2171,-0.18692,0.013439
0.49329,1.4906,-4.0011,7.9042,-1.1551,-0.25809,0.079412
0.65894,1.216,-3.9423,7.6492,-1.0049,-0.26298,0.053756
0.82706,1.216,-3.8638,6.845,-0.8262,-0.22022,-0.026878
0.97977,0.98067,-4.1384,7.1589,-0.68692,-0.14783,0.0067195
1,1.1964,-4.3345,8.1003,-0.61667,-0.07758,0.059254
1,1.2749,-3.9227,8.5318,-0.54611,-0.013744,0.10049
1,1.118,-3.8246,8.4141,-0.43982,0.055894,0.11209
1,1.3533,-3.6285,8.4141,-0.27886,0.0956,0.1014
1,0.72569,-4.0207,8.6299,0.0045815,-0.070555,0.11179
1,0.86299,-4.5699,8.5318,-0.03879,-0.058948,0.12004
1,1.4514,-5.021,7.9238,-0.069028,-0.036041,0.050091
1,1.5102,-5.021,7.9434,-0.092852,-0.015272,0.054367
1,1.4318,-4.668,8.6887,-0.081856,0.0048869,0.052229
1,1.0787,-4.3149,9.2575,-0.03146,0.047953,0.049786
0.99533,1.3533,-4.0403,8.4926,0.014966,0.10965,0.058948
0.87097,1.6867,-3.0793,8.0807,0.019548,0.16554,0.086132
0.70276,1.2945,-2.9028,8.4141,-0.53603,0.19609,0.1182
0.46237,1.2945,-2.7262,8.7083,-0.80115,0.19853,0.14294
0.24124,1.5298,-2.7459,8.3749,-0.87048,0.10843,0.13042
-0.0019836,1.5298,-2.3732,8.0022,-0.77458,-0.065057,0.14569
-0.23398,1.5298,-2.2555,7.7865,-0.5736,-0.18754,0.14783
-0.45538,1.1964,-2.6086,7.61,-0.36744,-0.21686,0.14111
-0.63278,1.1964,-3.1381,7.6884,-0.04215,-0.17471,0.10171
-0.79184,1.4514,-3.3146,7.6884,-0.21869,-0.11148,0.085216
-0.92468,1.4318,-3.0008,7.6884,-0.15149,-0.066279,0.0033598
-0.99997,1.3337,-2.4517,8.1787,-0.13806,-0.046426,-0.01741
-0.99997,0.66685,-1.824,9.8066,-0.13531,-0.039706,0.13378
-0.99997,0.41188,-3.0008,9.3359,-0.14203,-0.03543,0.10721
-0.99997,1.8044,-4.0207,8.3749,-0.15333,-0.036346,0.078496
-0.99997,1.7652,-3.9815,8.2572,-0.15882,-0.048564,0.058338
-0.97101,1.6671,-4.0796,8.4141,-0.23549,-0.065973,0.036652
-0.88199,1.6475,-3.7069,8.6887,-0.17715,-0.081245,0.018326
-0.78522,1.5298,-3.55,8.7083,-0.063835,-0.089186,-0.041539
-0.69745,1.6083,-3.5304,8.7083,-0.029322,-0.08094,-0.034819
-0.62646,1.4514,-3.7658,8.2572,-0.013439,-0.063225,-0.033903
-0.56409,1.4906,-3.8442,8.316,-0.015272,-0.046426,-0.042761
-0.50153,1.2356,-3.4716,8.4141,-0.027184,-0.033598,-0.047037
-0.45361,1.4906,-3.3931,8.2768,-0.043066,-0.026267,-0.046731
-0.41919,1.4318,-3.4519,8.2572,-0.14416,-0.018631,-0.044899
-0.37097,1.216,-3.2362,8.218,-0.10904,-0.016799,-0.043982
-0.33347,1.3533,-3.3931,8.1787,-0.095906,0.0027489,-0.0051924
-0.26382,1.0199,-3.6873,8.316,-0.10507,0.00061087,-0.0076358
-0.19888,1.3337,-3.6677,8.2376,-0.10263,0,0.024129
-0.14319,1.3729,-3.3931,8.2572,-0.082772,0.0064141,0.021075
-0.074188,1.5298,-3.6285,8.316,-0.05284,0.018021,0.0076358
-0.016846,1.6475,-3.5304,8.3749,-0.021991,0.033598,-0.0018326
0.032379,1.3729,-3.7854,8.2572,0,0.046426,-0.0054978
0.064423,1.6083,-3.6873,8.3749,0.0030543,0.047647,-0.0064141
0.10373,1.3533,-3.55,8.1199,-0.010385,0.039401,-0.0030543
0.1503,1.118,-3.4519,8.316,-0.0048869,0.028405,-0.0064141
0.18179,1.4318,-3.3931,8.218,0.0088575,0.015882,-0.01405
0.20993,1.3533,-3.4519,8.2572,0.021075,0.011606,-0.018326
0.23737,1.5102,-3.6677,8.2572,0.022602,0.015882,-0.016799
0.26978,1.5298,-3.5304,8.2376,0.0054978,0.024129,-0.013134
0.31689,1.2945,-3.5304,8.218,-0.018326,0.027794,-0.0076358
0.35107,1.1376,-3.5108,8.2572,-0.026573,0.025045,-0.0018326
0.38626,1.2945,-3.6677,8.1787,-0.013134,0.017104,-0.00030543
0.44632,1.1964,-3.7658,8.1787,0.0067195,0.015272,-0.0054978
0.49176,1.6083,-3.9423,8.1003,0.024435,0.02474,-0.015577
0.54681,1.6867,-3.6873,8.3749,0.032376,0.029627,-0.021075
0.60022,1.3533,-3.5696,8.4141,0.024129,0.031765,-0.016493
0.65726,1.4906,-3.5696,8.3749,0.0064141,0.029322,-0.0097738
0.67819,1.4318,-3.6285,8.2768,-0.013439,0.023213,-0.0045815
0.72107,1.5495,-3.6873,8.1003,-0.025656,0.018021,0.00030543
0.73462,1.3533,-3.6285,8.1591,-0.10812,0.017715,0.013439
0.73438,1.2356,-3.6285,8.0611,-0.10782,0.014966,0.018937
0.71378,1.4318,-3.5304,8.218,-0.086437,0.011912,-0.0033598
0.69147,1.1768,-3.4716,8.316,-0.059559,0.018631,-0.0054978
0.6759,1.3925,-3.4519,8.218,-0.046426,0.026878,-0.009163
0.65878,1.5102,-3.5304,8.1787,-0.053756,0.021991,-0.0064141
0.64398,1.3533,-3.55,8.0218,-0.068111,0.011912,0.002138
0.62823,1.2945,-3.5304,8.2376,-0.082161,0.0045815,0.0082467
0.61017,1.3533,-3.6285,8.2572,-0.0030543,0.010079,0.01069
0.60263,1.3533,-3.5304,8.2572,-0.023518,-0.0012217,0.01069
0.6105,1.4514,-3.6873,8.218,-0.043677,-0.0018326,-0.019548
0.59561,1.3925,-3.7658,8.0807,-0.068111,-0.0009163,-0.016799
0.59586,1.5298,-3.6873,8.2376,-0.093462,0.0009163,-0.0094684
0.57834,1.4514,-3.7069,8.1787,-0.1014,0.0009163,-0.0024435
0.5607,1.3533,-3.6873,8.1003,0.016188,-0.0024435,0.0030543
0.55417,1.3337,-3.5304,8.1787,0.011606,-0.0030543,0.0085521
0.54236,1.4318,-3.6285,8.1003,-0.068722,0.00030543,-0.0067195
0.52289,1.3533,-3.6285,8.1787,-0.060476,0.0051924,-0.0082467
0.50015,1.2356,-3.6677,8.0807,-0.048258,0.0088575,0.010385
0.46625,1.3337,-3.55,8.1003,-0.032681,0.0054978,0.0097738
0.44608,1.4906,-3.6677,8.2572,-0.018021,0.0024435,0.0079412
0.42236,1.5298,-3.8638,8.218,-0.0015272,0.00030543,0.0033598
0.39981,1.3337,-3.5696,8.1199,-0.093768,-0.0009163,-0.0009163
0.3801,1.1768,-3.6677,8.3749,-0.079718,-0.0015272,-0.0054978
0.35718,1.4318,-3.5696,8.2376,-0.095295,0,0.018021
0.31677,1.5298,-3.6873,8.2572,0.018021,0.0012217,0.016493
0.29111,1.5102,-3.55,8.1787,0.027794,0.0009163,-0.0088575
0.25964,1.1964,-3.6088,8.218,0.026878,-0.0033598,-0.0076358
0.23895,1.1768,-3.55,8.218,0.013439,-0.007025,-0.0048869
0.21259,1.3533,-3.4519,8.0807,-0.0082467,-0.0085521,0
0.18246,1.4318,-3.4519,8.1003,-0.036346,-0.0085521,0.007025
0.16306,1.5102,-3.6677,8.2376,-0.067501,-0.0082467,0.015577
0.14175,1.5102,-3.6873,8.2572,-0.024435,0.025656,-0.023213
0.12106,1.4122,-3.8442,8.4141,-0.035736,0.022297,-0.019548
0.10345,1.5298,-3.6873,8.316,-0.04612,0.019242,-0.0094684
0.080048,1.3729,-3.6873,8.0807,-0.047953,0.013744,-0.010385
0.045654,1.118,-3.5696,8.1787,-0.038485,0.010385,-0.011606
0.015564,1.1964,-3.5304,8.0807,-0.017104,0.012217,-0.016493
-0.0052185,1.4318,-3.5108,8.1787,0.0039706,0.019242,-0.025351
-0.02771,1.5298,-3.4519,8.2376,0.014966,0.019853,-0.027184
-0.042542,1.3533,-3.6873,8.1787,-1.4978,-0.10996,-0.45815
-0.033752,1.4906,-4.158,8.3945,-1.7361,-0.13347,-0.49052
-0.036682,1.4906,-3.7658,8.1787,-2.0427,-0.2025,0.014966
-0.029541,1.5298,-3.8246,8.2572,-2.3576,-0.27092,-0.012828
-0.034729,1.3533,-3.6873,8.0807,-2.7321,-0.2865,-0.078191
-0.040039,1.4318,-3.55,8.2572,-2.9963,-0.32987,-0.16371
-0.058075,1.118,-3.5304,8.1787,-3.1667,-0.36621,-0.2868
-0.069366,1.3533,-3.6285,8.1003,-3.3286,-0.37049,-0.41142
-0.083099,1.2356,-3.6285,8.0611,-3.489,-0.35461,-0.61789
-0.092407,1.2356,-3.6873,8.3749,-3.6246,-0.33842,-0.58368
-0.11725,1.2945,-3.6088,8.1787,-3.667,-0.34147,-0.53145
-0.11017,1.5102,-3.7069,8.1003,-3.5821,-0.35033,-0.56597
-0.11877,1.3729,-3.7658,7.7865,-3.3451,-0.35583,-0.59284
-0.14511,1.3533,-3.7658,7.9434,-2.8659,-0.38026,-0.61453
-0.19385,1.118,-3.6873,8.1199,-2.2232,-0.38668,-0.61636
-0.22125,1.1768,-3.6873,8.2376,-1.5479,-0.32803,-0.60628
-0.24832,1.4318,-3.8834,8.1787,-0.1295,0.029932,0.033292
-0.27478,1.4318,-4.0207,8.0022,-0.13073,0.024435,0.026267
-0.29053,1.6867,-3.6873,8.1591,-0.1463,0.015577,0.021686
-0.32114,1.3533,-3.6088,7.963,-0.17135,-0.0027489,0.027184
-0.36417,1.1768,-3.4716,8.1787,-0.18906,-0.024129,0.032987
-0.47662,1.0395,-3.8638,7.9434,-0.20036,-0.032376,0.040928
-0.62094,1.0395,-3.9423,7.6884,-0.21625,-0.023824,0.045204
-0.77295,1.118,-4.766,7.9434,-0.23549,-0.0064141,0.041233
-0.93365,1.4906,-5.7467,8.0807,-0.31032,0.011912,0.033598
-0.99997,1.0787,-6.4528,7.1785,-0.36744,0.022907,0.027184
-0.99997,1.3533,-6.6489,6.6097,-0.45723,0.036041,0.029322
-0.99997,2.1182,-6.3743,6.0409,-0.60506,0.060476,0.032376
-0.99997,2.2948,-6.2763,5.5113,-0.81123,0.058948,0.030849
-0.99997,2.7459,-6.6881,5.1191,-1.022,0.014966,0.036346
-0.99997,2.7851,-8.0218,4.0992,-1.2086,-0.035125,0.03543
-0.99997,2.9616,-7.4923,4.158,-1.3631,-0.073304,0.032376
-0.99997,2.7851,-6.5312,4.413,2.1377,0.13378,-0.057421
-0.99997,2.3732,-5.6094,4.4914,2.7663,0.21686,-0.087965
-0.99997,2.0594,-5.5113,4.3345,3.1814,0.41936,-0.096822
-0.94788,2.5301,-6.9823,3.7854,3.2907,0.61728,-0.21319
-0.82635,2.6478,-7.4334,4.0403,3.0387,0.75931,-0.23335
-0.68301,2.432,-6.8647,4.5503,2.4487,0.79474,-0.15516
-0.51306,1.9809,-6.3547,4.8053,0.94134,0.68356,-0.065057
-0.35468,1.7652,-6.6685,4.4914,1.485,0.46151,-0.033903
-0.23361,2.2359,-6.9039,4.5503,0.082467,0.18509,-0.21441
-0.13531,2.2948,-6.845,4.9426,0.34483,0.20433,-0.22541
-0.067322,2.2359,-6.492,5.276,0.59773,0.24099,-0.069333
-0.056976,1.9809,-7.4727,4.4914,0.82161,0.24618,-0.053145
-0.057587,2.2948,-8.0611,4.158,1.0043,0.21441,-0.086743
-0.066376,2.4517,-8.0611,4.7268,1.1191,0.21747,-0.12675
-0.060577,2.1575,-7.6296,5.1779,1.1469,0.23366,-0.17257
-0.024719,2.2948,-7.0216,5.6486,1.0913,0.24832,-0.20372
0.016418,2.5497,-6.3743,5.7663,0.52473,0.25412,-0.14813
0.092316,2.432,-5.7271,6.0801,0.35461,0.23518,-0.10354
0.14841,2.4517,-5.8252,6.0801,0.25381,0.2022,-0.23671
0.21664,2.5497,-5.9036,6.0213,0.21258,0.16402,-0.23671
0.27603,2.4517,-5.7467,5.884,0.21075,0.1347,-0.22877
0.34097,1.8633,-5.7467,5.9821,0.22846,0.11912,-0.2248
0.4126,2.0594,-6.0409,5.4329,0.95234,0.12584,-0.21625
0.48892,2.2359,-5.8252,5.3937,0.74464,0.14416,-0.18967
0.57108,1.7064,-5.6094,5.9036,0.40256,0.14386,0.043371
0.63843,1.3925,-6.3351,5.276,0.48075,0.1292,0.0015272
0.72067,1.8044,-8.0218,3.5304,0.54367,0.14233,-0.076358
0.8511,1.824,-7.3942,5.2956,0.57269,0.19426,-0.078802
0.96732,1.6671,-5.2564,8.1787,0.58307,0.25717,-0.076664
1,1.0395,-3.8834,10.317,0.64263,0.28375,-0.03207
1,1.0591,-3.7658,11.003,0.25992,0.25565,0.022602
1,1.7456,-3.8246,10.101,0.32162,0.18815,0.052534
1,1.7456,-2.7459,9.689,4.3451,0.20159,0.22266
1,1.5298,-2.1967,7.4531,4.0488,0.19364,0.24374
1,2.9224,-2.6086,4.2365,3.7425,0.20067,0.22633
1,4.2169,-4.3345,2.1378,3.624,0.1408,0.19823
1,3.8638,-6.1978,-0.23536,3.6799,0.13775,0.15272
1,3.805,-9.0417,-2.8243,3.6933,0.25962,0.096517
1,4.0207,-14.847,-3.5304,3.6792,0.36163,0.057116
1,4.0207,-14.828,-1.7848,3.649,0.40225,0.1182
1,3.5892,-8.0611,1.1768,3.6563,0.38759,0.36316
1,2.6478,-3.9619,3.0597,3.7159,0.38179,0.4664
1,2.2948,-4.3934,3.5108,3.8332,0.37141,0.17959
1,2.9224,-5.5113,3.3931,4.0397,0.35064,0.14936
1,2.8635,-5.884,3.8638,4.2843,0.40592,0.20189
1,2.6086,-6.845,3.7265,4.4389,0.54214,0.23671
1,3.2558,-7.2961,4.5503,4.4037,0.67256,0.23152
1,2.4909,-7.6296,5.4329,4.1887,0.7477,0.26939
0.94537,2.687,-6.6489,6.0801,3.6316,0.78618,0.81245
0.68069,2.6086,-5.5898,6.0409,3.2425,0.8262,0.77946
0.36823,3.4127,-4.1384,5.7075,2.744,0.87079,0.53542
-0.0018921,3.2558,-2.1575,6.2174,2.1377,0.91996,0.57666
-0.431,2.432,-0.70608,6.5116,1.4853,0.9444,0.62919
-0.85605,2.2359,0.31381,6.5508,0.85338,0.92302,0.71624
-0.99997,2.2359,1.1572,7.1589,0.31948,0.84513,0.79199
-0.99997,1.9221,0.23536,7.8061,-0.076053,0.74434,0.82253
-0.99997,1.6083,-2.2948,9.3163,-0.32101,0.66523,0.59651
-0.99997,1.0591,-4.158,10.375,-0.42608,0.59987,0.53909
-0.99997,0.74531,-4.9229,10.297,-0.43433,0.53267,0.74251
-0.99997,1.0787,-4.7268,9.7282,-0.38362,0.46456,0.71685
-0.99997,0.56879,-4.668,9.3359,-0.32162,0.40714,0.7138
-0.99997,0.25497,-4.5699,9.5321,-0.2868,0.36896,0.72388
-0.99997,-0.50995,-5.1191,9.5713,-0.29291,0.34147,0.70616
-0.99997,0.35304,-5.7467,9.0221,-0.32865,0.3091,0.65515
-0.99997,1.1964,-4.158,8.8064,-0.14844,0.0012217,-0.053451
-0.99997,0.80415,-2.7262,8.9437,-0.17532,-0.040928,-0.047647
-0.99997,1.0199,-2.687,8.3945,-0.16402,-0.066279,-0.076664
-0.99997,1.1964,-3.0401,7.7669,-0.11515,-0.064446,-0.082772
-0.9729,1.5298,-3.197,7.7669,-0.072388,-0.045509,-0.083689
-0.92297,1.2356,-2.7459,8.1787,-0.068417,-0.029322,-0.076358
-0.89218,1.5102,-2.8439,8.1787,-0.094684,-0.032376,-0.06353
-0.85602,1.3533,-2.9028,8.4141,-0.13958,-0.046731,-0.057727
-0.80359,1.6867,-3.6873,8.2572,-0.23946,-0.06689,0.019853
-0.74692,1.6867,-3.6088,8.3945,-0.18998,-0.090103,0.025962
-0.68335,1.3533,-3.3146,8.4926,-0.1127,-0.11057,-0.04215
-0.6322,1.3337,-3.3146,8.3945,-0.04612,-0.12156,-0.037874
-0.57462,1.1964,-3.3735,8.316,-0.022907,-0.10476,-0.030849
-0.54251,1.0395,-3.2558,8.6887,-0.048869,-0.071777,-0.025962
-0.50705,0.80415,-3.3931,8.8848,-0.19395,-0.04612,-0.017715
-0.46552,0.82376,-3.55,8.8064,-0.23732,-0.03543,0.0036652
-0.41718,0.98067,-3.3735,8.4337,-0.15424,-0.032376,0.042761
-0.37198,0.66685,-3.0793,8.4141,-0.16218,-0.026573,0.044593
-0.32709,0.72569,-3.0008,8.316,-0.14783,-0.020464,0.027794
-0.29398,0.92183,-2.9224,8.4926,-0.1014,-0.020464,0.028711
-0.27112,0.74531,-3.2558,8.5318,-0.03207,-0.023824,0.037263
-0.24036,1.0395,-3.3146,8.2376,0.040012,-0.019548,0.043066
-0.21204,1.118,-3.0401,8.218,-0.094073,-0.0045815,0.048564
-0.1929,1.0395,-3.0401,8.0022,-0.13225,0.019242,0.051007
-0.18262,1.0787,-3.0793,8.218,0.072693,0.048564,0.050396
-0.17844,1.1964,-3.4519,8.2572,0.01741,0.073915,0.044288
-0.16669,1.118,-3.7069,8.0807,-0.035125,0.089186,0.052229
-0.16223,1.3533,-3.5304,8.1199,-0.062308,0.092546,0.047953
-0.15964,1.3925,-3.3146,8.1003,-0.065973,0.088881,0.036346
-0.15833,1.3533,-3.2362,8.1787,-0.040928,0.081551,0.029932
-0.16534,1.5102,-3.3735,8.4926,0.090713,0.062308,0.037874
-0.16937,1.2945,-3.6285,8.7083,0.10324,0.032987,0.050396
-0.17255,1.216,-3.8246,8.4141,0.032987,0.11026,0.00061087
-0.17429,1.1964,-3.5696,8.5318,0.032376,0.13164,-0.015882
-0.18723,1.4318,-2.9028,8.3945,0.044288,0.14936,-0.0079412
-0.21371,1.0395,-2.9028,8.4337,0.051007,0.16738,-0.0048869
-0.233,1.118,-3.3931,8.4729,0.040012,0.18387,-0.0067195
-0.24289,1.0199,-3.7265,8.4729,0.0030543,0.19028,-0.0058032
-0.24536,1.2945,-3.6088,8.3749,-0.059865,0.17013,0.00030543
-0.25018,1.1964,-3.4519,8.2376,-0.13042,0.12492,0.0054978
-0.25165,0.74531,-3.3146,8.4729,-0.17929,0.074526,-0.061392
-0.25583,0.54917,-3.7265,8.7475,-0.20067,0.0281,-0.067806
-0.24118,0.41188,-4.1776,8.6887,-0.20892,-0.016799,-0.022907
-0.23489,0.80415,-3.8834,8.1787,-0.19853,-0.063225,-0.022907
-0.21539,1.118,-3.5696,7.8649,-0.17501,-0.10049,-0.031154
-0.21771,0.92183,-2.9224,7.8649,-0.1463,-0.11851,-0.040928
-0.21887,0.8826,-2.7459,8.1787,-0.11545,-0.12278,-0.045815
-0.24393,1.2749,-3.0793,8.0218,-0.078802,-0.11881,-0.051618
-0.25427,1.216,-3.2362,7.9434,-0.050091,-0.11576,-0.12401
-0.25989,1.2356,-3.2166,8.1787,-0.039401,-0.10721,-0.1182
-0.25043,1.4514,-3.3931,8.1003,-0.04612,-0.10263,-0.075747
-0.24255,1.3925,-3.2558,8.316,-0.047647,-0.10263,-0.087965
-0.24408,1.2945,-3.3146,8.7279,-0.029322,-0.09499,-0.1011
-0.23834,0.90221,-3.4519,9.179,0.0048869,-0.06689,-0.11698
-0.2146,0.76492,-3.4519,9.2575,0.03207,-0.018631,-0.13256
-0.18866,0.90221,-3.6285,9.1202,0.038179,0.030543,-0.13317
-0.14746,0.80415,-3.5696,8.8652,0.19456,0.0064141,-0.022907
-0.11575,0.90221,-3.7069,8.4141,0.14722,0.017715,-0.011912
-0.091888,1.0199,-3.3931,8.2572,0.072693,0.0097738,-0.061087
-0.078979,1.2945,-3.1381,8.1199,0.0027489,0.0018326,-0.055894
-0.053589,1.1964,-3.2558,8.1787,-0.025351,0.0064141,-0.059559
-0.041656,1.7064,-3.4127,7.8649,-0.013744,0.027794,-0.052534
-0.034912,1.6867,-3.2166,7.8649,0.0097738,0.0562,-0.045815
-0.033417,1.5102,-3.0793,7.963,0.026878,0.08491,-0.039706
-0.030579,1.5298,-3.0008,8.4926,0.08827,0.10018,0.11118
-0.02829,1.1964,-3.3146,8.5514,0.081856,0.1408,0.10996
-0.0075989,1.2945,-3.5696,8.5318,0.078802,0.1689,0.14325
0.0027771,1.0199,-3.3735,8.4926,0.13195,0.18143,0.17043
0.015472,1.1376,-3.2166,8.4337,0.21594,0.18021,0.18998
0.010834,1.1768,-3.1381,8.4926,0.22694,0.18631,0.19945
0.015503,1.0395,-3.295,8.4141,-0.040928,0.21044,0.18967
0.014038,1.1964,-3.2362,8.4337,0.04612,0.21777,0.15149
0.015533,1.1964,-3.1381,8.4337,0.14111,0.14355,-0.23305
0.018921,1.3337,-3.3931,8.3749,0.29902,0.0042761,-0.27
0.0067749,1.1768,-3.6088,8.3357,0.41386,-0.1014,0.097433
0.0010681,0.98067,-3.5108,8.4926,0.43066,-0.10476,-0.0094684
-0.0034485,0.98067,-3.6088,8.6299,0.32009,-0.079718,-0.13622
-0.023041,1.2356,-3.5304,8.4141,0.12462,-0.067195,-0.16432
-0.020233,1.1964,-3.3539,8.2572,0.12584,-0.059254,-0.15944
-0.035248,1.4514,-3.3146,8.0611,0.07086,-0.041539,-0.18662
-0.057343,1.5495,-3.4127,7.9434,0.034208,-0.037263,0.022297
-0.064362,1.2945,-3.2362,7.9434,0.026267,-0.048869,0.027489
-0.077484,1.2945,-3.0008,7.9434,-0.002138,-0.06017,0.028405
-0.10678,1.5298,-3.3146,7.9042,-0.045509,-0.070555,0.016799
-0.13364,1.6867,-3.4519,7.8453,-0.087354,-0.076358,0.011606
-0.1424,1.2356,-3.3146,7.9238,-0.10996,-0.07025,0.0085521
-0.1337,0.90221,-3.0793,8.316,-0.10446,-0.061087,0.0094684
-0.11639,0.92183,-3.5696,8.2572,-0.069944,-0.04612,0.014966
-0.043945,1.1964,-3.8246,9.434,0.052534,-0.019242,0.086437
0.046661,0.27459,-4.4522,9.9832,0.030543,0.011606,0.10843
0.1568,1.0199,-5.1975,9.6301,-0.045509,0.042761,0.037874
0.26096,1.6083,-4.0796,9.3752,-0.12614,0.065363,0.055894
0.30972,1.3337,-3.0008,8.6299,-0.15821,0.065057,0.07422
0.30582,0.74531,-2.3732,7.6884,-0.12767,0.049175,0.087048
0.22214,0.54917,-2.942,7.1785,-0.019853,0.040928,0.088575
0.11133,1.2945,-3.4716,7.6884,0.027489,0.058643,0.081856
-0.0029602,1.3533,-4.0207,8.4729,-3.4706,-1.0956,-0.22449
-0.076355,1.8633,-4.1384,7.7865,-4.2531,-1.2242,-0.14203
-0.13541,2.2948,-2.8832,7.3746,-4.7687,-1.2798,0.135
-0.19211,1.9025,-2.2555,7.61,-5.0567,-1.3268,0.17623
-0.24817,1.6867,-1.5102,7.5511,-5.0537,-1.3961,0.22022
-0.27924,1.1376,-1.6475,8.7083,-4.7657,-1.4132,0.1405
-0.33353,0.98067,-2.2751,8.5514,-4.255,-1.2956,-0.042761
-0.4064,0.98067,-2.2948,8.0807,-3.6105,-1.1038,-0.19792
-0.50488,0.56879,-1.8437,8.316,1.2846,-0.89186,0.25779
-0.64688,-0.50995,-1.3533,9.3163,-3.2755,-0.68814,0.1857
-0.7554,-2.2751,-1.824,11.376,-2.5956,-0.55741,-0.022602
-0.83783,-1.216,-1.6867,12.023,-1.8375,-0.42272,0.099571
-0.89301,-0.50995,-1.1768,9.5321,-1.065,-0.25473,0.1631
-0.94135,-0.49033,-1.5691,7.1392,-0.33139,-0.048869,0.16952
-0.93835,0.86299,-2.6282,6.747,0.32437,0.15424,0.18479
-0.86935,1.6867,-2.8243,8.8652,0.90408,0.29596,0.22174
-0.72528,1.0787,-2.1378,10.944,-0.4664,-0.208,0.099571
-0.54413,1.4514,-1.0003,10.199,-0.040623,-0.013134,0.13531
-0.38174,1.6083,-0.37265,8.8064,0.2193,0.10385,-0.096517
-0.2233,0.80415,-2.0594,8.1199,0.22724,0.11973,-0.034819
-0.021698,0.41188,-3.5304,10.199,0.023213,0.083078,0.014966
0.20441,-1.4514,-3.0401,13.827,-0.24954,0.016188,0.020464
0.41766,-0.90221,-1.2749,12.886,-0.43891,-0.043066,0.025351
0.54404,0.19613,-0.078453,10.277,-0.49969,-0.076969,0.055589
0.51831,0.60801,0,7.0216,-0.078496,-0.09896,0.13042
0.3215,-0.05884,-0.94144,5.7467,0.29016,-0.053145,0.13378
0.095215,0.50995,-3.8834,4.4522,0.56688,0.03207,0.10965
-0.075623,2.4517,-6.0801,4.5503,0.51588,-0.0027489,0.047953
-0.12653,3.0204,-6.9039,4.7268,0.13653,-0.19975,0.14844
-0.10162,2.9224,-6.9823,4.0207,-0.53603,-0.4722,0.22419
-0.027649,3.0793,-6.5901,4.413,-1.3958,-0.75381,0.16952
0.056488,3.0793,-6.2174,4.6484,-2.4221,-0.94043,0.14447
0.129,2.2948,-6.3351,6.1978,-0.82345,-0.2135,0.092546
0.211,1.8633,-5.7467,7.61,-0.62247,-0.21197,0.071166
0.271,1.8044,-4.9622,7.6884,-0.52443,-0.1686,-0.0562
0.31378,1.6083,-4.766,7.8649,-0.63622,-0.083689,-0.073609
0.28061,1.8437,-6.1193,7.1392,-0.94501,0.007025,-0.066279
0.3186,2.6086,-6.0409,6.8254,-1.2889,0.063835,-0.033292
0.42871,2.1575,-4.158,7.2373,-1.0052,0.054978,0.020159
0.54703,1.824,-2.2555,7.61,-0.98533,-0.064752,0.067806
0.6395,1.3729,-2.5105,7.7865,-0.10904,0.086437,-0.17196
0.69458,0.98067,-3.7265,8.3749,-0.090408,0.14233,-0.14569
0.77368,0.80415,-4.0796,9.3163,0.040317,0.22663,-0.25779
0.86026,0.80415,-3.9423,9.5909,0.28924,0.30879,-0.32101
0.94452,1.216,-3.7854,9.3359,0.57941,0.36682,-0.35888
1,1.216,-3.9423,9.2575,0.80237,0.37415,-0.33292
1,1.6867,-4.3345,8.0022,0.92302,0.3207,-0.27245
1,1.6083,-3.9423,7.4334,0.95417,0.22113,-0.21655
1,0.76492,-3.3146,8.5514,0.70402,0.1292,-0.11668
1,0.39227,-2.8439,9.3555,0.42883,0.068111,-0.065668
1,0.90221,-2.7851,9.5321,0.034208,0.026573,-0.12706
0.97534,1.2945,-2.6086,9.179,-0.25443,0.020159,-0.088575
0.8573,1.9221,-2.7459,7.963,-0.32406,-0.0073304,-0.043066
0.72546,1.6083,-3.4519,6.9235,-0.19334,-0.1011,-0.020464
0.62701,1.6475,-3.6873,7.6296,0.92516,-0.14813,-0.047953
0.53888,1.3337,-3.5696,8.4729,0.84819,-0.10904,-0.1014
0.47226,1.4514,-3.3931,8.6299,0.12126,-0.058643,0.016188
0.42859,1.5495,-3.0793,8.0218,0.015577,-0.045815,-0.010385
0.39603,1.6475,-3.0008,7.1589,-0.16188,-0.064446,-0.0045815
0.39258,1.5102,-3.7854,7.1196,-0.3824,-0.10599,0.034514
0.39105,1.5298,-4.3345,7.61,-0.64141,-0.13531,0.053145
0.41,1.6867,-3.4127,8.2572,-0.86957,-0.14111,0.046426
0.40945,1.5495,-2.2555,8.7279,0.0012217,-0.15333,0.030849
0.41647,1.0591,-3.6677,7.61,0.11729,-0.18112,0.021075
0.45715,2.0202,-6.1978,7.3158,0.66737,0.42119,0.21075
0.55377,2.1575,-6.237,8.8064,0.73273,0.4273,0.20983
0.67215,1.216,-4.0207,9.9636,0.77274,0.43433,-0.13011
0.73755,0.8826,-3.0793,10.12,0.77458,0.41417,-0.086132
0.74597,1.2945,-3.5108,9.2575,0.66432,0.30757,-0.0064141
0.70044,1.9613,-3.8834,8.2572,0.41264,0.10171,0.11332
0.5899,1.7064,-3.9423,7.9434,0.099876,-0.1463,0.20036
0.40479,2.1182,-3.2362,7.2961,-0.14233,-0.32498,0.2193
0.19189,2.2359,-2.1967,7.6884,-0.32345,-0.37629,0.20525
-0.039703,2.432,-1.6867,7.9434,-0.21197,-0.34972,0.13195
-0.2576,2.5497,-2.1967,7.61,0.071471,-0.24465,0.20067
-0.42798,2.1378,-2.9224,7.8649,0.38026,-0.049786,0.1686
-0.52664,1.2356,-3.8442,8.3357,0.5678,0.15882,0.15516
-0.59305,0.45111,-3.9227,8.7083,0.56566,0.30116,0.18509
-0.6142,-0.52956,-2.3732,8.7475,0.40806,0.37049,0.2416
-0.60281,-1.0199,-2.0006,9.1986,0.1631,0.40103,0.25809
-0.55441,-0.13729,-3.0401,8.218,-0.12126,0.42791,-0.19578
-0.4866,1.1964,-4.158,7.0019,-0.32956,0.43188,-0.20433
-0.39169,1.4318,-4.3542,6.0213,-0.25962,0.41722,0.059865
-0.23358,1.1768,-2.8439,6.6097,0.15455,0.45235,-0.055894
-0.084686,1.216,-1.3729,7.61,0.72326,0.5849,-0.21044
0.067352,1.5298,-1.5887,8.4141,1.1322,0.75167,-0.30604
0.19934,1.7064,-4.158,8.316,1.2007,0.80879,-0.29077
0.33566,1.6867,-5.1191,9.2183,1.0116,0.72204,-0.22694
0.45035,0.41188,-3.3146,10.591,0.7648,0.56658,-0.29322
0.49753,0.35304,-1.2553,10.709,0.58154,0.42608,-0.25137
0.43433,1.0199,-0.86299,9.689,0.53848,0.34544,-0.21075
0.28638,1.0591,-1.1572,9.689,0.62339,0.33475,-0.21686
0.14722,0.72569,-1.7456,10.885,0.69272,0.33903,-0.2306
0.036499,1.7456,-2.4517,9.9636,0.70677,0.27519,-0.22205
-0.011444,0.98067,-1.9809,9.8066,0.77641,0.20495,-0.22571
-0.015625,0.50995,-1.0003,10.454,0.90866,0.23366,-0.27855
0.0048523,1.1964,-1.0199,10.062,-0.34483,-0.19028,-0.050702
0.044006,1.4906,-1.6475,8.8064,-0.26848,-0.1689,-0.043677
0.052277,1.3533,-1.1964,7.8061,-0.20464,-0.15516,0.096517
0.015137,0.90221,0.15691,8.0807,-0.12645,-0.14478,0.036652
-0.071716,0.56879,0.98067,9.0025,0.009163,-0.095906,-0.010079
-0.19125,0.92183,-0.17652,8.8652,0.15852,0.0039706,-0.046731
-0.25818,1.2356,-1.7848,8.6887,0.2306,0.11576,-0.069639
-0.24414,1.4318,-1.824,8.8652,0.19242,0.18387,-0.064752
-0.16965,0.98067,-1.1964,8.9437,-0.27092,0.18509,-0.01405
-0.098969,0.56879,-0.84337,9.0613,-0.34361,0.12767,0.020159
-0.030579,0.35304,-1.8044,9.0417,-0.27428,0.062003,-0.040623
-0.0020752,0.45111,-2.5693,9.2183,-0.07758,0.021686,-0.048869
-0.03244,0.2942,-2.4124,9.0417,0.15944,0.027489,-0.069028
-0.14703,0.039227,-1.6475,8.6887,0.31551,0.09163,-0.086132
-0.28717,0.8826,-2.432,9.9439,0.060476,0.17287,-0.083383
-0.43018,0.76492,-2.6282,9.6694,-0.1124,0.21777,-0.055283
-0.55121,1.0395,-2.3732,9.179,0.10812,0.20922,-0.030849
-0.6633,1.2356,-2.432,8.7083,-0.049175,0.16921,-0.057116
-0.74133,1.2945,-2.1967,8.4337,-0.21166,0.13378,0.043982
-0.80362,1.5298,-0.94144,8.4729,-0.39859,0.11118,0.069944
-0.86252,0.90221,-0.47072,8.7475,-0.54917,0.099876,0.077274
-0.89191,0.90221,-1.5691,8.9437,-0.50335,0.11454,0.06353
-0.87659,1.2945,-2.7655,8.6299,0.33262,0.11484,0.043982
-0.81281,1.2945,-2.687,8.8652,0.24618,0.062919,0.010385
-0.72668,0.86299,-1.824,9.1986,-0.6805,-0.17898,0.12737
-0.64249,0.74531,-1.2749,9.1986,-0.56444,-0.18509,0.12065
-0.54449,0.76492,-1.3729,8.9437,-0.41478,-0.15149,0.26542
-0.43732,0.74531,-2.0986,8.4141,-0.26542,-0.082772,0.29963
-0.31186,-0.039227,-2.7851,8.4141,-0.14997,-0.082772,0.31001
-0.17288,0.17652,-3.5304,10.042,-0.097128,-0.15699,0.31887
-0.046783,0.56879,-3.197,10.572,-0.22419,-0.21197,0.30788
0.075195,0.74531,-2.0594,10.12,-0.3598,-0.21625,0.22205
0.14694,1.1768,-0.84337,9.2575,-0.56047,-0.62247,0.063225
0.18057,1.3533,-0.5884,8.2572,-0.045509,-0.48686,0.050091
0.14877,1.1768,-0.68647,8.218,0.35369,-0.28405,-0.17746
0.088379,0.8826,-1.1768,8.7083,0.57544,-0.11454,-0.17746
0.036957,0.64724,-2.3536,9.3359,0.59407,0.0094684,-0.1066
0.0069885,0.90221,-2.687,9.787,0.44013,0.04948,-0.020159
0.010559,0.74531,-2.2555,9.2575,0.2361,0.029322,0.034819
0.044617,0.74531,-1.5298,8.6495,0.08491,0.009163,0.061392
0.072296,0.49033,-1.7456,8.4141,0.029932,0.034514,0.22724
0.12338,0.74531,-1.824,8.3749,0.082772,0.12553,0.22816
0.14554,0.80415,-2.1182,8.8652,0.18418,0.26145,0.050091
0.18866,1.6083,-2.1967,8.3749,0.24587,0.39523,0.1014
0.22751,1.824,-2.1575,7.9042,0.25779,0.46426,0.19456
0.25708,1.3533,-2.432,8.5514,0.28039,0.43585,0.26176
0.33435,1.1964,-2.8832,11.356,0.33689,0.37843,0.29016
0.44763,0.80415,-2.6086,13.298,0.4273,0.35064,0.27306
0.53534,1.118,-1.3141,12.651,0.55497,0.33414,-0.13134
0.5181,1.5298,-0.62763,9.2575,0.72082,0.31582,-0.14905
0.32541,1.9221,-1.0983,6.5312,0.84116,0.30391,0.22694
0.090393,2.1575,-2.687,6.9627,0.79504,0.25443,0.13561
-0.073669,2.6478,-2.0006,8.2572,0.54398,0.072082,0.023824
-0.15863,1.6867,-1.471,9.0613,0.28558,-0.17287,0.030543
-0.16833,1.2945,-1.8044,9.1594,0.090408,-0.29658,0.002138
-0.15244,1.2356,-1.6475,7.7473,-0.07086,-0.2868,-0.094379
-0.17404,0.60801,-0.56879,6.8254,0.35308,0.20647,-0.20647
-0.23792,-0.039227,-0.23536,6.8254,0.45479,0.11454,-0.16677
-0.32947,-0.70608,-1.6671,9.3555,0.35766,-0.047342,-0.11698
-0.40317,-1.0787,-3.0597,10.042,0.024435,-0.26695,-0.065973
-0.42014,-1.6475,-3.5696,9.179,-0.48014,-0.48075,-0.05681
-0.38925,-1.9417,-1.6671,12.239,-0.98533,-0.63958,-0.1292
-0.31207,-0.45111,-0.86299,12.239,-1.2892,-0.70158,-0.18723
-0.27557,1.6867,-1.0199,8.8064,-1.2599,-0.67104,-0.22266
-0.25992,2.0594,-0.8826,7.61,-0.20953,-0.062003,0.046731
-0.2616,1.824,-0.94144,7.7865,-0.082772,-0.11301,0.036346
-0.25528,2.1575,-1.6867,8.2572,0.016799,-0.12217,0.020464
-0.22235,2.0594,-1.8829,8.0022,0.054978,-0.11209,0.036957
-0.18106,1.4318,-1.824,8.1787,0.0054978,-0.1127,0.087048
-0.1528,0.80415,-2.1967,8.9633,-0.12706,-0.10873,0.12217
-0.13293,-0.078453,-1.9613,8.8456,-0.34025,-0.061697,0.10263
-0.14832,-0.76492,-1.5102,8.1787,-0.30849,0.012217,0.065057
-0.16745,-0.86299,-1.824,9.5909,0.10568,0.083383,-0.041539
-0.15671,-0.37265,-2.1182,10.297,0.35247,0.15791,-0.10476
-0.13489,-0.64724,-2.4517,9.7478,0.48136,0.26634,0.050702
-0.053864,0.078453,-2.4124,9.179,0.48778,0.31521,0.083689
-0.004425,0.98067,-2.1575,8.8456,0.39065,0.27245,0.09499
0.035828,0.90221,-1.8437,8.9044,0.14905,0.16707,0.068722
0.076385,1.118,-1.3533,9.5321,-0.22633,0.039401,0.03207
0.10757,1.5887,-1.6475,9.6694,-0.14936,-0.087354,-0.00061087
0.12799,1.3533,-1.8437,9.8066,-0.12492,-0.059559,-0.11148
0.13568,1.0395,-1.4318,9.6694,-0.00030543,-0.007025,-0.091324
0.09845,0.35304,-1.0395,9.5321,0.027489,0.024435,-0.025656
0.045929,1.0395,-1.2553,9.3359,-0.034208,0.029322,-0.06353
0.0010376,1.1964,-1.3337,8.4926,-0.083994,0.029016,-0.1066
-0.027771,0.50995,-0.72569,8.1787,-0.064446,0.049786,-0.13408
-0.015961,-0.13729,-1.6867,8.8456,-0.027794,0.079718,-0.13256
0.083893,0.17652,-2.5105,9.9636,-0.011606,0.088575,-0.11545
0.18347,0.45111,-2.7851,9.7282,-0.0076358,0.071471,0.0097738
0.24829,1.3337,-2.432,8.316,-0.093157,0.042455,0.02138
0.27155,1.5495,-2.1378,7.2373,-0.086743,-0.043677,-0.05284
0.20218,0.90221,-2.5301,7.1589,-0.071471,-0.12309,-0.054367
0.097992,-0.019613,-3.2558,9.5125,-0.15547,-0.12095,-0.11484
-0.00057983,-0.35304,-3.1381,11.552,-0.27703,-0.059254,-0.1182
-0.1239,0.76492,-2.2948,10.827,0.012217,0.0094684,-0.067501
-0.26978,1.4318,-0.54917,8.4141,0.049175,0.0045815,-0.02474
-0.45386,0.80415,-0.72569,7.0608,-1.3677,-0.28772,0.66096
-0.62122,0.98067,-2.432,7.1589,-1.4465,-0.33201,0.63591
-0.69843,0.76492,-1.6671,8.1787,-1.3042,-0.29535,0.48106
-0.72125,0.41188,-1.6867,10.317,-0.88789,-0.23854,0.45876
-0.70081,1.824,-1.9809,10.12,-0.29474,-0.061697,0.41539
-0.64786,1.2356,-1.1572,8.7475,0.29016,0.27306,0.4383
-0.60217,0.35304,-1.2553,8.7279,0.32926,0.65576,0.50732
-0.57697,-0.66685,-2.3732,9.6694,-0.51374,0.71502,0.60506
-0.60226,-0.70608,-2.687,10.14,0.083383,-0.30391,-0.24923
-0.68243,-0.039227,-2.4713,10.297,-0.032681,-0.25748,-0.28161
-0.75287,-0.13729,-2.6282,10.748,-0.12737,-0.18173,-0.07025
-0.81412,0.80415,-1.7848,9.7478,-0.15088,-0.078191,-0.076969
-0.86932,1.7064,-1.0591,8.0807,-0.16371,0.029322,-0.074526
-0.92719,0.96105,-0.72569,6.8647,-0.20678,0.1011,-0.096211
-0.98645,0.49033,-0.8826,6.9039,-0.19212,0.13775,-0.14325
-0.99997,0.039227,-1.9025,7.5511,-0.0045815,0.16035,-0.19853
-0.9845,-0.05884,-3.7069,9.179,0.40195,0.20708,-0.20189
-0.8616,0.56879,-2.432,10.728,0.89308,0.3091,-0.21686
-0.70367,-0.2942,-0.33343,11.199,1.2129,0.43463,-0.25687
-0.51126,-0.05884,-0.62763,10.591,1.1078,0.38759,-0.20189
-0.2605,0.39227,-0.52956,9.6694,0.75167,0.19273,-0.15211
0.020935,0.66685,-0.5884,9.3555,0.39951,0.0073304,-0.10507
0.29767,1.1964,-0.33343,9.6301,0.15027,-0.09896,-0.097738
0.52167,1.0395,1.0003,9.6694,-0.012523,-0.15669,-0.14019
0.65274,0.80415,1.5691,8.9044,-0.11484,-0.21716,0.35827
0.66107,0.98067,-0.23536,8.5906,-0.035125,-0.2642,0.43097
0.59225,1.3533,-2.6674,7.7865,0.10171,-0.26389,-0.19853
0.49698,1.9025,-4.5699,6.1193,0.21014,-0.21686,-0.17379
0.4231,1.2945,-2.9224,5.7467,0.17715,-0.1573,-0.10049
0.26007,-2.2751,-1.2553,13.965,-0.086743,-0.11698,0.025962
0.078644,-0.68647,-5.2564,10.101,-0.56902,-0.12309,0.16738
0.020844,1.7064,-6.0409,7.4334,-1.0821,-0.18509,0.28222
0.23199,1.5887,-2.8243,7.7669,0.22327,0.0956,-0.030849
0.56595,1.0395,-0.019613,8.5318,0.20159,0.059865,-0.0027489
0.87561,0.27459,-0.86299,8.9437,0.19426,0.04215,-0.0061087
1,0.80415,-2.2751,8.9044,0.21564,0.067806,-0.023518
1,1.118,-2.432,8.8848,0.18051,0.087659,-0.030849
1,0.92183,-2.4517,9.1202,0.068111,0.040623,-0.0024435
1,1.3533,-2.7459,8.8652,-0.026878,-0.023213,0.0042761
1,1.3533,-3.0793,8.6299,-0.043982,-0.051924,-0.027489
1,0.98067,-2.432,9.434,-0.025656,-0.055589,0.040317
1,0.56879,-1.6475,9.6694,-0.020464,-0.053451,0.027489
1,0.2942,-1.5102,8.7279,-0.03879,-0.06017,0.0097738
1,0.039227,-2.0986,8.2376,-0.076969,-0.059865,0.0061087
1,0.2942,-2.432,8.7475,-0.12828,-0.043371,0.012828
1,0.41188,-2.4124,9.7478,-0.17287,-0.021991,0.035125
1,0.80415,-2.2751,9.3359,-0.197,0.0094684,0.050396
1,0.80415,-1.9613,9.2183,-0.22633,0.047342,0.04948
1,1.1964,-1.824,8.7475,-0.27642,0.073304,-0.002138
1,1.216,-1.5691,8.7083,-0.22388,0.083078,-0.047647
1,1.0395,-1.7848,8.5514,-0.13286,0.07758,0.014966
1,1.0395,-1.824,8.316,-0.078191,0.070555,0.0088575
1,1.1768,-2.1182,8.7083,-0.065363,0.061392,0.009163
1,0.92183,-2.589,9.2575,-0.071166,0.044593,0.020769
1,0.56879,-3.0008,9.7478,-0.26512,0.009163,0.042761
1,0.5884,-3.0401,9.6694,-0.28833,-0.037568,0.034514
1,0.43149,-2.5693,9.4144,0.18448,-0.077274,-0.17104
1,0.54917,-2.0594,9.2575,0.20769,-0.099266,-0.15547
0.99008,0.92183,-1.9809,8.9044,0.14142,-0.10324,-0.075136
0.88351,0.80415,-1.8829,8.5514,0.055283,-0.1069,-0.086743
0.72842,0.90221,-1.6867,8.5318,0.020464,-0.12248,-0.094379
0.55331,1.0199,-1.4906,8.6299,0.062919,-0.13408,-0.12553
0.37088,0.8826,-1.0199,8.3749,-0.022907,-0.1292,-0.16249
0.22482,0.39227,-1.5102,8.5514,0.086437,-0.1014,-0.17471
0.10385,1.0395,-1.9613,9.0417,-0.15027,-0.045815,0.0027489
0.045197,0.90221,-2.687,9.179,-0.12217,-0.039706,0.0048869
0.04538,0.90221,-2.3144,9.0221,-0.080329,-0.027184,-0.014355
0.05722,0.92183,-1.9809,9.179,-0.034514,-0.010079,-0.01069
0.08551,0.8826,-1.8044,9.179,0.0048869,0.0067195,-0.012217
0.11142,0.80415,-1.8829,9.2575,0.032376,0.018937,-0.012828
0.13589,0.74531,-2.3536,9.0025,0.040928,0.0281,-0.010079
0.16672,0.72569,-2.4713,9.1594,0.03146,0.033292,-0.002138
0.19647,0.56879,-2.432,9.179,-0.0064141,0.033292,0.007025
0.22382,0.90221,-2.3732,8.8652,-0.040012,0.0281,0.0045815
0.25122,0.74531,-2.1967,9.0025,-0.06689,0.015882,0.0085521
0.27814,0.98067,-2.0006,8.9437,-0.081245,0.0024435,0.011301
0.29022,0.92183,-2.0594,8.8652,-0.080634,-0.002138,0.0076358
0.31403,0.74531,-2.2163,8.9044,-0.068722,0.0051924,0.0039706
0.32043,0.8826,-2.432,8.8652,-0.047342,0.015882,0.0054978
0.34308,0.76492,-2.3144,8.7083,-0.021686,0.026267,0.009163
0.36615,0.86299,-2.1575,8.7083,-0.0054978,0.040317,0.026878
0.37741,0.74531,-2.0594,8.6887,-0.0030543,0.048564,0.029322
0.38922,0.56879,-2.0986,8.8064,-0.0088575,0.047342,0.0082467
0.43756,0.76492,-2.2163,9.0417,-0.010079,0.042761,0.010996
0.49902,0.92183,-2.2555,8.8652,-0.007025,0.040928,0.010385
0.56061,0.92183,-2.2751,8.7868,-0.0036652,0.039095,0.011912
0.62534,0.8826,-2.3732,8.6299,-0.0067195,0.03879,0.019242
0.68469,0.92183,-2.2555,8.8848,-0.015577,0.03879,0.024435
0.73434,0.80415,-2.2751,8.8848,-0.033292,0.034208,0.0082467
0.77719,0.86299,-2.2555,8.8652,-0.059559,0.029932,0.0097738
0.80655,0.90221,-2.2751,9.0025,-0.068417,0.027489,0.033292
0.82141,0.76492,-2.1967,9.0613,-0.058032,0.025351,0.028405
0.85001,0.92183,-2.2751,8.8848,-0.049175,0.021075,0.018326
0.85458,0.74531,-2.4124,8.8652,-0.039401,0.019548,0.020159
0.86127,0.74531,-2.2751,8.9437,-0.026573,0.024435,0.020159
0.85083,0.60801,-2.2751,9.0613,-0.018326,0.027489,0.01069
0.85614,0.92183,-2.4713,8.9437,0.4218,0.023213,-0.042455
0.85199,0.8826,-2.2751,8.9437,0.46151,0.044593,-0.047037
0.85486,0.74531,-2.3536,8.9437,0.42058,0.059559,-0.0015272
0.8443,0.74531,-2.1575,8.9437,0.29505,0.076053,-0.0064141
0.8244,0.8826,-2.2751,8.8064,0.12706,0.090103,-0.017715
0.80685,0.98067,-2.2948,8.8652,-0.033292,0.078802,-0.027489
0.78186,0.90221,-2.2948,8.7279,0.2364,0.029932,-0.035736
0.76556,0.66685,-2.1575,9.0025,0.33598,-0.035125,-0.040623
0.74643,0.74531,-2.1182,9.0417,-0.11118,-0.085216,0.0076358
0.7623,0.82376,-2.2751,8.9437,-0.037874,-0.10537,0.011912
0.76987,0.90221,-2.432,8.8064,0.025962,-0.091019,-0.050702
0.79471,0.74531,-2.3144,8.8456,0.047342,-0.061087,-0.045509
0.81979,0.56879,-1.8829,9.3359,0.0085521,-0.036957,-0.035125
0.85031,0.80415,-2.0986,9.3555,-0.053145,-0.014355,-0.022297
0.86862,0.90221,-2.5105,8.4337,-0.13897,0.010079,-0.0042761
0.88174,0.76492,-2.6086,8.2572,-0.15974,0.019548,0.0048869
0.87347,0.74531,-2.7851,8.4141,-0.18784,0.0067195,-0.059254
0.85638,1.1964,-2.687,9.0417,-0.19242,-0.014966,-0.086743
0.84824,0.64724,-2.5105,9.2183,-0.18631,-0.029016,0.014355
0.81192,0.96105,-1.9809,9.1202,-0.16738,-0.041539,0.0097738
0.77078,0.80415,-1.5102,9.179,-0.12431,-0.054367,0.0061087
0.70291,0.66685,-1.7848,9.1986,-0.082772,-0.058643,0.0064141
0.62488,0.98067,-2.1575,8.9437,-0.10873,-0.062003,-0.016188
0.53946,1.118,-2.2751,8.8848,-0.15669,-0.068111,-0.044288
0.46683,1.0787,-1.9809,8.8652,-0.035736,0.023518,0.011606
0.375,1.0395,-1.6475,8.6887,-0.15485,-0.014966,0.011301
0.2782,0.49033,-1.8437,9.0417,-0.27458,-0.046731,0.02138
0.17755,0.41188,-2.1967,9.2183,-0.31643,-0.067806,0.017715
0.088013,0.56879,-2.6086,9.0417,-0.26145,-0.054367,-0.0036652
-0.0046997,0.43149,-2.7655,9.2183,-0.14752,-0.021686,-0.019853
-0.10529,0.23536,-3.0597,9.3163,-0.00030543,0.0045815,-0.020464
-0.25436,0.41188,-3.2166,9.3359,0.13714,0.011301,-0.0073304
-0.45413,0.92183,-3.0008,9.0417,-0.2865,-0.08827,0.39523
-0.72656,2.0006,-1.118,7.8649,-0.30604,-0.035736,0.43768
-0.97769,1.6475,0.52956,7.9238,-0.21777,0.059559,-0.032376
-0.99997,1.0395,-0.41188,9.2575,-0.057116,0.14172,0.0085521
-0.99997,1.1768,-2.5301,10.415,0.1069,0.20342,0.068417
-0.99997,1.1768,-3.9423,10.591,0.22724,0.27092,0.1347
-0.99997,0.92183,-4.3542,9.2575,0.24679,0.37354,0.21044
-0.99997,0.2942,-3.9423,7.1785,0.13164,0.52565,0.29871
-0.93655,1.1376,-3.8246,6.747,-0.069944,0.67989,0.10415
-0.64081,2.432,-3.0008,8.2572,-0.29077,0.76786,0.11484
-0.3309,2.2359,-2.3732,10.12,-0.4777,0.77427,0.41936
-0.095856,2.2751,-1.3533,9.9636,-0.60048,0.70402,0.3937
-0.084442,2.9028,-0.72569,8.0022,-0.61789,0.59223,0.33659
-0.34619,2.9224,-0.47072,6.3547,-0.47861,0.50519,0.25168
-0.78693,0.039227,-0.64724,7.3354,-0.20464,0.4777,0.18784
-0.99997,-1.9613,-3.3931,9.787,0.10201,0.4945,0.13714
-0.99997,0.45111,-4.6287,10.297,0.61392,0.0073304,0.073304
-0.99997,0.82376,-4.0403,9.8851,0.37415,-0.078496,-0.062919
-0.99997,1.5298,-1.6279,8.8064,0.29108,-0.10782,0.015577
-0.99997,1.9221,-0.37265,7.4531,0.38698,0.0015272,-0.015882
-0.85648,2.2948,-0.52956,6.845,0.51924,0.281,-0.031765
-0.58728,2.1575,-1.118,7.8649,0.56566,0.5058,0.06353
-0.42355,2.0594,-1.3533,9.0613,0.39248,0.41203,0.16707
-0.42468,2.589,-0.52956,8.5514,0.053451,0.11698,0.15791
-0.61243,2.3732,0.13729,7.3158,-0.18051,-0.11881,-0.060781
-0.91223,1.3533,-0.25497,7.2961,-0.14416,-0.21319,-0.04612
-0.99997,-0.50995,-1.9809,8.5514,0.090408,-0.22297,-0.22663
-0.99997,-0.54917,-3.8638,9.5713,0.37599,-0.20067,-0.29413
-0.99997,0.098066,-4.4914,10.199,0.5623,-0.16218,-0.24587
-0.99997,-0.05884,-4.0207,10.925,0.54336,-0.12248,-0.17226
-0.99997,-0.019613,-2.7459,10.591,0.33903,-0.11729,-0.11729
-0.99997,0.41188,-1.9809,10.454,0.061087,-0.11423,-0.083078
-0.89273,0.86299,-2.432,10.219,-0.045509,0.040928,0.048869
-0.54138,1.3337,-2.8243,9.434,0.017104,0.030238,0.045815
-0.17078,1.6083,-2.4713,9.0417,0.078802,0.037568,0.045815
0.12268,1.5298,-1.8829,9.0417,0.11454,0.061697,0.032376
0.32486,1.4318,-1.1768,9.1202,0.11515,0.09163,0.023213
0.42221,0.90221,-1.4122,8.9437,0.06017,0.10843,0.022297
0.40698,1.118,-1.5298,8.6495,-0.093768,0.10721,0.028405
0.26584,0.5884,-1.5102,8.2572,-0.085827,0.079718,0.038485
0.049377,0.27459,-2.1378,8.1787,-0.032376,0.034208,0.049175
-0.15799,0.56879,-2.8832,8.1787,-0.061392,-0.0061087,0.036041
-0.31042,0.45111,-2.8832,9.5125,-0.13347,-0.02474,0.036346
-0.41473,0.41188,-2.432,9.6694,-0.14416,-0.025351,0.033903
-0.49472,0.49033,-2.2751,9.3359,-0.1069,-0.021686,0.04215
-0.55331,0.90221,-2.1967,8.5906,-0.057421,-0.020159,0.052534
-0.58752,0.98067,-2.3732,8.4729,-0.02474,-0.02138,0.058643
-0.61905,0.90221,-2.1967,8.5514,-0.018631,-0.022907,0.058338
-0.63486,0.76492,-2.1182,8.7475,-0.12584,-0.076358,0.00061087
-0.63202,0.74531,-2.3732,8.8064,-0.083078,-0.048869,0.0048869
-0.61002,0.66685,-2.0398,8.7475,-0.020464,-0.019853,-0.0082467
-0.57468,0.86299,-2.0986,8.8652,0.044288,0.007025,-0.0073304
-0.55142,0.72569,-2.0594,8.8652,0.097738,0.027489,0.0018326
-0.51926,0.74531,-2.1182,8.9044,0.13439,0.040928,0.0054978
-0.48648,0.90221,-2.0594,8.8456,0.15577,0.062308,-0.0009163
-0.45685,0.76492,-2.0986,8.8652,0.15669,0.077885,-0.0064141
-0.41119,0.76492,-2.3732,8.9044,-0.02138,0.077885,0.038179
-0.37305,0.76492,-2.5301,8.8064,-0.064752,0.069639,0.046731
-0.35205,0.80415,-1.9613,9.0613,-0.063225,0.052534,-0.0012217
-0.33063,0.49033,-1.7456,9.3359,-0.052229,0.038485,-0.002138
-0.30057,0.74531,-2.0594,9.179,-0.060476,0.042455,0.0045815
-0.26981,0.5884,-2.432,9.0417,-0.078802,0.054672,0.011606
-0.22964,0.56879,-2.5105,9.3163,0.11759,0.059865,0.018937
-0.1857,0.80415,-2.3144,9.179,0.04948,0.054367,0.028711
-0.14288,0.56879,-2.2555,8.8848,0.12492,0.002138,-0.068111
-0.11078,0.76492,-2.589,8.7083,0.013744,-0.0054978,-0.027184
-0.071899,0.80415,-2.2751,8.5514,-0.046731,0.017104,-0.14905
-0.053772,0.80415,-2.0594,8.8652,0.021991,0.077885,-0.20372
-0.057587,0.56879,-2.1967,9.0025,0.21075,0.1744,-0.23305
-0.043915,0.74531,-2.432,8.9044,0.40103,0.29108,-0.24496
-0.03833,0.8826,-2.4517,8.6887,0.47861,0.37263,-0.21625
-0.036072,0.98067,-2.0006,8.7083,0.42791,0.38423,-0.13928
-0.033356,0.70608,-2.0594,8.8456,-0.00061087,0.0061087,0.01741
-0.050049,0.72569,-2.1967,8.9633,0.050091,0.041539,0.025045
-0.064331,0.74531,-2.0986,9.1594,0.059865,0.059865,0.021686
-0.053741,0.66685,-2.0986,9.0613,0.039401,0.055283,0.019853
-0.050995,0.90221,-2.4517,8.7475,0.0015272,0.037568,0.016493
-0.043915,0.82376,-2.4517,8.7083,-0.036652,0.017715,0.012828
-0.046967,0.74531,-2.1967,8.9437,-0.059865,0.0030543,0.009163
-0.049103,0.74531,-2.1967,9.0025,-0.076358,-0.010996,0.0088575
-0.032959,0.70608,-2.0986,9.179,-0.12278,-0.025351,-0.048869
-0.04364,0.74531,-2.1967,9.3359,-0.1573,-0.050396,-0.099266
-0.022034,0.54917,-2.3144,9.434,-0.19578,-0.087354,0.0281
0.006012,0.54917,-2.432,9.4144,-0.23121,-0.11851,0.026878
0.038818,0.70608,-2.7459,9.2183,-0.28222,-0.13806,0.018021
0.069977,0.86299,-2.8439,8.3749,-0.34575,-0.15241,0.0076358
0.11987,1.0199,-3.1381,8.0022,-0.39676,-0.15791,-0.0024435
0.23206,1.3729,-3.2558,8.4141,-0.38149,-0.17104,-0.018326
0.36996,1.4514,-3.0989,8.4141,-0.31612,-0.19487,-0.09896
0.51266,1.3337,-2.4713,9.1202,-0.20953,-0.19426,-0.095906
0.60617,1.2945,-1.9809,9.0025,-0.061087,-0.15424,-0.13592
0.63669,1.824,-2.2163,8.2768,0.080329,-0.10293,-0.13439
0.63354,1.7456,-2.6086,7.5511,0.18601,-0.057421,-0.12156
0.62051,1.2945,-2.0594,7.963,0.25381,-0.017715,-0.13317
0.60278,0.39227,-1.118,8.8652,0.26817,0.0082467,-0.14508
0.57724,0.078453,-0.90221,9.0613,0.21808,0.013134,-0.13103
0.548,0.098066,-1.5102,9.4732,0.49724,0.41233,0.022602
0.52448,-0.25497,-2.4124,9.9047,0.53481,0.44074,0.039095
0.53668,0.019613,-2.8832,9.8851,0.51404,0.44868,-0.076053
0.54175,0.33343,-2.7459,9.5125,0.42577,0.41936,-0.051924
0.50204,0.5884,-2.2163,9.0417,0.27672,0.34636,-0.010385
0.35788,0.64724,-1.6475,9.0221,0.15333,0.26817,0.012523
0.17038,1.1768,-1.3141,9.0025,0.12065,0.21105,-0.0076358
-0.077393,1.3533,-0.8826,8.7475,0.21594,0.21716,-0.0015272
-0.33603,1.0787,-0.78453,8.6299,0.31337,0.2248,-0.058948
-0.58203,1.0395,-0.72569,8.6299,0.2926,0.14539,-0.12431
-0.78543,0.56879,-1.1768,8.8064,0.24862,0.027489,0.03207
-0.90591,0.2942,-1.5691,8.9437,0.082772,-0.11332,0.011301
-0.9313,0.25497,-1.4318,8.7083,-0.16341,-0.21289,0.035736
-0.92957,-0.05884,-0.62763,9.2575,-0.36957,-0.23518,0.036652
-0.92096,-0.45111,-0.72569,10.062,-0.50152,-0.2303,0.018326
-0.97455,-0.13729,-1.2553,9.6301,-0.53329,-0.22602,-0.0076358
-0.99997,-0.35304,-1.4122,9.5713,-0.0061087,-0.19517,-0.12584
-0.99997,-0.84337,-0.80415,11.552,0.20831,-0.10293,-0.12981
-0.99997,-0.05884,-0.31381,11.317,0.27061,0.053145,-0.1912
-0.99997,0.098066,-0.23536,8.7083,0.15485,0.19914,-0.22358
-0.99997,0.098066,-0.86299,7.61,-0.086437,0.25412,-0.1628
-0.99997,0.54917,-1.7456,7.61,-0.36713,0.22938,-0.070555
-0.99271,0.72569,-1.0199,8.4926,-0.44379,0.14813,-0.065057
-0.80246,-0.35304,-0.25497,9.2575,-0.25198,0.043982,-0.10201
-0.55386,-0.52956,-0.17652,9.6497,-0.83291,-0.047647,0.049786
-0.29968,-0.13729,-0.72569,9.8066,-0.84208,-0.10996,0.059865
-0.052124,0.039227,-1.2553,9.4928,-0.83322,-0.13225,-0.12187
0.23862,-0.05884,-1.6279,9.5713,-0.86682,-0.14447,-0.097433
0.52524,0.13729,-1.4906,9.5713,-0.94257,-0.16982,-0.062308
0.79276,0.098066,-1.118,9.8066,-1.04,-0.20708,-0.021991
0.98441,0.35304,-1.118,9.8066,-0.60292,-0.26817,0.014355
1,0.8826,-1.8829,8.9044,-0.75747,-0.32406,0.038179
1,1.0591,-2.432,8.5318,-0.24465,-0.20678,0.14447
1,1.2356,-2.7459,8.7083,-0.37965,-0.22083,0.15608
1,1.3533,-1.6279,8.7868,-0.50152,-0.24374,0.10079
1,0.76492,-1.1768,8.7083,-0.58765,-0.27061,0.10171
0.97717,0.66685,-1.216,8.4926,-0.60995,-0.2923,0.10354
0.87192,0.41188,-2.1967,8.7083,-0.55741,-0.30268,0.10904
0.76334,0.56879,-2.8243,9.1986,-0.45968,-0.30757,0.11851
0.70868,0.43149,-2.4124,9.1202,-0.36346,-0.31154,0.13195
0.6745,0.41188,-1.8437,9.1202,-0.27611,-0.32376,0.087354
0.62592,0.27459,-1.2553,9.0221,-0.29138,-0.36194,0.075747
0.58261,-0.33343,-1.3337,9.1986,-0.35247,-0.42241,0.17135
0.56363,-0.13729,-2.0986,9.3359,-0.4218,-0.48594,0.18021
0.5752,0.19613,-2.5105,9.3752,-0.44624,-0.52412,0.1686
0.60635,0.019613,-2.3144,9.3359,-0.41783,-0.5284,0.13408
0.62308,0.41188,-1.9417,9.434,-0.36163,-0.49999,0.10476
0.60477,0.56879,-1.6671,9.1006,-0.30482,-0.43402,0.09499
0.5603,0.54917,-1.6867,8.4926,-0.23121,-0.35369,-0.10476
0.50668,0.50995,-2.1967,8.8456,-0.10721,-0.27184,-0.11637
0.42337,0.49033,-2.942,9.179,0.054978,-0.18082,0.057727
0.32657,0.41188,-3.0793,9.3359,0.19242,-0.10782,0.030849
0.21124,0.19613,-2.3732,9.179,0.27489,-0.069944,0.00030543
0.076721,0.41188,-2.6086,9.1202,0.30513,-0.047647,-0.027489
-0.076141,1.118,-2.9028,8.7475,0.29658,-0.013439,-0.055589
-0.24097,1.2749,-3.0793,8.1591,0.31032,0.009163,-0.086437
-0.42783,1.6867,-3.1577,7.6296,-0.37751,-0.030543,0.079718
-0.62033,1.118,-3.3146,7.708,-0.40928,-0.097128,0.091019
-0.77908,1.0787,-3.3931,8.5514,0.58277,0.047647,-0.082467
-0.90366,1.3533,-3.197,8.5318,0.70066,0.061087,-0.053756
-0.98566,1.3337,-2.8243,8.4926,0.77641,0.059865,-0.02138
-0.99997,0.90221,-2.4713,8.7279,0.76633,0.057116,0.01069
-0.99997,0.90221,-1.7848,8.8848,0.67042,0.048564,0.036957
-0.99997,0.90221,-1.3141,9.1986,0.52595,0.025045,0.050702
-0.99997,0.98067,-1.2553,9.0025,0.16768,0.10782,-0.095906
-0.99997,0.98067,-1.1768,8.7279,0.2135,0.11209,-0.058338
-0.99997,1.118,-1.2553,8.8652,0.17226,0.1069,-0.16127
-0.99997,1.6867,-1.5691,9.1594,0.10324,0.08491,-0.1405
-0.99997,1.7652,-2.0006,8.0022,0.065668,0.069944,-0.13103
-0.99997,1.3925,-2.5105,8.1787,0.076664,0.08094,-0.14325
-0.99997,0.56879,-2.9028,10.63,0.12004,0.11148,-0.1405
-0.99997,1.5887,-2.432,11.14,0.14294,0.14722,-0.12156
-0.99997,2.432,-2.0986,9.787,-0.10904,0.17226,0.13744
-0.99997,2.3732,-1.726,8.0807,-0.17868,0.1689,0.093462
-0.99997,2.0202,-1.6475,7.5903,-0.17898,0.13408,-0.0058032
-0.99997,2.1771,-2.0594,7.61,-0.09896,0.10232,0.033598
-0.99997,1.8633,-2.8243,7.7473,-0.014355,0.10507,0.042761
-0.8793,1.5102,-3.3539,7.7865,0.062003,0.12584,0.06353
-0.51559,1.1768,-2.2555,8.4141,0.10324,0.13408,0.11881
-0.17883,0.45111,-1.6671,9.2575,0.0009163,0.11332,0.16768
0.092377,-0.35304,-2.8243,9.434,-0.17471,0.026573,0.025962
0.33682,-0.35304,-3.5696,9.2575,-0.24648,-0.1069,0.10476
0.5531,-0.019613,-3.2166,9.5321,-0.27764,-0.21075,0.037874
0.71027,0.098066,-2.0594,9.1986,-0.30391,-0.26481,0.00030543
0.78433,0.25497,-1.8044,8.7279,-0.35064,-0.27947,-0.036957
0.77539,0.50995,-1.5102,8.7083,-0.38973,-0.25504,-0.06353
0.68152,0.74531,-1.0983,8.8456,0.065668,-0.20159,-0.053756
0.5571,0.54917,-1.0003,9.3359,-0.046426,-0.14294,-0.0281
0.41119,1.0591,-1.3337,9.1594,0.31154,0.31215,-0.17135
0.28809,1.3533,-1.7456,8.4337,0.40561,0.40012,-0.17165
0.17166,0.74531,-2.2555,9.8263,0.30146,0.41722,-0.015577
0.040863,0.43149,-2.432,10.591,0.092546,0.34728,0.045509
-0.061584,0.74531,-2.5301,10.16,-0.098655,0.23243,0.055589
-0.1272,1.0395,-2.2555,9.1202,-0.18265,0.14233,0.017104
-0.16287,1.824,-1.6671,8.316,-0.11912,0.10446,-0.066584
-0.20282,1.7064,-1.471,8.6887,0.03146,0.1011,-0.14264
-0.24493,1.5298,-2.4517,7.7669,-0.053451,-0.010385,0.025962
-0.30179,2.1575,-2.9224,6.5116,-0.083994,-0.01405,0.0281
-0.40875,0.54917,-1.3141,8.0807,-0.071471,-0.015577,-0.0051924
-0.63953,-3.3539,-1.824,12.082,-0.040317,-0.0027489,0.00030543
-0.84119,-0.45111,-4.7072,9.0221,-0.01069,0.021686,0.0042761
-0.85455,1.824,-4.8053,8.4141,0.013134,0.034819,0.0067195
-0.67688,0.90221,-2.687,9.3163,0.032681,0.044593,0.012828
-0.3815,0.56879,-1.118,9.8066,0.048258,0.055894,0.021686
-0.081818,0.66685,-1.6867,8.8064,0.050702,0.068722,0.020159
0.19882,1.1768,-2.589,8.3945,0.047342,0.083994,0.015577
0.43921,1.6867,-2.7851,8.3749,0.03879,0.099571,0.026267
0.63281,1.3729,-2.5693,8.8456,0.019853,0.11118,0.030543
0.77829,1.0787,-2.687,9.3359,0.013439,0.11759,0.036957
0.86145,1.3729,-2.7262,9.434,0.018937,0.11759,0.03207
0.8847,1.5102,-2.6282,8.8064,0.011301,0.10904,0.02138
0.85477,1.4318,-2.4124,7.8061,-0.011912,0.094073,0.018937
0.79581,1.118,-2.2751,7.6296,0.096211,-0.10476,-0.043066
0.71368,0.98067,-2.4517,8.2572,0.059865,-0.12401,-0.037568
0.65323,0.66685,-2.687,8.8848,0.00061087,-0.12889,-0.036652
0.59814,1.118,-3.0793,9.0025,-0.060476,-0.11729,-0.047342
0.57092,1.2356,-2.687,8.7083,-0.07422,-0.086437,-0.065668
0.53571,1.0591,-2.2751,8.5318,-0.025962,-0.035125,-0.080023
0.51276,1.1964,-2.2948,8.4926,0.047647,0.022602,-0.07758
0.44522,1.1768,-2.4517,8.4141,0.10751,0.072082,-0.058032
0.37628,0.80415,-2.432,8.6299,0.087354,0.085521,-0.020159
0.30426,1.1964,-2.4517,8.5514,0.032987,0.055283,-0.012828
0.23172,1.0787,-2.5105,8.4141,0.013134,0.0015272,-0.037263
0.16006,1.0395,-2.589,8.7279,0.036957,-0.034208,-0.042761
0.090393,0.76492,-2.4517,8.7868,0.076664,-0.037263,-0.043371
0.034851,0.76492,-2.6086,9.0417,0.092241,-0.018326,-0.036346
0.0097046,1.118,-2.7459,9.0417,0.066584,-0.0009163,-0.029627
0.0023499,1.0199,-2.5105,8.8456,0.0094684,0.00030543,-0.025045
-0.008606,1.2945,-2.5105,8.7279,0.058032,0.0024435,-0.0051924
0.0068665,1.0395,-2.3144,8.8064,0.033903,0.009163,-0.007025
0.022064,0.98067,-2.5105,8.9044,-0.0039706,0.016493,-0.00030543
0.049561,0.82376,-2.4124,8.8652,-0.048258,0.019242,-0.0051924
0.13,1.0199,-2.3536,9.0221,-0.076969,0.018631,-0.0064141
0.22357,0.86299,-2.7459,8.6299,-0.074526,0.014661,-0.0079412
0.36453,1.216,-2.9224,8.1787,0.039095,0.0054978,-0.0079412
0.48712,1.216,-2.7851,8.3749,0.058643,-0.0018326,-0.0039706
0.60687,0.92183,-2.7459,8.8456,0.038485,0.040928,-0.030849
0.71292,1.118,-2.6086,8.8848,0.098349,0.052534,-0.044593
0.79419,1.1964,-2.8832,9.0417,0.13653,0.063225,-0.00030543
0.8486,1.2945,-3.197,8.9044,0.12431,0.062003,0.013744
0.88156,1.4318,-3.0597,9.1986,0.058643,0.038179,0.017715
0.87021,1.0395,-2.7262,9.1594,-0.036041,-0.0054978,0.0067195
0.84467,0.74531,-2.432,9.1202,-0.11179,-0.051924,-0.0015272
0.80026,0.96105,-2.7459,8.8064,-0.13653,-0.079107,-0.012523
0.73553,1.1376,-2.8832,8.5318,-0.1127,-0.079718,-0.041844
0.66461,0.90221,-3.0008,8.7083,-0.053756,-0.061087,-0.036346
0.60773,1.0395,-2.687,8.6495,0.018326,-0.034819,-0.050091
0.54279,0.74531,-2.5693,8.6495,0.080634,-0.010385,-0.047953
0.45593,0.82376,-2.5105,8.4926,0.11759,0.010079,-0.043066
0.36899,0.86299,-2.2948,8.7083,0.1182,0.016799,-0.036346
0.29791,0.80415,-2.5105,8.6299,0.094684,0.01405,-0.033598
0.24951,0.8826,-2.8243,8.5514,0.075136,0.010996,-0.039095
0.20572,0.86299,-2.9028,8.8064,0.016799,0.017104,-0.0030543
0.17981,0.92183,-2.9028,8.8652,-0.037263,0.026573,-0.00061087
0.16422,1.1964,-2.687,8.7083,-0.068417,0.021686,-0.025351
0.1575,1.0395,-2.5693,8.4926,-0.065973,0.0048869,-0.01405
0.15903,1.0395,-2.6086,8.4926,-0.036957,-0.012217,-0.010385
0.13867,1.0395,-2.7655,8.4926,0.0051924,-0.018937,-0.0094684
0.13101,0.92183,-2.9028,8.8456,0.067195,-0.012523,-0.0076358
0.12857,1.0395,-2.589,8.8652,0.056505,-0.0045815,-0.0039706
0.11108,1.0787,-2.4713,8.7083,-0.11912,0.0562,0.026267
0.12552,0.90221,-2.9028,8.8456,0.038485,0.057727,0.01405
0.15076,1.118,-2.7459,8.5514,0.11912,0.057727,-0.018021
0.1586,1.1964,-2.8243,8.6299,0.16188,0.047647,0.00061087
0.17523,1.0199,-2.7459,8.7475,0.1408,0.029932,0.017104
0.16888,1.118,-2.4713,8.9044,0.071166,0.010385,0.03207
0.15103,1.118,-2.6086,8.8652,-0.012217,-0.0009163,0.039401
0.14053,1.216,-2.7655,8.8652,-0.081245,0.00030543,0.035125
0.14645,1.118,-2.5693,8.8064,-0.09499,-0.0015272,0.060476
0.13809,0.90221,-2.5105,8.8652,-0.03146,0.016188,0.046731
0.12308,1.0199,-2.7459,8.7083,0.030543,0.03146,-0.0281
0.11987,1.216,-2.8243,8.5514,0.054978,0.03543,-0.0097738
0.10681,1.0787,-2.7262,8.6299,0.031154,0.029932,0.014355
0.088348,0.90221,-2.432,8.8064,-0.022297,0.0045815,0.033292
0.062836,0.72569,-2.7262,8.7475,-0.079107,-0.036957,0.052229
0.042053,1.0787,-2.7459,8.6299,-0.11301,-0.067195,0.064752
0.020752,0.86299,-2.4124,8.9044,-0.076053,-0.067195,0.016799
0.0047913,1.0199,-2.2751,9.0221,-0.038485,-0.039095,0.0048869
-0.01593,1.0199,-2.4517,9.0417,-0.011606,-0.00030543,0.049175
-0.039124,1.118,-2.7459,8.8064,0.0012217,0.03207,0.054062
-0.058044,1.1964,-2.942,8.6299,0.012523,0.04215,0.050702
-0.087433,1.0395,-2.9028,8.7083,0.021075,0.040317,0.045815
-0.11804,1.0395,-2.7851,8.7868,0.028711,0.040928,0.036957
-0.15881,0.76492,-2.7459,9.0025,0.047037,0.041844,0.025962
-0.2012,0.90221,-2.6086,8.9437,0.066584,0.046731,-0.027794
-0.23355,1.0395,-2.6086,8.5514,0.069333,0.050091,-0.02474
-0.26654,1.0787,-2.6086,8.5514,0.044899,0.043982,-0.0036652
-0.28018,0.92183,-2.8243,8.2376,0.0067195,0.036041,-0.0039706
-0.27075,1.1768,-2.8243,8.3945,-0.028711,0.035736,-0.011301
-0.2558,1.0395,-2.5105,8.9044,-0.057727,0.037568,-0.026573
-0.21024,1.1964,-2.2751,8.8456,-0.049786,0.04215,-0.034208
-0.17776,1.0787,-2.5105,8.316,0.0015272,0.052534,-0.032376
-0.16669,1.0591,-2.7851,8.1787,0.12798,-0.010079,-0.0033598
-0.15173,0.98067,-2.9028,8.4141,0.17593,-0.064141,-0.029016
-0.14563,0.80415,-2.8243,8.8064,0.20342,-0.13378,-0.013439
-0.1539,0.90221,-2.7655,9.0221,0.15241,-0.18112,0.018631
-0.17972,0.90221,-2.3732,8.8652,0.065057,-0.2135,0.018631
-0.20007,0.76492,-2.2163,8.7083,-0.090103,-0.24954,0.0054978
-0.21823,1.0591,-2.2948,8.4926,-0.32254,-0.28833,0.024435
-0.23746,1.0395,-2.5693,8.3945,-0.54734,-0.33048,0.025656
-0.23404,0.66685,-2.8832,8.3357,-0.49388,-0.36744,0.0048869
-0.2099,1.0395,-2.942,8.7083,-0.24618,-0.37415,-0.020159
-0.15128,0.86299,-2.7262,9.179,-0.029932,-0.33139,-0.054367
-0.090088,0.98067,-2.4517,9.1202,0.12065,-0.23824,-0.087354
-0.037903,0.54917,-2.687,9.3359,0.13225,-0.13378,-0.092852
0.012177,0.80415,-2.687,10.199,0.033903,-0.062003,-0.080329
0.04422,0.23536,-2.687,10.375,-0.67287,-0.041844,-0.047953
0.044678,0.74531,-2.432,9.9832,-0.65637,-0.079718,0.0061087
0.017242,0.66685,-1.7456,9.5909,-0.13531,-0.135,-0.030238
-0.038635,0.66685,-1.6867,8.6887,-0.08827,-0.16371,-0.037874
-0.12167,0.98067,-2.4713,7.5511,-0.034514,-0.16035,-0.050396
-0.20935,1.0199,-3.3931,7.61,0.0012217,-0.13897,-0.077274
-0.26639,1.118,-2.9028,8.1199,-0.011606,-0.11026,-0.076969
-0.30035,1.1964,-2.4124,8.7083,-0.078496,-0.065363,-0.065363
-0.31671,1.1964,-2.7459,8.4926,-0.078191,0.0073304,-0.053756
-0.30679,1.3533,-3.2362,8.0807,-0.14416,0.072998,-0.040623
-0.2858,1.5102,-3.197,8.1787,-0.19731,0.091324,-0.12614
-0.25925,1.6083,-2.9812,8.0022,-0.16188,0.090103,-0.14325
-0.23932,1.6083,-2.8439,7.2373,-0.14875,0.10751,-0.055589
-0.20737,1.216,-3.3146,7.61,-0.16402,0.14539,-0.073609
-0.15091,1.1964,-3.6285,8.316,-0.20189,0.17929,-0.08827
-0.074982,0.98067,-3.3735,8.4337,-0.22052,0.21166,-0.093157
0.014343,1.1964,-3.0597,8.1199,-0.15913,0.23366,-0.095906
0.1113,1.3337,-2.589,8.2572,-0.20739,0.23579,-0.10507
0.19897,1.3337,-2.4713,8.7475,0.092852,0.15394,-0.031154
0.28445,1.0591,-2.5105,9.179,0.08094,0.13317,-0.028711
0.315,0.98067,-1.9025,9.689,0.12737,0.1347,-0.12859
0.31052,1.118,-1.9809,9.8066,0.197,0.16829,-0.11912
0.302,1.0591,-2.4517,9.7478,0.23824,0.19181,-0.092852
0.26865,1.0199,-2.7262,9.7478,0.23335,0.17898,-0.048869
0.22617,1.0395,-2.6086,9.6497,0.20617,0.16157,-0.024129
0.19171,0.98067,-2.432,9.3752,0.16646,0.13958,-0.029016
0.17618,0.90221,-2.5105,9.1594,0.085216,0.10843,0.06689
0.15863,1.118,-2.9028,8.5514,0.063835,0.075747,0.069944
0.1416,1.2945,-2.5301,8.4926,0.063225,0.051924,-0.018937
0.10342,0.86299,-2.8243,8.4337,0.069639,0.036346,-0.0064141
0.088593,1.2945,-3.3735,8.218,0.072082,0.025962,0.01069
0.070709,1.2945,-3.3146,7.8649,0.062614,0.018631,0.029932
0.074615,1.216,-3.4519,7.9238,0.036957,0.010385,0.042761
0.091949,1.1964,-3.2362,8.4141,0.020464,-0.0030543,0.054978
0.12982,1.1964,-3.2166,8.6299,0.026267,-0.011912,0.062919
0.1571,1.216,-3.3146,8.2376,0.030543,-0.007025,0.076358
0.15381,1.3729,-2.8243,8.3945,0.01741,-0.0033598,0.073915
0.13251,1.0787,-2.7459,8.4926,-0.012523,-0.0054978,0.075747
0.072632,1.1768,-2.4517,8.8652,-0.037568,-0.010996,0.07758
-0.0062866,0.70608,-2.5301,8.8652,-0.034208,-0.0082467,0.078496
-0.077637,0.74531,-2.4517,8.8456,-0.0073304,0.015577,0.071777
-0.13718,0.90221,-2.3536,8.5906,0.021075,0.050396,0.060476
-0.17084,0.80415,-2.3732,8.7279,-0.039401,-0.056505,-0.11118
-0.19467,0.49033,-2.589,8.8652,-0.013134,-0.014966,-0.12004
-0.21082,0.50995,-2.2751,8.7475,0.031154,0.026878,0.010385
-0.23325,0.5884,-2.2751,8.6887,0.089186,0.078802,-0.010385
-0.23438,0.54917,-2.2948,8.5514,0.14539,0.12828,-0.039401
-0.23956,0.80415,-2.2555,8.4141,0.17807,0.15852,-0.054062
-0.24316,0.80415,-2.1378,8.5318,0.17685,0.17807,-0.076969
-0.23898,0.98067,-2.0006,8.9044,0.14111,0.17715,-0.10446
-0.22849,0.66685,-2.1967,9.1594,-0.31857,-0.4496,-0.024129
-0.20868,0.90221,-2.8832,9.5125,-0.18479,-0.39523,-0.018937
-0.16922,1.3533,-3.4519,9.3752,-0.083689,-0.33262,-0.091935
-0.085693,1.1964,-3.7658,10.12,0.039706,-0.26481,-0.10049
0.015198,1.118,-3.0008,11.219,0.10079,-0.19303,-0.11301
0.095764,1.4318,-1.6279,10.356,0.072998,-0.10568,-0.10201
0.11047,1.824,-1.7456,8.0807,-0.71166,-0.037874,-0.066279
0.048615,2.2359,-2.432,7.0608,-0.52351,0.0033598,-0.027794
-0.045776,1.7456,-2.9028,7.1392,0.080023,0.041233,0.29352
-0.16486,1.6867,-2.5105,8.218,0.22602,0.10873,0.33139
-0.27591,0.80415,-2.0594,8.4337,0.32773,0.21564,0.01405
-0.40182,0.39227,-2.0594,8.3749,0.38454,0.34331,0.051007
-0.48694,0.64724,-2.5693,8.0807,0.46731,0.45296,0.12798
-0.55624,0.56879,-2.8243,8.7475,0.45937,0.4835,0.2361
-0.63086,0.56879,-2.6086,9.2183,0.019242,0.50641,0.29383
-0.72803,0.74531,-2.3144,7.8061,0.0042761,0.56444,0.29505
-0.86618,-0.84337,-2.6086,9.689,0.3207,0.19151,0.1182
-0.98398,-1.4906,-2.9812,12.082,0.24618,0.17959,0.1463
-0.99997,0.27459,-2.9028,10.846,0.17898,0.16799,0.03879
-0.99997,0.74531,-2.1182,8.1787,0.15363,0.1799,0.01069
-0.99997,0.66685,-1.7456,7.1392,0.18601,0.21044,-0.0082467
-0.99997,0.90221,-2.1575,7.9238,0.2474,0.25045,-0.0097738
-0.99997,1.3925,-2.0594,8.218,0.25107,0.2865,0.023824
-0.99997,1.5298,-2.1378,8.4337,0.14905,0.29077,0.078496
-0.99997,1.9221,-2.4517,7.9434,0.091324,0.2813,-0.18204
-0.99997,2.0202,-2.3144,7.1589,0.20128,0.33323,-0.12309
-0.95291,1.5298,-1.8829,7.61,0.19303,0.28711,0.18631
-0.91443,0.80415,-2.4124,7.3158,-0.0281,0.072082,0.18937
-0.9639,-0.27459,-1.9809,11.827,-0.29688,-0.17287,0.10049
-0.99997,-1.6867,-3.7658,11.533,-0.60079,-0.3821,0.022907
-0.99997,1.3729,-4.7856,9.3359,-0.79199,-0.48106,-0.055894
-0.99997,1.8044,-3.5304,8.5514,-0.81551,-0.48808,-0.16249
-0.93036,0.64724,-1.3533,9.0417,-0.50946,-0.46945,0.04215
-0.67447,0.039227,-0.8826,9.2183,-0.32498,-0.46273,0.057116
-0.37311,0.66685,-2.1967,8.2768,-0.13225,-0.41783,-0.11118
-0.048828,1.3533,-3.55,8.218,-0.056505,-0.37324,-0.064141
0.29477,1.4318,-3.4716,8.8456,-0.010385,-0.3488,-0.039401
0.57877,1.216,-2.9812,9.2575,0.0012217,-0.31185,-0.049175
0.78299,1.3533,-2.7851,8.9437,-0.054672,-0.2868,-0.027794
0.90045,1.1964,-2.0986,8.9044,-0.12004,-0.27489,0.025656
0.91748,1.216,-2.0398,8.2376,-0.17257,-0.2584,0.1066
0.87152,0.90221,-2.3144,8.2572,-0.22052,-0.23579,0.10263
0.81827,0.74531,-2.589,8.3945,-0.24435,-0.21533,0.085827
0.76196,0.74531,-2.7459,8.5514,-0.22083,-0.20678,0.1066
0.70941,0.23536,-2.589,8.8064,-0.14508,-0.19181,0.12156
0.67126,0.66685,-2.4124,9.0221,-0.025962,-0.1295,0.13134
0.64893,0.74531,-2.2948,8.9437,0.11729,-0.037874,0.12004
0.62476,0.80415,-2.1575,8.5514,0.25656,0.065668,0.10721
0.60553,0.72569,-1.9809,8.5514,0.041539,0.023213,0.075747
0.6106,0.90221,-1.9809,9.4928,0.025962,0.015577,0.11057
0.58804,1.3533,-2.5693,9.2183,0.007025,0.021686,-0.076053
0.51138,1.118,-2.687,8.2768,-0.010996,0.030238,-0.055589
0.30713,-0.05884,-2.0594,8.4141,-0.012217,0.041539,-0.029322
0.10309,-1.4514,-2.6086,11.219,-0.0073304,0.053145,-0.0058032
-0.097107,0.098066,-2.9028,11.14,-0.0039706,0.065057,0.014355
-0.25964,0.019613,-3.1381,8.316,0.0058032,0.076664,0.040623
-0.38797,0.41188,-2.432,7.4727,-0.01069,0.10934,-0.072998
-0.45639,0.56879,-1.8829,7.8649,0.010079,0.15455,-0.12126
-0.43387,0.80415,-2.1967,8.6887,0.080634,0.18631,0.14325
-0.35257,0.98067,-2.2751,8.8064,0.13134,0.27947,0.16463
-0.17776,1.216,-2.0594,8.5906,-0.044593,0.28558,0.14813
0.033112,1.1964,-2.3732,8.3945,-0.27336,0.068417,0.13867
0.22592,1.9613,-3.0793,7.9238,-0.46517,-0.19364,0.083689
0.37592,1.6867,-3.2362,7.8061,-0.56566,-0.39401,-0.01741
0.50961,1.2356,-2.8243,8.316,-0.044899,0.18173,0.038485
0.59848,1.118,-2.432,8.8652,0.018326,0.16402,-0.0088575
0.64682,1.2356,-2.2555,9.3359,0.081245,0.14875,0.083078
0.64236,1.3925,-2.0986,9.3163,0.17562,0.15455,0.095906
0.61264,1.2356,-2.2751,8.8456,0.2025,0.11668,0.1011
0.56683,1.0591,-2.687,8.1787,0.18418,0.065668,0.10721
0.47537,0.66685,-3.3735,8.2572,0.08827,-0.021686,0.11515
0.39474,0.17652,-3.0793,9.8459,-0.0088575,-0.10293,0.10201
0.28702,0.35304,-2.0594,11.16,-0.40042,-0.3259,-0.051924
0.15152,0.45111,-1.4122,11.042,-0.20006,-0.22694,-0.045509
0.011841,1.0395,-1.5691,9.1986,-0.021991,-0.12401,-0.0030543
-0.10007,1.4906,-1.824,7.9434,0.082467,-0.055589,0.0024435
-0.15082,1.7456,-2.687,7.9042,0.09499,-0.03207,0.033292
-0.14255,1.7456,-3.4127,8.0807,0.039401,-0.032681,0.036346
-0.074341,1.824,-2.9224,8.2376,-0.021686,-0.029016,0.0036652
0.0013123,1.6867,-2.6086,8.5514,-0.011606,0.0018326,-0.030543
0.052094,1.8437,-2.5105,8.0807,0.23976,0.067195,0.080634
0.0896,1.6083,-2.5105,7.708,0.23793,0.13592,0.076358
0.10098,1.2945,-2.2555,7.9238,0.17471,0.18418,-0.016188
0.092712,1.1964,-2.0594,8.316,0.068417,0.20922,0.016493
0.06601,0.66685,-2.1182,8.5906,-0.033903,0.2193,0.048258
0.035583,0.5884,-2.3732,8.7868,-0.10293,0.21686,0.07025
-0.0011902,0.86299,-2.7459,8.9044,0.079412,0.19823,0.08094
-0.029999,1.0591,-2.7459,9.0613,0.18112,0.17318,0.081551
-0.045624,0.90221,-2.589,9.1594,-0.058032,0.14936,0.041844
-0.07724,0.98067,-2.1967,9.179,0.013744,0.13867,0.057727
-0.11026,1.1964,-1.824,9.0613,0.086437,0.13683,0.059865
-0.17105,1.0787,-2.0398,8.6299,0.14019,0.14325,0.048564
-0.24194,0.50995,-2.589,9.7478,0.16616,0.15363,0.045509
-0.30411,0.078453,-3.197,11.14,0.15394,0.16341,0.043371
-0.3475,0.70608,-2.6282,10.925,-0.12553,0.17165,0.043371
-0.36823,0.76492,-1.4318,9.8263,-0.10812,0.17837,0.041539
-0.38516,1.1376,-0.90221,8.1787,-0.16035,0.068111,-0.055589
-0.38351,0.90221,-2.1575,7.1589,-0.14875,0.079718,-0.029932
-0.34793,1.4318,-3.2166,7.4727,-0.12737,0.077274,-0.067806
-0.26883,1.2356,-3.2166,7.8649,-0.086743,0.076358,-0.084299
-0.14737,1.1768,-2.432,8.7279,-0.012217,0.097128,-0.10324
-0.010284,1.1964,-2.1967,9.2183,0.079107,0.13225,-0.10476
0.09726,1.0199,-2.6282,9.179,0.15058,0.14691,-0.090713
0.20599,1.1964,-3.0793,8.7868,0.1799,0.1408,-0.075136
0.3045,1.6867,-2.9028,8.3945,0.15455,0.12706,0.11515
0.34784,1.5887,-2.3732,8.2572,0.079412,0.099571,0.11118
0.35614,1.5495,-2.2555,8.1003,-0.015577,0.056505,-0.0039706
0.3418,1.2356,-2.6086,8.218,-0.08094,0.019242,0.025962
0.3277,0.96105,-3.0793,8.7083,-0.088881,0.0027489,0.053145
0.32169,1.3925,-3.1577,8.7868,-0.058643,0.010385,0.081245
0.30423,1.3729,-2.8243,8.6299,-0.021991,0.026267,0.10446
0.27191,1.1964,-2.2751,8.826,-0.0039706,0.041844,0.11332
0.24725,1.0591,-1.6475,8.9437,-0.010385,0.050396,0.11851
0.24088,0.80415,-1.7848,8.7083,-0.021686,0.056505,0.1066
0.25067,0.74531,-2.2751,8.9437,-0.040623,0.073915,0.099571
0.26089,0.98067,-2.5105,8.9437,-0.057421,0.086132,0.086743
0.29562,1.0591,-2.5105,8.8652,-0.053145,0.090103,0.071166
0.31732,1.1964,-2.432,8.7083,-0.052534,0.0956,0.051618
0.3385,1.118,-2.5105,9.0417,-0.087048,0.092546,0.051313
0.332,1.2749,-2.6086,9.5125,-0.021686,0.060476,0.086743
0.24518,1.5298,-3.0204,8.316,0.17226,0.089186,-0.041539
0.10739,1.216,-3.6285,8.9437,0.26573,0.15669,-0.027489
-0.024658,0.35304,-3.1381,10.454,0.35308,0.13042,0.1066
-0.1384,1.0787,-2.1967,10.983,0.31185,0.070555,0.065363
-0.26971,1.4906,-1.5102,8.8652,0.064446,-0.042761,0.01405
-0.38409,1.4906,-1.824,7.3746,-0.24374,-0.1686,0.025351
-0.44653,1.118,-2.5105,7.3158,-0.47647,-0.26176,0.002138
-0.43774,1.3925,-2.8243,7.4531,-0.58215,-0.2923,-0.037568
-0.3743,1.3925,-2.687,8.0611,0.11484,-0.083078,0.04948
-0.24744,1.118,-2.2555,8.8652,0.083994,-0.061392,0.059865
-0.075165,0.80415,-2.6282,9.2575,0.055283,-0.027794,0.037568
0.090332,1.1964,-2.9812,9.0025,0.015272,0.0073304,0.04948
0.24673,1.118,-3.3146,8.5514,-0.031154,0.032376,0.058032
0.37405,0.94144,-3.0989,8.0807,-0.051313,0.0562,0.062614
0.46765,0.76492,-2.942,8.316,-0.025962,0.092546,0.057727
0.53833,0.45111,-3.3539,8.9437,0.040623,0.14142,0.051007
0.61508,0.41188,-3.6873,9.3359,0.27917,0.20036,0.0058032
0.69669,0.2942,-3.6285,9.3752,0.24099,0.25962,-0.01405
0.76788,0.56879,-2.7459,9.4732,0.18723,0.28894,0.091324
0.7916,0.56879,-1.9809,9.1986,0.1179,0.24343,0.12675
0.77216,1.0395,-1.8829,8.7475,0.040928,0.16768,0.14416
0.71268,1.2945,-2.1967,8.4926,-0.028711,0.061697,0.11851
0.62723,1.0787,-1.9025,8.5318,0.12706,-0.030543,0.092241
0.46481,1.2356,-1.5691,8.316,0.20953,-0.090408,0.035125
0.26849,1.2356,-1.471,8.1787,-0.34575,-0.14569,-0.061697
0.057587,1.4906,-1.9417,7.9434,-0.35736,-0.18723,-0.019853
-0.14291,1.6475,-2.6086,8.6299,-0.30391,-0.18815,-0.045815
-0.33655,1.3533,-2.8243,8.8064,-0.2306,-0.14966,-0.048258
-0.543,1.3533,-2.432,8.4141,-0.12981,-0.11057,-0.041233
-0.78577,1.2945,-2.687,9.3359,0.012217,-0.086437,-0.045509
-0.95035,1.2945,-3.0989,10.454,-0.13408,-0.035736,-0.053145
-0.99997,1.7456,-2.7655,10.12,-0.25626,0.051924,-0.069639
-0.99997,1.7456,-2.1378,8.8652,0.02138,0.11423,-0.042761
-0.99997,1.824,-1.7456,7.5315,0.11087,0.12248,-0.030543
-0.99997,1.3729,-2.2555,7.8061,0.088575,0.09499,0.002138
-0.99997,1.6867,-2.6086,7.9434,0.026878,0.065057,0
-0.98807,0.98067,-2.589,8.8652,-0.018937,0.040928,-0.010385
-0.83078,0.70608,-2.5105,9.3163,-0.047953,0.02138,-0.019548
-0.61096,0.90221,-2.6086,9.1202,-0.072388,0.019242,-0.027794
-0.42685,1.216,-2.9224,8.5906,-0.053145,0.047953,-0.040012
-0.28976,0.90221,-2.6282,8.6887,-0.12737,0.042455,0.0009163
-0.17477,0.50995,-2.3732,8.8652,-0.027794,0.054978,-0.084605
-0.10574,0.41188,-2.0006,8.8652,0.30024,0.12217,0.076358
-0.057251,0.74531,-2.3732,8.8456,0.42333,0.26328,0.06689
-0.011383,1.0395,-2.6282,8.5514,0.35491,0.24343,0.11698
0.03125,1.0787,-2.5693,8.7083,0.20739,0.10354,0.14019
0.091522,1.1964,-2.3732,9.2575,-0.063225,-0.081245,0.1014
0.12686,1.1964,-2.8243,9.5909,-0.3149,-0.24801,0.081245
0.15057,1.7456,-2.9028,8.9437,-0.43921,-0.34758,-0.027489
0.16739,1.118,-3.3146,8.9437,-0.44227,-0.34789,0.0085521
0.21063,1.0591,-2.9028,10.454,-0.4102,-0.27031,-0.099571
0.2381,1.1964,-1.3141,10.434,-0.37293,-0.18143,-0.065973
0.23135,1.1376,-1.824,8.5514,-0.30696,-0.10018,-0.039706
0.17667,1.6867,-2.7851,6.747,-0.22724,-0.040928,-0.027794
0.11554,1.216,-3.0793,7.3158,-0.13744,-0.0045815,-0.023518
0.049469,0.96105,-2.8243,8.4141,-0.0058032,0.043066,-0.028711
-0.0014954,0.56879,-2.3144,9.3359,0.048564,0.098349,0.12981
-0.087311,1.1376,-2.2751,8.9437,-0.039401,0.1179,0.15638
-0.2312,1.5495,-2.5105,7.9238,-0.20525,0.088575,0.046731
-0.44724,1.6083,-2.7851,6.3939,-0.36957,0.044899,0.041844
-0.67862,0.098066,-2.7851,11.062,-0.44868,0.020464,0.029322
-0.87256,0.27459,-2.5693,11.866,-0.39859,0.025656,0.038485
-0.99896,1.7652,-1.9809,9.5909,-0.26786,0.064141,0.058032
-0.99997,1.9221,-1.6671,7.4531,-0.12645,0.12004,0.083994
-0.99997,1.5298,-1.5691,6.8254,-0.56872,-0.28405,0.076664
-0.99997,1.3925,-2.2555,7.8061,-0.32254,-0.18021,0.099571
-0.99997,1.216,-2.6086,8.4337,-0.067501,-0.065668,-0.067501
-0.93121,0.82376,-2.687,9.1986,0.12065,0.020464,-0.044288
-0.69339,1.2356,-2.6086,8.9044,0.25473,0.062308,-0.032376
-0.41406,1.4906,-2.5693,8.0807,0.29993,0.076969,-0.0012217
-0.1333,1.5887,-2.6282,7.7865,0.21991,0.067195,0.030238
0.1178,1.5298,-2.9028,8.218,0.058948,0.051007,0.043066
0.29471,1.3533,-3.3146,8.6299,-0.29505,-0.27214,-0.02474
0.39423,1.5495,-3.0793,7.4531,-0.055589,-0.35339,-0.042455
0.37061,-0.35304,-0.72569,12.082,0.1518,-0.37751,-0.040317
0.20767,-1.7848,-3.0793,10.434,0.24526,-0.32865,-0.045509
0.09259,0.74531,-3.8638,8.316,0.21258,-0.24771,-0.059559
0.12875,1.2945,-2.9224,8.6887,0.080023,-0.18051,-0.058338
0.2923,1.1768,-1.5102,9.0417,-0.57452,-0.14294,-0.043371
0.47964,0.92183,-2.3536,8.2768,-0.48503,-0.11973,-0.0281
0.70499,1.118,-3.9423,7.0019,-0.29352,-0.1124,-0.061697
0.9379,2.1378,-3.6873,7.8649,-0.32437,-0.10599,-0.07025
1,1.7456,-4.0011,8.6887,-0.31887,-0.09499,-0.06017
1,1.6671,-5.1975,7.5315,-0.26145,-0.07758,-0.062308
1,1.5495,-4.4914,7.7669,-0.15791,-0.059254,-0.058032
1,1.0395,-3.2362,7.9434,-0.061392,-0.061087,-0.050396
1,0.49033,-2.589,7.9434,-0.080023,-0.058948,-0.047953
1,0.86299,-4.2561,7.1196,-0.20983,-0.036346,-0.054062
0.82956,1.3337,-6.139,6.8058,0.34117,-0.063835,0.38851
0.54391,0.66685,-6.2566,8.2572,0.32651,0.0082467,0.35644
0.2554,1.0395,-5.8448,8.0807,0.077274,0.007025,0.56749
-0.027557,1.9613,-5.4917,8.316,-0.27855,-0.045204,0.58521
-0.27966,1.8437,-4.668,8.2572,-0.6408,-0.14111,0.57941
-0.5148,1.4318,-3.9815,7.7473,-0.89522,-0.23854,0.55741
-0.7485,0.98067,-4.8837,6.845,-0.91477,-0.2587,0.50855
-0.94626,1.0395,-5.1387,6.5312,-0.71563,-0.19639,0.44899
-0.99997,1.4906,-4.4914,7.0608,-0.35155,-0.072082,-0.037568
-0.99997,1.6867,-4.0796,7.4334,-0.44685,0.026878,-0.043371
-0.99997,1.7456,-4.2561,7.61,-0.54092,-0.016799,0.35155
-0.99997,2.0006,-4.2561,7.3942,-0.59926,-0.10843,0.24587
-0.99997,1.6867,-4.3934,7.3746,-0.57421,-0.16463,0.13256
-0.99997,1.824,-4.9229,7.4531,-0.57452,-0.19426,0.069028
-0.99997,1.6671,-4.9818,7.4531,-0.38973,-0.1857,-0.016799
-0.99997,1.5298,-4.9426,7.1196,-0.20769,-0.20556,-0.029627
-0.99997,1.5298,-4.5111,6.4528,0.30452,0.048258,-0.079718
-0.99997,0.27459,-4.9426,6.6097,0.2248,0.027489,-0.074526
-0.99423,0.5884,-5.1387,7.8649,0.16188,0.0027489,-0.027794
-0.8428,1.2749,-5.3937,8.0218,0.12401,-0.020464,-0.033292
-0.61084,1.8633,-5.0798,8.2376,0.10904,-0.019242,-0.050091
-0.36093,2.1182,-4.1776,8.1591,0.093157,0.0048869,-0.062919
-0.13486,2.2359,-3.8246,8.1591,0.043371,0.023824,-0.073609
0.075317,2.2751,-3.7658,7.8649,-0.034208,0.025351,-0.078496
0.24371,2.7459,-4.1972,7.5511,1.4392,0.63469,0.13683
0.38412,2.6478,-4.3934,6.8254,1.2007,0.59162,0.1686
0.47562,2.1575,-3.5304,7.1392,0.78405,0.42425,0.035125
0.50912,1.216,-2.1378,8.5514,0.32651,0.22999,0.078802
0.50537,0.49033,-2.2751,9.689,-0.050091,0.073304,0.062308
0.46136,0.66685,-2.6282,9.689,-0.29444,-0.032376,0.047037
0.41113,1.216,-3.4519,8.8652,-0.37599,-0.083994,0.064446
0.33746,1.2356,-4.0207,8.1199,-0.29413,-0.085827,0.098655
0.27789,1.3533,-3.6873,7.9434,-0.13836,-0.057727,0.098655
0.18335,1.0787,-3.6873,8.0218,-0.00061087,-0.016493,0.018021
0.072876,1.0395,-3.6677,8.0022,0.09163,0.023213,0.17165
-0.058441,0.66685,-4.3345,8.316,0.16952,0.051618,0.17196
-0.17841,1.118,-4.3345,8.4926,0.23366,0.084605,0.19028
-0.30139,1.2749,-3.9815,8.3945,0.24587,0.10721,0.20525
-0.39929,1.3533,-3.2558,8.5514,0.22541,0.094073,0.19914
-0.48676,1.1964,-2.7851,8.6299,0.19792,0.06353,0.16738
-0.5752,1.4318,-2.6086,8.5318,0.25045,0.035125,-0.055589
-0.66583,1.3729,-2.8832,8.7083,0.37507,0.044288,-0.046426
-0.73309,1.2945,-3.197,8.5318,0.48655,0.077885,-0.025656
-0.7934,1.5298,-3.1577,8.3945,0.54214,0.097128,-0.042761
-0.82611,1.3533,-2.7655,8.4337,0.54672,0.097128,-0.064752
-0.85474,1.3729,-2.687,8.4337,0.51435,0.09499,-0.066279
-0.86447,1.4318,-2.9028,8.3749,0.45754,0.085216,-0.050396
-0.83679,1.3337,-2.7655,8.6299,0.38454,0.065668,-0.048869
-0.80313,1.4318,-2.9812,9.3359,0.74251,-0.16982,-0.051007
-0.72089,1.216,-4.6484,8.5906,0.8885,-0.067195,-0.098349
-0.65958,1.7064,-4.7856,8.8064,0.91844,0.058643,-0.050396
-0.6553,1.2749,-2.8243,9.5125,0.91813,0.13714,-0.032681
-0.70529,1.3729,-1.8829,9.1594,0.94623,0.17074,-0.023824
-0.83301,1.5298,-2.2751,8.3945,1.0205,0.18265,-0.013439
-0.97067,1.824,-3.2362,7.4531,0.076358,0.18387,-0.0061087
-0.99997,2.3732,-3.3931,6.9235,0.43555,0.16646,-0.018021
-0.99997,1.6671,-2.3732,8.0218,-0.37813,-0.14233,-0.089492
-0.99997,1.0395,-2.0986,8.3749,-0.15699,-0.011606,-0.07758
-0.99997,1.5298,-3.4127,8.8848,-0.21533,-0.037568,0.091324
-0.99997,1.6671,-4.2561,8.9437,-0.31918,-0.10171,0.055894
-0.99997,1.0199,-4.5503,8.1199,-0.30604,-0.12339,-0.04215
-0.99997,1.216,-4.9622,7.6884,-0.21258,-0.05681,-0.095295
-0.99997,1.3925,-5.3348,6.3547,-0.14661,0.07025,-0.1292
-0.99997,0.76492,-5.1975,8.7475,-0.19517,0.15852,-0.11148
-0.99997,1.7456,-4.8837,8.0807,-0.98899,0.19639,0.18479
-0.99997,1.9221,-3.8638,7.1589,-1.3928,0.17959,0.19456
-0.99997,1.118,-2.1967,6.3939,-1.7034,0.146,-0.050702
-0.99997,0.17652,-1.3533,6.1978,-1.7853,0.07758,0.0045815
-0.99997,0.43149,-1.9613,6.6097,-1.449,-0.056505,0.11881
-0.99997,0.17652,-4.9426,8.2572,-0.74403,-0.23671,0.22419
-0.99997,0.60801,-8.3357,7.6296,-0.35522,-0.32009,0.25107
-0.99997,1.1964,-7.9238,7.7865,-0.62858,-0.19609,0.20403
-0.98807,1.6475,-6.6685,7.8061,0.32956,-0.036652,0.036652
-0.8269,1.9809,-4.5699,7.8649,0.3091,-0.0039706,-0.026878
-0.65283,1.8437,-4.0207,7.4531,0.19242,-0.082772,0.21502
-0.53781,2.2751,-5.0406,6.2959,0.00061087,-0.069639,0.15516
-0.46289,1.824,-5.5506,6.8254,-0.13897,-0.044593,0.045815
-0.43445,1.9809,-4.8837,7.2961,-0.12675,-0.10324,0.052229
-0.45868,1.7064,-4.5503,7.3746,-0.074526,-0.17868,0.090103
-0.52838,1.5298,-4.7856,7.8649,0.27397,-0.20678,0.085521
-0.64029,1.7652,-4.668,7.1196,1.0855,0.19792,-0.23854
-0.77301,1.7456,-3.2362,8.8652,1.3274,0.23702,-0.25809
-0.91464,1.118,-3.0008,10.375,1.441,0.24435,-0.17623
-0.9986,1.824,-4.3149,8.8064,1.3827,0.20678,-0.18723
-0.99997,2.2948,-3.5304,6.747,1.1695,0.1182,-0.16402
-0.99997,1.5495,-2.5693,5.6682,0.84788,0.0036652,-0.13744
-0.99997,1.5298,-2.942,6.1978,0.49541,-0.10873,-0.14905
-0.96942,1.3729,-4.5699,7.2765,0.17959,-0.18631,-0.19884
-0.84546,1.4318,-5.2564,8.0611,-0.1014,-0.24648,-0.48747
-0.68079,1.0395,-4.8053,8.6299,-0.16188,-0.27825,-0.50793
-0.46771,0.92183,-4.5699,7.9434,-0.17257,-0.27367,-0.29505
-0.18243,1.2945,-4.9426,7.6884,-0.0956,-0.24251,-0.34086
0.15982,1.0199,-5.4329,8.9437,0.058643,-0.18082,-0.37477
0.57001,1.5887,-5.1191,9.179,0.2474,-0.0956,-0.40714
0.92285,1.4318,-3.5696,9.9832,0.3708,-0.0015272,-0.43768
1,1.0591,-2.1575,10.297,0.43402,0.083689,-0.45754
1,1.1768,-1.824,9.5321,0.44257,0.15455,-0.21655
1,0.80415,-2.7262,8.5514,0.43555,0.16066,-0.16738
1,0.90221,-3.9227,7.61,0.49419,0.14203,-0.47312
1,0.80415,-4.7072,7.4531,0.59712,0.15485,-0.44807
1,1.3533,-4.9426,7.3158,0.65393,0.18692,-0.43249
1,1.7456,-4.4718,7.3354,0.62339,0.20586,-0.39523
1,1.5298,-3.6677,7.6296,0.55222,0.20831,-0.33445
1,1.7456,-2.8243,7.61,0.45937,0.21594,-0.26725
1,1.7456,-1.9613,7.7865,0.37293,0.21166,0.06689
1,1.6867,-1.5298,7.7865,0.33445,0.20036,0.077885
1,1.6475,-1.4318,7.9434,0.3204,0.19975,-0.11057
1,1.4318,-1.6475,8.4141,0.29383,0.1967,-0.055283
1,1.1964,-1.8044,9.7478,0.25351,0.16952,-0.014966
1,1.0591,-2.2751,10.317,0.20006,0.12492,0.022602
0.95587,1.6867,-2.2948,9.2771,0.12859,0.073304,0.053145
0.69421,2.1575,-2.2751,6.9627,0.054672,0.041539,0.068417
0.42285,0.96105,-3.6285,9.0417,-0.23182,-0.09499,-0.071777
0.21567,1.4318,-3.9815,10.258,0.015272,0.058032,-0.040012
0.090881,2.1378,-2.432,10.434,0.14722,0.13439,-0.21136
-9.1553e-05,2.2948,-0.86299,9.0221,0.13836,0.14386,-0.18479
-0.075928,1.9613,-1.6475,7.963,0.12309,0.14813,-0.1689
-0.099823,2.589,-3.197,7.4531,0.20617,0.16402,-0.15027
-0.049164,2.8635,-3.2362,7.2373,0.30421,0.17959,-0.10507
0.10858,2.0202,-2.8243,8.6299,0.416,0.22235,-0.083078
0.30576,1.5495,-2.6282,9.434,0.65943,0.27519,-0.025045
0.51236,1.6475,-2.2751,9.1006,0.41233,0.33934,-0.0051924
0.7146,1.4318,-2.0986,8.1591,0.051313,0.35155,0.0079412
0.81467,0.74531,-1.824,7.9434,-0.28436,0.23824,0.039095
0.79288,-0.86299,-2.2751,8.5318,-0.53237,0.062308,0.029627
0.64108,-2.2163,-1.9809,9.787,-0.67898,-0.075442,0.033903
0.505,-1.6279,-2.2751,11.219,0.53726,-0.18295,0.025351
0.35269,0.90221,-3.1381,9.3555,0.66676,-0.25504,-0.014661
0.23169,0.60801,-2.7459,7.2373,-0.70524,-0.27978,0.18479
0.1358,0.39227,-0.84337,7.7865,-0.65515,-0.27306,0.23091
0.041931,0.60801,-0.43149,8.218,-0.58765,-0.25137,0.035736
0.024292,1.1768,-1.8437,8.8652,-0.48258,-0.21777,0.089492
0.082916,1.6867,-2.8832,9.3555,-0.33537,-0.18418,0.1124
0.21292,1.2945,-1.8829,9.9636,-0.19456,-0.14355,0.11484
0.31839,1.0591,-0.5884,11.062,-0.73365,-0.071471,0.13164
0.41678,0.90221,-0.82376,10.611,-0.73793,0.0015272,0.14325
0.52002,1.3533,-1.5691,9.7282,0.11179,0.46304,-0.23702
0.62659,1.5495,-1.6475,9.0417,0.22022,0.41936,-0.23457
0.70514,1.3925,-2.3144,8.4141,0.39737,0.45173,-0.034514
0.75372,1.3533,-2.5301,8.316,0.39981,0.4102,0.026267
0.79352,1.5495,-2.589,7.7865,0.099571,0.15394,0.1124
0.82092,1.0591,-2.4124,8.0611,-0.27061,-0.13561,0.097738
0.81882,1.1964,-2.5693,8.8848,-0.49999,-0.27947,-0.037568
0.76343,1.1964,-3.197,8.1787,-0.46212,-0.23121,-0.16707
0.62735,1.6671,-2.5301,7.2961,0.66187,0.30421,0.046426
0.37552,-2.334,-2.0398,11.67,0.62308,0.27397,0
0.15445,0.27459,-4.668,8.4926,0.51496,0.20739,0.0088575
0.093109,2.1182,-4.4718,8.1787,0.354,0.13897,0.0097738
0.27545,0.74531,-2.9224,8.316,0.094379,0.080634,0.018326
0.56427,0.66685,-1.4318,9.1594,-0.20342,0.020159,0.036652
0.86221,0.49033,-2.0594,8.8652,-0.48503,-0.032681,0.050396
1,0.98067,-2.7459,8.5514,-0.67745,-0.11698,0.054672
1,1.3925,-2.9028,8.4926,-0.66798,-0.21533,0.15791
1,1.5298,-2.2163,9.1986,-0.43707,-0.25351,0.13042
1,1.4318,-1.9809,8.9044,-0.12462,-0.19242,-0.047647
1,1.6475,-3.1381,8.0611,0.12156,-0.079718,-0.060781
1,1.8633,-3.4519,7.9434,0.24984,0.013134,-0.026573
1,1.1964,-2.4124,9.1986,0.20983,0.049175,0.037263
