0.70447,2.0202,-3.6873,8.0022,-0.051924,-0.015272,0.018326
0.71692,2.2359,-3.8638,7.8649,-0.054062,-0.012523,0.015882
0.75613,2.2751,-3.6873,7.8649,-0.05284,-0.0094684,-0.0039706
0.77417,2.4713,-3.8638,7.8649,-0.04948,-0.0079412,0.0042761
0.78351,2.1771,-3.9423,8.0807,-0.045815,-0.0048869,0.012828
0.7887,2.4517,-4.0207,8.0807,-0.038485,-0.0061087,0.019853
0.79413,2.2948,-3.8246,7.8845,-0.033292,-0.0058032,0.020464
0.79651,2.1575,-3.7265,7.8649,-0.03146,-0.01069,0.018631
0.78699,2.1575,-3.6677,8.0807,-0.0281,-0.019548,0.03146
0.80057,2.0006,-3.8246,8.0611,-0.017715,-0.022602,0.029627
0.79221,2.2359,-3.7658,7.9434,-0.0097738,-0.02138,0.010079
0.79807,2.3732,-3.7265,7.8649,-0.0033598,-0.019242,0.013744
0.80341,2.4517,-3.8834,8.0022,-0.0039706,-0.021075,0.019853
0.80621,2.687,-3.8442,8.0218,-0.013439,-0.024435,0.017715
0.80865,2.3732,-3.8834,8.1003,-0.027489,-0.030543,0.020769
0.80722,2.334,-3.8834,8.0022,-0.043982,-0.036652,0.029016
0.80981,2.3732,-3.8246,8.0218,-0.059559,-0.043677,0.048869
0.79968,2.2163,-3.8638,7.9042,-0.072998,-0.051618,0.04612
0.7919,2.0594,-3.7854,8.0022,-0.076969,-0.058032,0.028711
0.7789,2.0594,-3.8246,8.0218,-0.064141,-0.059254,0.024435
0.77533,2.1378,-3.8638,7.8061,-0.037874,-0.05681,0.021686
0.77011,2.2359,-3.8834,7.9238,-0.011912,-0.049175,0.025351
0.7616,2.3928,-3.8638,7.8453,0.0027489,-0.044288,0.03543
0.77441,2.4517,-3.8638,8.0022,-0.00061087,-0.046426,0.045815
0.78778,2.2359,-3.7658,7.9238,-0.023824,-0.051313,0.031154
0.79922,2.4517,-3.6873,7.9042,-0.053145,-0.054978,0.034208
0.80212,2.5497,-3.7658,7.9042,-0.079718,-0.058338,0.042455
0.80313,2.4517,-3.8638,7.6884,-0.099876,-0.06017,0.036041
0.81686,2.6282,-3.9423,7.9042,-0.10324,-0.050702,0.029932
0.82813,2.4909,-3.8638,7.9042,-0.09163,-0.047037,0.020159
0.83838,2.4517,-3.8638,7.9042,-0.076358,-0.037263,0.022907
0.82916,2.4517,-3.8638,7.9042,-0.056505,-0.025351,0.03146
0.83282,2.2948,-3.9423,7.8649,-0.041539,-0.014661,-0.0073304
0.85089,2.2359,-4.0207,7.7669,-0.026573,-0.010079,-0.0067195
0.87314,2.1771,-4.0207,7.6884,-0.016799,-0.0045815,-0.0039706
0.87982,2.1771,-3.7854,7.8453,-0.011912,0.0009163,-0.00061087
0.88388,2.3732,-3.8638,7.8649,-0.01405,0.0036652,-0.0018326
0.88339,2.6086,-3.9423,7.9238,-0.022602,0.0036652,-0.0039706
0.89597,2.4713,-4.0992,7.6884,-0.030238,0.0051924,-0.0051924
0.90231,2.5497,-4.1384,7.8649,-0.043677,0.0033598,-0.0076358
0.91885,2.4713,-3.9423,7.7865,-0.09163,-0.0039706,0.0064141
0.93213,2.3732,-3.8638,7.8649,-0.093768,-0.015882,0.013744
0.94284,2.2359,-3.8638,7.9434,-0.083383,-0.025045,-0.0088575
0.94778,2.4517,-3.8638,7.9238,-0.060476,-0.027184,-0.014355
0.96225,2.2948,-3.9423,7.7473,-0.032987,-0.023518,-0.018631
0.96094,2.432,-3.8638,7.7865,-0.016493,-0.013744,-0.016493
0.96326,2.4909,-4.0011,7.8453,-0.063835,0.0012217,-0.012217
0.96634,2.5497,-3.9815,7.7473,-0.081856,0.015882,-0.0045815
0.95255,2.3732,-3.9815,7.7865,-0.05681,0.025351,-0.01405
0.94849,2.2948,-3.8638,7.9434,-0.082467,0.025351,-0.01741
0.93973,2.4713,-3.9423,7.9042,-0.10018,0.02138,0.0097738
0.93686,2.334,-4.0011,7.8649,-0.10415,0.010385,0.0067195
0.92612,2.4909,-3.9423,7.9434,-0.093768,-0.0018326,0.0058032
0.92297,2.2948,-4.0207,7.9042,-0.07086,-0.0027489,0.0015272
0.89743,2.2751,-4.0207,7.8061,-0.016188,0.0045815,-0.0051924
0.89578,2.432,-4.0011,7.6296,-0.030238,0.01405,-0.012217
0.88107,2.4517,-3.8246,7.7865,-0.0030543,0.023824,-0.019853
0.8616,2.4517,-3.9815,7.8649,-0.043677,0.033598,-0.014661
0.84677,2.4713,-4.1384,7.8061,-0.034514,0.038179,-0.019242
0.83362,2.589,-4.1972,7.6884,-0.047647,0.035125,-0.015577
0.82581,2.4517,-4.0207,7.6884,-0.083689,0.026267,-0.01405
0.82483,2.2948,-3.8638,7.8649,-0.11454,0.02138,-0.011606
0.83929,2.4517,-4.0207,7.708,-0.11515,0.023824,-0.010079
0.84116,2.5497,-4.0796,7.6884,-0.073609,0.036346,-0.014355
0.84476,2.5497,-4.1972,7.6884,-1.6591,-0.44929,-0.6463
0.86398,2.2751,-4.4522,7.8649,-1.9801,-0.63866,-0.69975
0.89709,2.589,-3.8638,7.8649,-2.0638,-0.78741,-0.20953
0.91281,2.4517,-3.7658,7.8649,-1.9786,-0.81184,-0.34758
0.89862,2.3732,-4.3934,7.3746,-1.7147,-0.78282,-0.47678
0.80527,2.9224,-5.4133,7.2765,-1.361,-0.68264,-0.55497
0.61798,2.8635,-4.8837,8.1003,-1.0278,-0.54703,-0.58948
0.3699,2.2359,-3.5696,8.8456,-0.77305,-0.41539,-0.60842
0.057068,2.2751,-3.0008,8.2768,-0.62553,-0.29871,-1.0916
-0.25687,2.1182,-2.5105,8.218,-0.59743,-0.20495,-1.1588
-0.55884,2.0006,-2.5105,7.9434,-0.67867,-0.13225,-0.75106
-0.78113,1.824,-2.4713,8.316,-0.8543,-0.076053,-0.79962
-0.9082,1.9613,-2.9028,8.0218,-1.1078,-0.036041,-0.85094
-0.93051,1.9613,-4.0207,8.2768,-1.4135,0.00061087,-0.90591
-0.87231,2.5301,-5.1387,8.316,-1.7391,0.043066,-0.96364
-0.73666,2.687,-4.9622,8.1787,-2.0201,0.093768,-1.0253
-0.58466,2.589,-4.3345,8.0807,-2.222,0.17318,-1.1316
-0.41321,2.687,-4.1384,8.1787,-2.3576,0.29138,-1.0632
-0.21591,3.2362,-5.021,7.7865,-2.4471,0.4331,-1.2086
-0.003479,3.4716,-6.0801,6.8254,-2.5064,0.57146,-1.2281
0.2312,4.158,-6.6685,5.7663,-2.5552,0.70097,-1.2153
0.48642,4.5699,-6.845,5.6094,-2.6563,0.82497,-1.1997
0.72409,4.3542,-6.3547,5.5702,-2.8763,0.93096,-1.1881
0.93228,4.4914,-5.7271,5.5702,-3.2345,1.0171,-1.1744
1,4.4718,-4.8053,5.5702,-0.88453,-0.19975,-0.11026
1,4.6287,-4.7856,5.4525,-0.90103,-0.21991,-0.12645
1,4.8053,-4.9622,4.9426,-0.85918,-0.20739,-0.042455
1,4.9033,-5.3348,4.3934,-0.80237,-0.18357,-0.0956
1,5.1975,-5.5898,4.3149,-0.75167,-0.18662,-0.11973
1,5.1191,-5.8644,4.1384,-0.72326,-0.21441,-0.11606
1,5.1191,-5.3348,4.3542,-0.76236,-0.27306,-0.1179
1,5.0014,-4.5699,4.413,-0.89767,-0.35583,-0.12004
1,4.7464,-4.158,3.8442,1.6719,1.8579,0.80268
1,5.3152,-5.1975,2.8243,1.2095,1.5293,0.82192
1,6.0409,-6.9039,1.2749,0.96211,1.2052,0.76969
1,6.5705,-8.4141,0.25497,0.90744,0.93401,0.7648
1,6.139,-9.179,0.11768,0.9893,0.79107,0.67531
1,5.5898,-9.2771,0.25497,1.1167,0.77794,0.62217
1,5.374,-9.4732,0.21575,3.2245,0.82131,0.65729
1,5.5898,-9.2183,-0.15691,2.3576,0.87109,0.73854
1,5.3152,-8.7868,-0.15691,1.1536,0.91447,0.50152
1,5.1191,-8.4729,0.17652,1.1426,0.91141,0.40623
1,5.276,-8.2376,0.84337,1.3005,0.81642,0.80298
1,5.0602,-8.218,1.7456,1.4728,0.71685,0.73059
1,4.7464,-8.1199,2.5301,1.5238,0.71777,0.55222
1,4.8053,-7.708,2.6674,1.4071,0.78069,0.36102
1,4.9818,-7.7669,2.7459,1.2303,0.83597,0.34117
0.92441,5.0602,-7.3158,3.2362,1.2483,0.84147,0.45357
0.71445,4.668,-5.9821,4.1972,1.1729,1.9346,-0.24862
0.49222,4.6484,-4.0207,4.7856,1.6796,1.9239,-0.2248
0.2662,4.3345,-2.2751,5.4133,2.2202,1.9227,-0.39981
0.03241,3.5696,-1.0591,6.1978,2.7587,1.9218,-0.35308
-0.22079,3.1185,0.45111,7.1392,3.2443,1.9193,-0.29505
-0.50388,2.1575,0.37265,8.2572,3.7165,1.9181,-0.25748
-0.76486,1.5298,-2.1575,8.2572,4.1915,1.9233,-0.25687
-0.98688,1.7064,-4.9229,7.7669,4.6331,1.9404,-0.26237
-0.99997,1.6083,-6.3351,7.0608,5.0286,1.9652,0.46334
-0.99997,1.0591,-6.5312,6.5312,5.3652,2.0104,0.63347
-0.99997,0.43149,-6.5116,6.8254,5.6267,2.0611,-0.18601
-0.99997,0.25497,-6.5901,6.2959,5.7522,2.1127,-0.099876
-0.99997,0.35304,-4.9426,6.5312,5.6606,2.1402,0.020159
-0.99997,-0.5884,-3.5304,7.2765,5.342,2.16,0.15149
-0.99997,-0.90221,-3.0793,7.61,4.8368,2.1802,0.27733
-0.99997,-0.64724,-3.5696,6.8647,4.1209,2.0959,0.36255
-0.99997,-0.13729,-4.0796,6.1978,-0.079107,-0.068417,0.051007
-0.99997,-0.11768,-4.158,6.9235,0.044899,-0.010996,0.085521
-0.99997,-0.05884,-3.0008,8.0807,0.11118,0.058643,-0.14752
-0.99997,-0.70608,-2.6086,9.2183,0.10385,0.098044,-0.084605
-0.99997,-1.1376,-3.1577,10.375,0.044899,0.1066,-0.019853
-0.99997,-0.76492,-5.3348,10.768,-0.0039706,0.10568,0.029322
-0.99997,0.17652,-6.3743,10.258,0.029627,0.10873,0.043371
-0.99997,0.98067,-4.4522,10.101,0.12889,0.14111,0.038179
-0.99997,0.70608,-2.0594,10.454,-0.067806,-0.55894,-0.56658
-0.99997,0.27459,-1.1572,10.591,-0.09896,-0.5229,-0.52657
-0.99997,0.43149,-2.4124,9.6497,-0.047953,-0.42364,-0.52198
-0.99997,1.1964,-2.9224,8.4926,0.057116,-0.28436,-0.53848
-0.99997,1.6475,-3.197,7.9238,0.19731,-0.14478,-0.59132
-0.99997,2.0006,-2.6086,7.8061,0.33781,-0.020159,-0.59437
-0.99997,2.4517,-1.4318,8.1591,0.4386,0.086743,-0.57085
-0.99997,2.2948,-0.23536,8.5514,0.47861,0.18051,-0.5733
-0.99997,2.1771,-0.11768,8.6299,0.44196,0.25076,-0.41936
-0.99997,1.824,-1.5102,8.8848,0.30788,0.27367,-0.37354
-0.99997,2.2948,-2.3732,8.7083,0.12462,0.22846,-0.48136
-0.99997,2.8635,-1.824,9.1202,-0.017104,0.14355,-0.45601
-0.99997,2.687,-1.1768,9.9636,-0.049175,0.10049,-0.45662
-0.99997,2.432,-0.62763,10.062,0.045509,0.12187,-0.49205
-0.99997,2.3928,-0.49033,9.5909,0.2248,0.18387,-0.51068
-0.99997,2.1771,-0.80415,8.8652,0.41722,0.2529,-0.47525
-0.99997,2.1575,-1.0395,8.2376,0.57238,0.28772,-0.23885
-0.99997,1.824,-0.86299,8.1787,0.54917,0.26542,-0.20281
-0.99997,1.5887,-0.94144,8.2572,0.47373,0.21655,-0.33995
-0.99997,1.6083,-1.7848,8.316,0.31857,0.15638,-0.31521
-0.99997,1.6671,-2.1967,8.3945,0.10599,0.086743,-0.29383
-0.99997,1.1376,-1.8829,9.0025,-0.085521,0.0036652,-0.27947
-0.99997,1.3533,-1.6279,9.0417,-0.19487,-0.060781,-0.2697
-0.99997,1.3925,-1.7848,8.9437,-0.18662,-0.083994,-0.2587
-0.99997,1.6083,-2.0594,9.434,0.055589,0.051618,-0.033292
-0.99997,1.9221,-2.432,9.4732,0.070555,0.037263,-0.022297
-0.99997,1.9613,-2.432,9.2575,0.086437,0.029322,-0.063835
-0.99997,1.8437,-1.9809,8.8652,0.092852,0.033292,-0.059559
-0.99997,1.6083,-1.0199,8.8064,0.087354,0.044899,-0.055894
-0.99997,1.3729,-0.84337,9.0221,0.072693,0.0562,-0.050702
-0.99997,1.0787,-1.0199,8.8848,0.068417,0.067195,-0.046426
-0.99997,1.1964,-0.86299,9.1986,0.053756,0.072693,-0.043066
-0.99997,1.1768,-0.80415,9.179,-0.19487,-0.0036652,0.067501
-0.99997,1.3533,-0.41188,9.3752,-0.22602,-0.029932,0.061697
-0.99997,1.2356,-0.39227,9.6694,-0.22877,-0.044899,0.11637
-0.99997,1.5298,-0.80415,9.4732,-0.21716,-0.049786,0.11148
-0.99997,1.6867,-0.70608,9.4928,-0.20617,-0.049786,0.10873
-0.99997,1.6083,-0.54917,9.3752,-0.18937,-0.036652,0.099571
-0.99997,1.5495,-1.0199,9.6694,-0.16432,-0.0042761,0.09163
-0.99997,1.8437,-1.4906,9.5713,-0.13164,0.036957,0.079718
-0.99997,1.9221,-1.4318,9.3359,-0.097433,0.068722,-0.037568
-0.99997,1.7652,-1.3533,8.6495,-0.071777,0.080329,-0.04612
-0.99997,1.7652,-1.2553,8.4926,-0.060476,0.073304,0.05681
-0.99997,1.4318,-1.4318,9.1202,-0.044593,0.065973,0.036957
-0.99997,1.5102,-1.6475,9.4928,-0.03207,0.063835,0.011912
-0.99997,1.7652,-1.6475,9.4732,-0.022907,0.056505,-0.0033598
-0.99997,1.3925,-1.3729,9.1594,-0.013744,0.049786,-0.0042761
-0.99997,1.5298,-1.1768,9.0025,0.0018326,0.053756,-0.011606
-0.99997,1.6671,-1.1768,8.8064,0.039401,0.062919,-0.04215
-0.99997,1.6083,-0.94144,9.0417,0.074831,0.065668,-0.053145
-0.99997,1.2945,-1.0003,9.4732,0.10568,0.077885,-0.046731
-0.99997,1.3533,-1.2553,9.5125,0.11545,0.096822,-0.058032
-0.99997,1.3925,-1.3533,9.434,0.1011,0.1124,-0.062919
-0.99997,1.6083,-1.0395,9.1202,0.086437,0.11423,-0.053451
-0.99997,1.3337,-0.80415,9.0417,0.013439,0.0956,-0.043066
-0.99997,1.118,-0.68647,9.1202,0.019242,0.070555,-0.040623
-0.99997,1.2945,-0.62763,9.2771,0.18112,0.078496,-0.036957
-0.99997,1.2356,-1.2749,9.6497,0.15149,0.073304,-0.041233
-0.99997,1.5887,-1.3533,9.5321,0.078802,0.05681,-0.021991
-0.99997,1.7064,-1.118,9.2183,-0.011301,0.036346,-0.01741
-0.99997,1.2945,-0.8826,9.1202,-0.10782,0.016188,-0.013134
-0.99997,1.3533,-0.72569,8.9044,-0.20128,0.0015272,-0.013439
-0.99997,1.0395,-0.86299,8.8652,-0.28833,-0.022602,-0.017104
-0.99997,1.0787,-1.0199,9.0221,-0.33842,-0.043371,-0.025045
-0.99997,1.2945,-1.3141,9.1202,-0.28894,-0.039401,-0.021991
-0.99997,1.3533,-1.5691,9.2183,-0.17776,-0.012523,-0.025351
-0.97684,1.6867,-1.6279,9.1202,-0.073609,0.022907,-0.039095
-0.9238,1.5298,-1.6475,8.8652,-0.016799,0.034819,-0.024435
-0.84534,1.6867,-1.3337,9.1006,0.0042761,0.030543,-0.0018326
-0.73749,1.6475,-0.8826,9.434,-0.0018326,0.01741,-0.0088575
-0.61502,1.2945,-0.70608,9.434,-0.024435,0.0009163,-0.023518
-0.50772,1.4318,-0.70608,9.1986,-0.062003,-0.013744,-0.023824
-0.42151,1.5298,-1.0199,9.179,-0.098044,-0.029322,-0.03146
-0.36023,1.5298,-1.4906,8.9437,-0.1014,-0.047037,-0.023824
-0.33368,1.5495,-1.4906,9.0417,-0.06353,-0.049175,-0.035736
-0.34702,1.3533,-1.3533,9.3752,0.013439,-0.037568,-0.05284
-0.4021,1.3729,-1.0983,9.3359,0.099876,-0.015577,-0.064141
-0.46906,1.1964,-0.96105,9.3752,0.14203,0.015882,-0.065363
-0.55475,1.4318,-1.216,9.2575,0.13683,0.033598,-0.060781
-0.62729,1.6083,-1.5691,9.1594,0.095906,0.038179,-0.045509
-0.68637,1.6867,-1.3533,9.2183,0.029932,0.030849,-0.044288
-0.72623,1.6083,-1.0003,9.2575,-0.043677,0.01741,-0.040012
-0.75339,1.5298,-0.86299,9.179,-0.1011,0.0054978,-0.016493
-0.76797,1.3533,-0.94144,9.0417,-0.12767,-0.0048869,-0.018021
-0.76047,1.1964,-1.3533,9.179,-0.1179,-0.012523,-0.02474
-0.75204,1.4906,-1.5102,9.1594,-0.076969,-0.0088575,-0.033903
-0.75058,1.3337,-1.3729,9.179,-0.018631,0.0064141,-0.04215
-0.74545,1.5298,-1.118,9.2575,0.036346,0.023824,-0.045204
-0.74496,1.3729,-1.0003,9.3359,0.0015272,0.0027489,-0.057116
-0.72079,1.4906,-1.118,9.0417,0.020769,0.0042761,-0.061392
-0.69476,1.5495,-1.3729,9.0417,0.037263,0.01405,-0.024435
-0.67307,1.5102,-1.4318,9.1202,0.047647,0.026878,-0.027794
-0.69199,1.5298,-1.3533,9.1202,0.051007,0.033903,-0.033292
-0.68054,1.5298,-1.216,9.0613,0.052229,0.037568,-0.034819
-0.68597,1.6083,-1.118,9.179,0.065363,0.043982,-0.037263
-0.69824,1.5102,-1.216,9.179,0.083078,0.050702,-0.048258
-0.70181,1.4906,-1.216,9.3555,0.17746,0.0562,-0.017715
-0.70401,1.5102,-1.2553,9.3163,0.19242,0.072388,-0.017104
-0.70557,1.3925,-1.2553,8.9044,0.18692,0.085216,-0.06353
-0.71155,1.6475,-1.0395,9.1594,0.16096,0.088575,-0.064141
-0.71539,1.5298,-1.0199,9.179,0.12309,0.088575,-0.053756
-0.71591,1.4318,-1.216,9.3752,0.077885,0.083383,-0.041844
-0.71429,1.6083,-1.1572,9.3359,0.10476,0.071777,-0.035125
-0.71503,1.6083,-1.216,9.2183,0.14203,0.044288,-0.025045
-0.71671,1.3925,-1.2553,9.1202,0.079107,0.0079412,-0.0009163
-0.7171,1.6475,-1.3533,9.0417,0.13775,-0.024435,-0.009163
-0.71368,1.6083,-1.216,9.0417,0.20128,-0.036957,-0.030849
-0.69839,1.3533,-1.2553,9.0025,0.2474,-0.034514,-0.051618
-0.6922,1.4318,-1.3533,9.1202,0.27306,-0.026573,-0.0562
-0.67661,1.5887,-1.2553,9.179,0.2813,-0.018326,-0.04215
-0.65591,1.6083,-1.0199,9.3359,0.045815,-0.012217,-0.012828
-0.6467,1.5102,-0.72569,9.3359,0.045204,0.0033598,0.0045815
-0.63361,1.4514,-0.80415,9.4928,0.018937,0.047037,-0.02138
-0.62314,1.3533,-1.0591,9.7282,-0.0042761,0.045815,-0.022602
-0.58716,1.6083,-1.2553,9.5713,-0.023518,0.040623,-0.046731
-0.54309,2.1182,-1.118,9.3359,-0.032681,0.034514,-0.043066
-0.48935,1.8044,-0.84337,9.434,-0.029322,0.028711,-0.037263
-0.45285,1.9221,-0.62763,9.179,-0.02138,0.018937,-0.034208
-0.38455,1.6475,-0.56879,8.8652,-0.016493,0.0085521,-0.029016
-0.32224,1.3337,-0.49033,8.8652,-0.01069,0.002138,-0.022297
-0.25397,1.0199,-1.0199,9.1202,-0.041233,0.030543,-0.00061087
-0.1615,1.118,-1.6867,9.1594,-0.052534,0.029932,0.018937
-0.080994,1.4514,-1.0003,8.8652,-0.058643,0.037568,-0.015577
-0.018677,1.1964,-0.37265,9.1202,-0.040012,0.036346,-0.020769
0.0088196,1.4514,-0.25497,9.1202,0.013134,0.036041,-0.026267
0.010254,1.3337,-0.17652,9.434,0.090103,0.04215,-0.026878
0.014557,1.4318,0.15691,10.591,0.1741,0.040623,-0.020464
0.023346,1.216,-0.098066,10.905,0.22358,0.03879,-0.011301
0.066467,1.2945,-0.74531,9.3555,0.19639,0.040012,-0.02474
0.1272,1.4514,-1.0983,7.963,0.1011,0.031154,-0.033292
0.19345,1.6475,-1.6671,7.61,-0.021075,0,0.048258
0.25214,1.4906,-1.9809,8.1199,-0.135,-0.029627,0.066279
0.28311,1.4514,-1.7456,8.8064,-0.22113,-0.043677,0.060781
0.29007,1.3925,-1.1768,9.5713,-0.25626,-0.044288,0.034819
0.25427,1.6671,-1.0395,9.8066,-0.22449,-0.025656,0.0042761
0.19962,1.824,-1.3533,9.5125,-0.14264,0.0012217,-0.017104
0.13223,2.0594,-1.3337,8.9633,0.58246,0.030849,-0.13134
0.074097,1.824,-1.2553,8.8456,-0.095295,0.060781,-0.12156
0.032166,1.7456,-1.1768,9.0417,-0.0042761,0.072388,-0.039095
-0.039337,1.7064,-1.1964,9.179,0.084299,0.051924,-0.028711
-0.0914,1.6867,-1.216,9.1594,0.1909,0.043371,-0.018326
-0.13965,1.4318,-1.216,9.1202,0.32467,0.077885,-0.030238
-0.18427,1.6867,-1.4318,9.179,0.49419,0.16646,-0.057116
-0.24326,1.216,-1.1964,9.6694,0.60537,0.25565,-0.099571
-0.29053,1.2945,-0.84337,9.434,-0.16035,-0.040623,0.0079412
-0.35117,1.3925,-0.68647,9.179,-0.17196,-0.071166,-0.0051924
-0.42422,1.5102,-0.8826,8.8456,-0.13195,-0.073304,0.033598
-0.49329,1.7456,-1.4318,8.8064,-0.069639,-0.04948,0.032987
-0.54807,1.8044,-1.5102,9.179,-0.016493,-0.018326,0.041233
-0.61221,1.8044,-1.3141,9.2183,0.014355,0.0076358,0.049175
-0.66122,1.6867,-1.824,8.9437,0.020464,0.025351,0.045204
-0.73682,1.7064,-2.2163,8.8064,0.0067195,0.032376,0.025045
-0.83191,1.9613,-1.118,9.0417,-0.038179,0.032987,0.035125
-0.9151,1.118,-0.54917,8.9437,-0.086437,0.028711,0.032987
-0.97812,1.4318,-0.80415,8.6299,-0.12278,0.011912,0.0076358
-0.99997,1.3337,-1.7456,9.0613,-0.13867,-0.0076358,0.011912
-0.99997,1.216,-2.1182,9.7478,-0.1405,-0.020769,0.011606
-0.99997,1.6867,-1.0199,10.062,-0.13592,-0.025045,0.011606
-0.99997,1.2356,-0.098066,9.9832,0.032987,-0.028711,0.018631
-0.99997,1.1964,0.31381,9.3163,0.0042761,-0.030238,0.029016
-0.99997,1.4906,0.23536,8.9633,-0.091019,-0.026573,0.0033598
-0.97113,1.6867,0.078453,8.9044,-0.080634,-0.018326,-0.00030543
-0.89896,1.6867,0,9.5125,-0.069333,-0.010385,0.028711
-0.82626,1.2945,-0.05884,9.7478,-0.059559,-0.0061087,0.022907
-0.75018,1.5102,-0.17652,9.5125,-0.054978,0.0027489,0.013744
-0.68149,1.5298,-0.80415,9.2575,-0.054367,0.011301,0.007025
-0.6203,1.5495,-1.3141,9.179,-0.12553,0.011606,0.0036652
-0.58484,1.3533,-1.5102,9.3359,-0.10873,0.0097738,0.0042761
-0.52917,1.6083,-1.118,9.4144,-0.2529,-0.012523,-0.020464
-0.49414,1.4318,-0.68647,9.3359,-0.16616,0.0024435,-0.021686
-0.46869,1.3337,-0.52956,9.2183,-0.053145,0.037874,-0.0033598
-0.42688,1.1964,-0.78453,9.0613,0.055283,0.076053,0.002138
-0.40088,1.5298,-0.8826,9.0613,0.13286,0.10599,0.010079
-0.36426,1.2945,-0.94144,9.3359,0.16432,0.12523,-0.0048869
-0.35641,1.3337,-0.86299,9.2575,0.13806,0.12278,-0.017715
-0.33508,1.2945,-0.68647,9.3359,0.062919,0.098349,-0.019853
-0.31967,1.2749,-0.54917,9.1986,-0.095295,0.058948,-0.0061087
-0.30499,1.3925,-0.72569,9.1986,-0.072082,0.025351,0.0015272
-0.29919,1.2945,-0.94144,9.3752,-0.029932,0.01405,-0.03543
-0.2995,1.5102,-0.8826,9.2183,0.002138,0.019548,-0.04948
-0.29428,1.5102,-1.0199,9.2575,0.023518,0.028711,-0.047953
-0.29727,1.1964,-0.8826,9.2183,0.037263,0.032681,-0.034514
-0.30783,1.4318,-0.94144,9.3163,-0.026573,0.03146,-0.025351
-0.30774,1.4906,-0.8826,9.179,-0.082772,0.032987,-0.015882
-0.31061,1.5887,-0.90221,9.2575,-0.0012217,0.023518,0.00061087
-0.31146,1.3533,-1.3533,9.5321,-0.019242,0.022297,0.00030543
-0.30899,1.7652,-1.1572,9.2575,-0.041233,0.01405,-0.0054978
-0.31042,1.4318,-0.72569,9.2575,-0.060781,0.0012217,-0.0012217
-0.30563,1.2945,-0.56879,9.2575,-0.069639,-0.0061087,-0.00030543
-0.31091,1.1964,-0.62763,9.3359,-0.062308,-0.01069,0.002138
-0.32245,1.4318,-0.80415,9.3359,-0.044288,-0.010079,0.0045815
-0.32364,1.3337,-0.84337,9.179,-0.018631,-0.0030543,0.0036652
-0.3353,1.4318,-0.80415,9.3555,-0.069944,0.0027489,-0.0088575
-0.3288,1.6083,-0.86299,9.3359,-0.051313,0.013744,-0.011912
-0.31619,1.6083,-0.80415,9.2575,-0.034208,0.02138,-0.010385
-0.30783,1.6083,-0.86299,9.2575,-0.026267,0.022602,-0.0082467
-0.30185,1.5887,-0.90221,9.179,-0.027794,0.018631,-0.0045815
-0.30154,1.3925,-0.94144,9.179,-0.044288,0.007025,0.0009163
-0.28326,1.4318,-0.8826,9.179,-0.058032,-0.0048869,0.0030543
-0.27585,1.5298,-0.84337,9.3555,-0.059254,-0.010385,-0.0012217
-0.26706,1.3925,-1.0199,9.1594,-0.03543,-0.010996,-0.0061087
-0.2504,1.5298,-1.118,9.179,-0.010385,-0.0076358,-0.0012217
-0.24692,1.6083,-1.0003,9.179,0.015272,0.0039706,-0.013134
-0.23224,1.5298,-0.74531,9.2575,0.029627,0.018937,-0.01405
-0.21982,1.3729,-0.72569,9.2575,0.025351,0.027489,-0.014661
-0.20996,1.4906,-0.84337,9.3359,0.0024435,0.029322,-0.012523
-0.20016,1.3729,-0.94144,9.3163,-0.029322,0.023518,-0.01069
-0.19177,1.5298,-1.0395,9.3163,-0.055589,0.013744,-0.0094684
-0.18552,1.6279,-1.216,9.1594,-0.069944,0.0018326,-0.0058032
-0.18073,1.4318,-0.90221,9.1202,-0.069944,-0.0061087,-0.007025
-0.1709,1.5102,-0.80415,9.2183,-0.057421,-0.012828,0.0033598
-0.16821,1.3925,-0.80415,9.1594,-0.032987,-0.014966,0.0064141
-0.16519,1.5495,-0.86299,9.2575,-0.007025,-0.011912,0.0039706
-0.15939,1.5298,-1.0199,9.1986,0.0082467,-0.0024435,0
-0.14508,1.4318,-1.118,9.3359,0.018021,0.010996,0.00061087
-0.13623,1.6083,-0.86299,9.2575,0.017104,0.020159,-0.0027489
-0.13269,1.5298,-0.80415,9.179,-0.013439,0.0061087,-0.00030543
-0.10583,1.3729,-0.84337,9.1202,-0.0073304,0.012217,0.0024435
-0.082886,1.3729,-0.90221,9.3555,-0.0033598,0.013744,-0.0064141
-0.065918,1.5102,-1.0003,9.2575,-0.002138,0.015577,-0.0082467
-0.04187,1.4318,-0.96105,9.1986,-0.0045815,0.014355,-0.010385
-0.035583,1.4318,-0.94144,9.179,-0.013439,0.0097738,-0.0079412
-0.026581,1.6083,-0.86299,9.1986,-0.021991,0.0079412,-0.0018326
-0.020844,1.3925,-0.78453,9.2183,-0.028405,0.0045815,-0.0009163
-0.0032654,1.5298,-0.86299,9.2575,-0.025045,0.00030543,-0.01405
-0.012146,1.216,-0.94144,9.2771,-0.016493,-0.0015272,-0.014355
0.0010376,1.4318,-1.0395,9.179,-0.010079,0.0024435,0.0024435
0.0059509,1.6083,-1.0003,9.2183,-0.0009163,0.0067195,-0.0012217
0.0067749,1.6083,-1.0003,9.2183,0.0082467,0.0082467,-0.0064141
0.015259,1.3533,-0.8826,9.3359,0.01405,0.010079,-0.0094684
0.01355,1.4906,-0.86299,9.3163,-0.032681,0.013134,-0.012217
0.019623,1.3925,-0.94144,9.179,-0.032681,0.018326,-0.013439
0.011749,1.5887,-1.0003,9.3359,0.0082467,0.023213,-0.0079412
0.025208,1.4906,-0.86299,9.2183,-0.0033598,0.022297,-0.010996
0.022095,1.6279,-1.0199,9.1202,-0.013439,0.025351,-0.014355
0.023773,1.4906,-0.94144,9.1986,-0.018937,0.024129,-0.015272
0.027893,1.6083,-0.84337,9.179,-0.011912,0.019548,-0.015882
0.042725,1.3729,-0.86299,9.179,0.0051924,0.014661,-0.015577
0.02655,1.4906,-0.94144,9.2771,0.015272,0.015577,-0.011301
0.026245,1.5298,-1.0003,9.2771,0.015577,0.022297,-0.0058032
0.028503,1.3729,-0.94144,9.179,0.038485,0.030238,-0.00030543
0.019623,1.3337,-0.94144,9.3359,0.038179,0.037263,0.002138
0.011383,1.3337,-0.86299,9.3752,0.029627,0.04215,-0.014966
0.0020752,1.3533,-0.84337,9.434,0.0088575,0.044288,-0.015577
0.013824,1.5495,-0.72569,9.2183,-0.013439,0.038179,-0.01069
0.015045,1.2945,-0.86299,9.2183,-0.027489,0.025351,-0.0048869
0.025726,1.6083,-0.8826,9.1986,0.019853,0.01405,-0.0030543
0.024231,1.5298,-0.86299,9.1986,0.031154,0.0067195,-0.0033598
0.037323,1.6867,-1.118,9.1986,-0.0058032,0.040623,-0.0036652
0.067749,1.3533,-1.118,9.3555,-0.013134,0.040623,-0.014661
0.10681,1.5298,-0.96105,9.179,-0.012523,0.030849,-0.018937
0.14096,1.6083,-0.94144,9.179,-0.0061087,0.023213,-0.017715
0.17468,1.5298,-0.70608,9.2575,0.0048869,0.031154,-0.017715
0.19733,1.2945,-0.72569,9.3359,-0.0082467,0.03146,-0.015577
0.2229,1.3729,-1.0199,9.2771,-0.038179,0.014355,0.0027489
0.23297,1.3337,-1.0395,9.3359,-0.063225,0.002138,0.012217
0.26102,1.4318,-0.86299,9.1594,-0.061392,-0.0012217,-0.023518
0.28375,1.4318,-0.72569,9.3163,-0.034819,0.0054978,-0.0079412
0.30923,1.3533,-0.80415,9.3163,-0.010996,0.026573,-0.013134
0.34116,1.6475,-1.0199,9.179,0.0048869,0.039401,-0.01741
0.37332,1.3729,-0.84337,9.1594,0.013134,0.043066,-0.021991
0.397,1.5298,-0.84337,9.2575,0.01741,0.039095,-0.026267
0.41937,1.3533,-0.86299,9.3752,0.012217,0.032376,-0.027794
0.44626,1.3729,-0.80415,9.2575,0.009163,0.03146,-0.025962
0.46225,1.3533,-0.72569,9.3359,-0.018326,0.053451,0.040623
0.49115,1.3533,-0.5884,9.2575,-0.14325,0.061392,0.043066
0.50858,1.3729,-0.8826,9.1986,-0.3149,-0.00061087,0.041539
0.54095,1.3729,-1.0395,9.0417,-0.45937,-0.076969,0.087659
0.5593,1.3533,-0.94144,9.179,-0.53329,-0.14203,0.087659
0.58563,1.2945,-0.86299,9.3359,-0.50396,-0.19517,0.091935
0.61325,1.1768,-0.74531,9.3555,-0.37965,-0.19578,0.10263
0.63733,1.3925,-0.078453,9.179,-0.197,-0.14783,0.075747
0.65924,1.2945,0,9.7478,-0.98838,-0.080634,0.062919
0.7005,1.0199,-0.52956,9.7282,-0.096822,-0.0064141,0.10843
0.77216,1.1768,-1.5887,9.1202,0.076969,0.044899,0.17318
0.86749,1.6867,-1.9613,8.7083,0.11912,0.044593,0.22694
0.95422,1.6671,-1.216,9.1202,-0.0088575,-0.020159,0.24862
1,1.7064,-0.11768,9.9439,-0.26114,-0.1295,0.23763
1,1.4514,0.23536,9.9636,-0.56413,-0.22266,0.20556
1,1.3533,-0.86299,9.0417,-0.81367,-0.28069,0.16524
1,1.6083,-1.9025,8.3945,-0.30329,-0.11057,0.069639
1,1.7456,-2.7655,8.4926,-0.25229,-0.11515,0.048869
0.99481,1.7456,-3.2558,8.9437,-0.18754,-0.08827,-0.017104
0.88766,1.1964,-2.3732,9.1594,-0.1292,-0.054367,-0.0024435
0.75345,1.6867,-0.37265,8.9044,-0.085216,-0.025656,0.026267
0.56799,1.6475,-0.23536,8.7083,-0.055283,-0.011606,0.053451
0.3989,1.4318,-1.6475,7.8061,-0.28344,-0.013134,0.074831
0.23169,1.4318,-3.0793,7.1589,-0.32223,-0.016188,0.081245
0.063354,1.3925,-3.3931,7.4531,0.051007,-0.011606,-0.064446
-0.081757,1.0395,-2.0006,8.7083,0.041233,0.0079412,-0.058032
-0.21283,1.216,0.31381,11.062,-0.022907,0.04612,0.022297
-0.33325,1.3729,0.86299,10.748,-0.095295,0.076664,-0.007025
-0.43716,0.98067,-0.43149,9.179,-0.11362,0.081551,-0.025656
-0.51489,1.5298,-1.0199,9.3163,-0.06689,0.058643,-0.032987
-0.53928,1.7652,-1.1768,9.9636,-0.026878,0.033598,-0.039095
-0.50348,1.6867,-0.43149,9.8459,0.010996,0.033903,-0.049786
-0.43115,1.5298,0.50995,9.6694,0.074526,0.041233,0.0012217
-0.33405,1.5102,0.19613,9.3359,0.047037,0.045509,-0.0051924
-0.2276,1.824,-0.27459,9.1594,-0.0058032,0.039095,-0.03543
-0.12277,1.7456,-0.62763,9.2575,-0.055894,0.026878,-0.02138
-0.013062,1.5298,-0.80415,9.4732,-0.079107,0.013744,-0.013134
0.081787,1.5298,-1.2553,9.4928,-0.069639,0.0039706,-0.0058032
0.18518,1.2356,-1.4122,9.1986,0.007025,-0.0039706,-0.00061087
0.27353,1.3337,-1.1964,8.8652,0.061392,-0.010385,0.0024435
0.35114,1.2945,-1.118,9.0025,-0.19273,-0.060781,0.021075
0.41644,1.3337,-1.3533,9.2183,-0.061697,-0.061697,0.0015272
0.46588,1.3533,-1.1964,9.2575,0.071471,-0.041539,-0.20953
0.50168,1.0395,-0.86299,9.3163,0.1741,-0.0036652,-0.19028
0.52393,1.3533,-0.80415,9.1594,0.20128,0.022907,-0.14691
0.54733,1.5298,-1.118,9.0417,0.12675,0.025962,-0.072082
0.57779,1.3337,-1.0199,9.3752,-0.02138,-0.0061087,-0.017104
0.5549,1.3337,-1.0199,9.2575,-0.17532,-0.065363,0.011606
0.55313,1.3533,-0.90221,9.0417,-0.062614,0.011912,0.011301
0.55316,1.3533,-0.8826,9.3359,-0.05284,0.019548,0.0051924
0.55884,1.3533,-0.62763,9.179,-0.043066,0.017104,0.0097738
0.54886,1.4318,-0.84337,9.3163,-0.036041,0.017104,0.0088575
0.54227,1.216,-1.1768,9.434,-0.0281,0.022297,0.0027489
0.5126,1.2945,-1.1964,9.434,-0.026573,0.03207,0.0048869
0.51654,1.4906,-0.96105,9.179,-0.035125,0.03543,0.009163
0.50427,1.5102,-0.86299,9.3163,-0.042455,0.023824,0.009163
0.49628,1.5495,-0.80415,9.3359,-0.041539,0.0058032,-0.012828
0.49973,1.5495,-0.72569,9.2575,-0.040317,-0.007025,-0.016493
0.49124,1.5298,-0.94144,9.0613,-0.035736,-0.011301,-0.0042761
0.48566,1.4318,-0.90221,9.1202,-0.016188,-0.0079412,-0.0054978
0.49048,1.3533,-0.84337,9.3359,0.0045815,0.0012217,-0.0085521
0.47772,1.2945,-0.90221,9.3752,0.009163,0.0094684,-0.0088575
0.48093,1.3337,-1.1572,9.1986,0.00061087,0.013744,-0.0064141
0.48697,1.5298,-1.0395,9.3163,-0.011912,0.01069,-0.010996
0.49161,1.4318,-0.80415,9.2575,-0.06689,0.029016,0.0054978
0.48965,1.5298,-0.94144,9.1202,-0.11148,0.0082467,0.014966
0.50009,1.2945,-1.1768,9.3163,-0.14783,-0.012828,0.025045
0.52347,1.2356,-1.1572,9.0417,-0.16188,-0.027489,0.022602
0.54718,1.3533,-1.1768,9.1202,-0.15211,-0.034819,0.018021
0.55811,1.3729,-1.1572,9.1202,-0.12614,-0.033292,0.0094684
0.58798,1.3925,-1.216,9.179,-0.09499,-0.030849,0
0.59952,1.5102,-1.118,9.1202,-0.065363,-0.028711,-0.0018326
0.59094,1.4906,-1.118,9.3163,-0.053756,-0.029932,0.009163
0.59293,1.3925,-1.0983,9.2575,-0.058032,-0.036652,0.0073304
0.58466,1.4318,-1.0983,9.1202,-0.069333,-0.033292,0.020464
0.58133,1.2945,-1.1572,9.1986,-0.082161,-0.023518,0.020769
0.57385,1.5887,-1.1572,9.179,-0.09896,-0.015882,0.021991
0.5574,1.3729,-1.1768,9.1202,-0.11057,-0.013439,0.023213
0.55298,1.4318,-1.3533,9.0417,-0.10873,-0.0097738,0.016188
0.52393,1.5495,-1.1768,9.2771,-0.090103,0.00030543,0.0094684
0.51419,1.6671,-1.0199,9.2183,-0.0097738,0.040623,-0.011912
0.50037,1.3533,-1.0199,9.179,-0.043371,0.033598,-0.021075
0.5004,1.5298,-1.0395,9.179,-0.054672,0.017104,-0.0054978
0.4856,1.2945,-1.0199,9.3359,-0.052229,-0.0012217,-0.0058032
0.46307,1.5102,-0.80415,9.2575,-0.04215,-0.0082467,-0.0082467
0.44083,1.4906,-0.80415,9.3359,-0.03543,-0.0088575,-0.012523
0.42456,1.4318,-0.94144,9.179,0.054062,-0.0030543,-0.0085521
0.40918,1.5298,-1.0199,9.2575,0.032376,0.0048869,-0.0036652
0.39243,1.6083,-1.216,9.2575,0.002138,0.007025,-0.022907
0.38617,1.3925,-0.90221,9.2183,0.0042761,0.009163,-0.030849
0.37427,1.4318,-0.96105,9.179,0.0067195,0.016493,-0.029627
0.37006,1.4318,-1.0395,9.1594,0.013744,0.02474,-0.025962
0.35013,1.4906,-1.2553,9.1594,0.014966,0.03207,-0.022907
0.3548,1.3533,-0.86299,9.179,0.0079412,0.036346,-0.026878
0.36044,1.3729,-0.86299,9.179,-0.0079412,0.034208,-0.025045
0.35895,1.5495,-1.1768,9.1202,-0.026267,0.029932,-0.019242
0.35498,1.5298,-1.1768,9.179,-0.040623,0.027184,-0.020159
0.34799,1.4318,-1.0199,9.1986,-0.041844,0.026573,-0.014966
0.34995,1.4318,-1.0199,9.2575,-0.022602,0.026878,-0.037874
0.36349,1.3925,-0.96105,9.1202,0.0067195,0.032987,-0.03543
0.3696,1.4318,-0.94144,9.2575,0.0281,0.036652,-0.03146
0.36923,1.5298,-1.0199,9.1202,0.028405,0.035125,-0.022907
0.36011,1.5102,-1.2749,9.0417,0.020464,0.03146,-0.018021
0.35513,1.4906,-1.118,9.179,0.011606,0.0281,-0.019548
0.35507,1.3337,-0.8826,9.3752,-0.042455,0.027489,-0.014355
0.34085,1.3533,-0.86299,9.434,-0.063225,0.019548,-0.009163
0.34848,1.5298,-0.8826,9.2183,-0.066584,0.0082467,-0.0033598
0.33185,1.5102,-1.118,9.179,-0.040928,-0.0045815,0.0033598
0.32626,1.5102,-1.118,9.179,0.0024435,-0.009163,-0.0067195
0.32077,1.5495,-1.1572,9.2575,0.041844,-0.00061087,-0.018326
0.30804,1.4906,-0.94144,9.2575,0.00061087,0.016493,-0.020464
0.2923,1.3533,-1.0003,9.1594,-0.017104,0.033903,-0.018021
0.28592,1.4514,-1.0199,9.1202,-0.050396,0.023824,0.29291
0.27835,1.216,-1.2553,9.179,-0.1069,0.01405,0.30177
0.28329,1.3533,-0.86299,9.1202,-0.18387,-0.0058032,0.0088575
0.27826,1.3337,-0.84337,9.2183,-0.28833,-0.040623,0.027794
0.26645,1.2356,-0.94144,9.0613,-0.44135,-0.081245,0.0562
0.24936,1.5298,-0.86299,9.3359,-0.62339,-0.10629,0.092852
0.24377,1.5298,-0.8826,9.3359,-0.86499,-0.12401,0.1347
0.24133,1.4318,-0.94144,9.2575,-1.1881,-0.20678,0.20189
0.24377,1.5495,-0.90221,9.2575,-0.018937,0.039706,-0.024435
0.26025,1.5495,-1.0199,9.1986,-0.027184,0.020464,-0.0067195
0.26993,1.4318,-1.0199,9.2575,-0.011912,0.014355,-0.0039706
0.27985,1.6083,-1.118,9.179,0.016799,0.019853,-0.010385
0.29861,1.4906,-1.1572,8.9437,0.032376,0.020769,-0.0097738
0.30655,1.3925,-0.90221,9.179,0.021991,0.012828,-0.0051924
0.30301,1.2945,-1.0199,9.3359,0.0015272,0.0082467,-0.0064141
0.29568,1.5298,-1.1572,9.2183,-0.013134,0.011912,-0.020464
0.30762,1.5298,-0.90221,9.3359,-0.021075,0.016188,-0.024129
0.29977,1.6083,-0.86299,9.2575,-0.019853,0.023213,-0.022297
0.30173,1.3337,-0.94144,9.179,-0.025045,0.025045,-0.002138
0.3046,1.2945,-0.8826,9.179,-0.030543,0.023518,-0.0076358
0.30432,1.5102,-0.8826,9.2575,-0.025045,0.022297,-0.012523
0.29749,1.3925,-1.0199,9.1986,-0.002138,0.024129,-0.019548
0.29468,1.4318,-0.94144,9.2575,0.025962,0.030543,-0.025045
0.30408,1.3729,-0.94144,9.2183,0.037263,0.037874,-0.025962
0.30304,1.3533,-1.0199,9.1202,0.034208,0.034514,-0.016493
0.31555,1.6083,-1.1768,9.1986,0.025045,0.024129,-0.0033598
0.31879,1.6083,-0.80415,9.3163,0.011301,0.022602,-0.018937
0.34006,1.4514,-0.68647,9.179,0.002138,0.02138,-0.018937
0.36368,1.5887,-0.33343,9.5125,0.0012217,0.018937,-0.024129
0.41653,1.3925,-0.23536,9.8263,0.0073304,0.024129,-0.025962
0.47552,1.3533,0.54917,10.199,0.0067195,0.030238,-0.02474
0.52432,1.4318,-0.80415,9.9832,-0.01069,0.029932,-0.024435
0.58099,1.4906,-2.5301,8.4337,-0.3094,-0.0094684,-0.015882
0.63947,1.8437,-3.6873,7.6492,-0.26909,-0.051618,-0.030849
0.66644,2.0006,-3.2362,8.5514,-0.081856,-0.023824,-0.097128
0.65573,1.6671,-2.2555,9.1202,0.12401,0.030543,-0.089797
0.60147,1.3533,-1.824,8.8064,0.28375,0.087354,-0.078496
0.53494,1.2356,-1.4318,8.5906,0.33567,0.11698,-0.051007
0.42899,1.216,-1.0003,8.316,0.28558,0.1182,-0.017715
0.31979,1.4318,-1.118,7.9434,0.16616,0.10263,-0.0054978
0.20441,1.5298,-1.5102,8.316,-0.17562,0.078191,0.0073304
0.1012,1.2356,-1.0591,9.1202,-0.2416,0.051618,0.0036652
0.0080566,1.0395,-0.86299,9.9439,-0.28466,0.02474,-0.042455
-0.090729,1.6671,-0.37265,10.16,-0.30238,0.0076358,-0.053756
-0.17606,1.3925,-0.94144,9.787,-0.29108,0.00061087,-0.058032
-0.2467,1.5298,-1.5298,8.7279,-0.24709,-0.0085521,-0.045204
-0.29807,1.824,-1.471,9.0613,0.029322,-0.021075,-0.026573
-0.32761,1.824,-1.0591,9.3752,-0.087048,-0.02474,-0.0051924
-0.32092,1.7064,-0.80415,9.4928,0.07758,-0.015577,0.0088575
-0.29279,1.5298,-0.62763,9.4144,0.16646,0.0073304,0.0045815
-0.25574,1.4318,-0.56879,9.3359,0.18234,0.043371,-0.0030543
-0.21045,1.4906,-0.62763,9.2771,0.12492,0.082161,-0.0082467
-0.16257,1.3533,-0.86299,9.2771,0.023213,0.10171,-0.0058032
-0.11746,1.5102,-1.3141,9.3163,-0.080023,0.091324,0.0067195
-0.076599,1.2945,-1.5691,9.3163,-0.16646,0.059254,0.015272
-0.027863,1.1964,-1.118,9.2183,-0.04948,0.025656,0.012828
0.0092163,1.216,-0.86299,9.1202,-0.18051,-0.0009163,0.02138
0.046478,1.216,-0.74531,9.179,-0.1631,-0.013134,0.012217
0.081879,1.3533,-1.0199,9.1202,-0.14233,-0.016799,-0.00061087
0.10181,1.3729,-1.1768,9.1594,-0.12004,-0.012828,0.0030543
0.12338,1.4906,-1.3533,9.179,-0.08827,-0.0079412,0.011606
0.1395,1.2945,-1.3533,9.2575,-0.053451,-0.0076358,0.021075
0.13599,1.3729,-1.3533,9.3555,-0.14813,-0.0088575,0.025351
0.14716,1.6671,-1.2553,9.0613,-0.17868,-0.0088575,0.028711
0.15286,1.3533,-1.0395,9.2575,-0.040928,-0.010996,-0.014355
0.1738,1.3533,-1.3533,9.4732,-0.0024435,0.0067195,-0.01405
0.22333,1.4906,-1.1768,9.2575,0.01741,0.020159,-0.025351
0.24252,1.4514,-1.4122,9.1594,0.0082467,0.022907,-0.019242
0.25711,1.5887,-1.3729,9.1202,-0.030238,0.015577,-0.014661
0.27969,1.5102,-1.216,9.0025,-0.083689,0,-0.012828
0.29483,1.3533,-1.1768,9.0613,-0.12278,-0.010996,-0.012828
0.29654,1.3337,-0.96105,9.434,-0.13653,-0.011606,-0.013134
0.30069,1.1964,-0.86299,9.4732,-0.10629,-0.0058032,-0.0018326
0.32138,1.3533,-1.216,9.3359,-0.071166,0.0027489,-0.0082467
0.32571,1.5102,-1.4318,9.2575,-0.032681,0.0054978,-0.0079412
0.33359,1.4906,-1.3337,9.0613,0.0058032,0.0042761,-0.0018326
0.33746,1.6083,-1.2553,9.1202,0.038485,0.01069,-0.0039706
0.33014,1.3533,-1.0983,9.1594,0.058643,0.023518,-0.012523
0.32016,1.2356,-1.1768,9.3359,0.067501,0.036957,-0.012828
0.30832,1.6083,-1.5102,9.1202,0.043066,0.044593,-0.0048869
0.28149,1.5298,-1.3533,9.179,0.007025,0.036652,0.0030543
0.25949,1.2945,-1.118,9.3359,-0.025656,0.018631,0.0085521
0.24503,1.2945,-0.94144,9.179,-0.043982,0.015577,-0.012523
0.23227,1.3729,-1.1768,9.0417,-0.051007,0.019853,-0.012828
0.21414,1.2945,-1.4318,9.0221,-0.058338,0.020159,-0.0073304
0.19717,1.4318,-1.3533,9.3752,-0.059559,0.016493,0.0012217
0.19006,1.5298,-1.2553,9.2575,-0.057421,0.014355,0.0064141
0.18015,1.3729,-1.1768,9.0221,-0.0562,0.016799,0.0039706
0.16931,1.4318,-1.1964,9.1594,-0.038485,0.012217,-0.02138
0.16916,1.2945,-1.1572,9.179,-0.013134,0.025962,-0.029322
0.14752,1.4514,-1.1768,9.179,-0.0082467,0.027794,0
0.13651,1.4318,-1.1964,9.179,-0.023213,0.019548,-0.00061087
0.11871,1.2945,-1.2553,9.179,-0.047037,0.009163,-0.0061087
0.10696,1.3533,-1.471,9.2575,-0.072693,-0.0042761,-0.012523
0.086548,1.5102,-1.5102,9.3555,-0.081551,-0.016799,-0.010079
0.061523,1.6867,-1.2553,9.179,-0.069944,-0.020464,-0.009163
0.043243,1.6867,-1.216,9.1202,0.024435,0.0281,-0.0094684
0.043335,1.5298,-1.1964,9.1202,0.0058032,0.032376,-0.0039706
0.038361,1.3533,-1.1768,9.2183,-0.016188,0.032987,-0.007025
0.029755,1.3533,-1.1768,9.0613,-0.032376,0.030849,-0.0088575
0.012451,1.3533,-1.118,9.1202,-0.039706,0.025962,-0.013744
0.0051575,1.3533,-1.0591,9.1202,-0.03543,0.018326,-0.014661
-0.0072327,1.3533,-1.2749,9.179,0.025656,0.012217,-0.011606
-0.0093994,1.4318,-1.2553,9.2575,0.034208,0.010385,-0.010079
-0.0030518,1.3729,-1.2553,9.1202,-0.00061087,0.0082467,-0.01405
0.0032654,1.5298,-1.2553,9.1594,0.0048869,0.007025,-0.011301
-0.006958,1.4906,-1.1768,9.179,0.0061087,0.014661,-0.0048869
-0.0075989,1.2749,-1.2553,9.3163,0.012523,0.02138,-0.0079412
-0.0029907,1.3925,-1.4318,9.0417,0.018021,0.022602,-0.0064141
0.0042419,1.2945,-1.2553,9.1594,0.018326,0.027184,-0.007025
0.0058289,1.3337,-1.0983,9.179,-0.023518,0.03207,-0.014966
0.026459,1.3533,-1.118,9.0613,-0.013134,0.032987,-0.017715
0.022095,1.5102,-1.1572,9.179,0.015882,0.029322,-0.0024435
0.014221,1.2356,-1.3337,9.2183,0.0088575,0.02138,-0.0030543
0.019623,1.4318,-1.4122,9.179,-0.0073304,0.013744,-0.0094684
0.01001,1.5298,-1.5102,9.1594,-0.025045,0.0064141,-0.0061087
0.023468,1.4318,-1.1964,9.1594,-0.037874,0.0030543,-0.0042761
0.010651,1.5298,-1.0395,9.1594,-0.036346,0.0054978,-0.0042761
0.0092163,1.4318,-1.118,9.2575,-0.022297,0.014661,-0.0009163
-0.00015259,1.1964,-1.1768,9.2575,-0.00061087,0.02474,-0.00030543
-0.0093079,1.5298,-1.3533,9.1202,0.016493,0.032987,-0.0079412
-0.0092773,1.3337,-1.3337,9.1006,-0.01069,0.01741,-0.0079412
-0.018677,1.5102,-1.2553,9.179,-0.045509,0.0088575,0.002138
-0.028473,1.4318,-1.216,9.1202,-0.072693,0.0030543,0.0030543
-0.039154,1.4318,-1.0983,9.1986,-0.07758,-0.0012217,0.0048869
-0.03891,1.4318,-1.1768,9.2183,-0.059254,-0.00061087,0.0033598
-0.048676,1.5102,-1.5102,9.1202,-0.027794,0.0088575,-0.0009163
-0.05365,1.4318,-1.3729,9.179,0.0033598,0.020464,-0.0039706
-0.066528,1.3533,-1.1964,9.1202,-0.028711,0.017104,-0.0012217
-0.062958,1.3533,-1.2553,9.3359,-0.047647,0.0015272,-0.0024435
-0.045898,1.5102,-1.0591,9.1986,-0.045509,-0.011301,0.0064141
-0.054199,1.2945,-1.216,9.2575,-0.03146,-0.01405,0.0067195
-0.06958,1.5102,-1.3533,9.179,-0.0039706,-0.0079412,0.0073304
-0.079773,1.1964,-1.216,9.3163,0.017104,0.0073304,0.007025
-0.076538,1.5298,-1.118,9.3163,0.029932,0.016799,0.0015272
-0.08844,1.5102,-1.118,9.2183,0.033903,0.022907,-0.0030543
-0.097046,1.1964,-1.1768,9.3359,0.039401,0.023824,0.025351
-0.10327,1.5495,-1.3533,9.179,0.043677,0.024435,0.016493
-0.11093,1.4906,-1.2553,9.0417,0.0281,0.023213,0.00030543
-0.12549,1.3533,-1.1768,9.0613,0.015882,0.0082467,0.0082467
-0.14114,1.2945,-1.0395,9.2575,0.015577,-0.0015272,0.0085521
-0.14029,1.3925,-1.3533,9.1594,0.014355,0.00061087,0
-0.15186,1.2945,-1.3533,9.0417,0.0058032,0.0024435,0.0024435
-0.155,1.4906,-1.118,9.179,0.01405,-0.0061087,0.018021
-0.15414,1.3533,-0.90221,9.2575,-0.017715,0.009163,-0.0009163
-0.16019,1.4906,-1.1572,9.2183,0.01405,0.01405,-0.0024435
-0.15173,1.3533,-1.216,9.1986,0.050396,0.027184,-0.021075
-0.1571,1.5495,-1.3337,9.179,0.070555,0.038179,-0.021686
-0.14786,1.3337,-1.2553,9.2183,0.07025,0.042761,-0.017715
-0.13034,1.3729,-1.118,9.1202,0.050091,0.039095,-0.01405
-0.12726,1.4514,-1.0395,9.2575,0.010385,0.025656,-0.0064141
-0.12109,1.2945,-1.1768,9.0417,-0.028405,0.010079,-0.0015272
-0.10773,1.3533,-1.2749,9.1202,-0.057727,-0.0033598,0.0027489
-0.086304,1.5298,-1.216,9.2183,-0.051007,-0.0097738,0.0039706
-0.072083,1.5298,-1.118,9.2575,-0.026573,-0.0097738,-0.0018326
-0.042084,1.4318,-0.94144,9.1986,0.0054978,-0.0024435,-0.0009163
-0.037933,1.1964,-1.0199,9.3163,0.032376,0.01069,0.0015272
-0.012604,1.5102,-1.118,9.179,0.045509,0.022297,0.0039706
0.027985,1.5298,-1.3141,9.2575,0.035736,0.029932,0
0.047485,1.5102,-0.94144,9.1986,0.0058032,0.026878,-0.0018326
0.10208,1.3533,-0.31381,9.3359,0.45235,-0.0030543,-0.051924
0.18021,1.118,-0.47072,9.6497,0.3262,0.046731,-0.020159
0.2908,1.1964,-1.2553,9.2771,0.11118,0.079107,-0.076053
0.41733,1.3533,-1.824,9.0613,-0.14416,0.082467,-0.047647
0.54428,1.5298,-1.9417,8.7083,-0.37843,0.058643,-0.036652
0.66751,1.4906,-1.4318,8.8652,-0.57941,0.019548,-0.060781
0.76682,1.4318,-1.0199,9.4144,0.38973,-0.021686,-0.085827
0.827,1.3533,-1.216,9.3752,0.47678,-0.056505,-0.076053
0.83701,1.5495,-1.9809,8.9633,-0.14325,-0.037568,-0.044593
0.82932,1.5102,-2.2163,8.6299,-0.03207,-0.035125,-0.021686
0.81439,1.6083,-1.9809,8.8456,0.066279,-0.033292,-0.0048869
0.7601,1.7064,-1.7456,9.0417,0.14722,-0.013439,-0.023213
0.68848,1.7064,-1.9809,9.1594,0.24557,0.0061087,-0.020769
0.60693,2.0006,-2.3536,9.5713,0.26359,-0.011912,0.0039706
0.52817,2.1378,-1.9613,9.3163,0.26664,-0.0051924,-0.0009163
0.44656,1.3337,-1.5691,8.7868,0.28986,0.023518,-0.043371
0.38657,1.1964,-1.1964,8.6299,0.28497,0.022602,-0.19578
0.30521,1.2356,-1.2553,8.0807,0.4609,0.045815,-0.17349
0.23428,1.1768,-2.6086,7.3158,0.72235,0.057116,-0.013134
0.17435,1.6867,-3.0793,7.3942,0.98044,0.054062,-0.00030543
0.084045,0.98067,-1.1768,9.5125,1.1521,0.15302,-0.0048869
-0.021942,0.90221,0.45111,10.591,1.1322,0.3488,-0.062919
-0.19052,0.70608,0.35304,10.062,0.25229,0.5174,-0.13897
-0.36752,0.98067,-0.8826,9.3752,0.2364,0.58368,-0.18234
-0.51874,1.5887,-1.6279,9.0613,0.27855,0.54214,-0.14264
-0.616,2.0594,-1.6671,9.787,-0.038485,0.42791,-0.10232
-0.65637,1.9221,-0.8826,9.5909,-0.25015,0.27122,-0.11729
-0.64905,1.5298,0,9.5125,-0.27825,0.10018,-0.074831
-0.63284,1.3533,0.68647,9.5125,-0.093462,-0.05284,-0.07422
-0.60611,1.5102,0.62763,9.3752,0.18509,-0.14752,-0.11148
-0.57877,1.5298,-0.25497,9.3752,0.93432,-0.1518,-0.14233
-0.55637,1.3925,-1.3533,9.179,0.62217,-0.071471,-0.15821
-0.51099,1.6083,-1.824,9.0417,-0.1014,-0.055589,-0.026267
-0.4473,1.2945,-1.6279,9.3359,-0.049175,-0.030849,-0.039706
-0.37378,1.216,-1.216,9.2575,0.020464,-0.0027489,0.021686
-0.32526,1.2945,-1.3729,9.179,0.096211,0.03879,-0.0036652
-0.2724,1.216,-1.6671,9.0417,0.14233,0.075136,-0.020159
-0.22992,1.3533,-1.6671,8.9437,0.1295,0.083078,-0.013439
-0.18759,1.0591,-1.1768,9.1202,0.068722,0.065668,-0.012523
-0.14212,1.1376,-0.96105,9.2575,-0.0094684,0.03879,-0.018021
-0.11307,1.3533,-1.0199,9.4928,-0.065057,0.01741,-0.025962
-0.08667,1.5102,-1.1768,9.2575,-0.080023,0.016493,-0.037568
-0.072296,1.6475,-1.3141,9.0417,-0.05681,0.036652,-0.048869
-0.030334,1.4318,-1.5298,8.6887,-0.0051924,0.062614,-0.049175
-0.0017395,1.5495,-1.5102,8.9044,0.063225,0.084605,-0.041844
0.019653,1.3533,-1.1572,9.2575,0.13531,0.099266,-0.031154
0.023132,1.0787,-0.8826,9.4144,0.18631,0.09896,-0.021991
0.0085754,1.3533,-1.216,9.1594,0.1912,0.081856,-0.019548
0.0064392,1.2945,-1.3533,8.9437,0.16066,0.068111,-0.06353
-0.024811,1.4514,-1.6279,9.0221,0.13806,0.057116,-0.069333
-0.073181,1.1964,-1.4318,9.1202,0.11148,0.047342,-0.039706
-0.11526,1.3925,-1.1768,9.3359,0.081551,0.036652,-0.039095
-0.16586,1.4906,-1.118,9.179,0.071471,0.020769,-0.044899
-0.23743,1.5887,-1.118,9.3555,0.09896,0.0009163,-0.050396
-0.25055,1.5298,-1.118,9.1986,0.16738,-0.01069,-0.049786
-0.28128,1.5495,-1.3729,9.179,0.25504,-0.0051924,-0.052534
-0.30295,1.8437,-1.3141,9.2183,0.32162,0.025656,-0.057727
-0.30698,1.3337,-0.72569,9.2183,0.35125,0.058643,-0.053145
-0.3103,1.0787,-0.54917,9.2575,0.33475,0.073609,-0.055894
-0.31613,1.118,-0.64724,9.179,0.26084,0.073609,-0.040623
-0.31686,1.1964,-0.8826,9.1594,0.15547,0.062003,-0.037263
-0.3161,0.74531,-0.86299,9.3359,0.054672,0.039095,-0.03543
-0.31589,1.0395,-0.86299,9.2771,-0.020769,0.020769,-0.043066
-0.31348,1.118,-0.78453,9.2183,-0.054978,0.013744,-0.055283
-0.31836,1.4318,-0.90221,9.3555,-0.073915,-0.021991,-0.0085521
-0.31213,1.2945,-1.0199,9.1986,-0.045204,-0.012217,-0.017715
-0.29312,1.5298,-1.118,9.1202,-0.014966,-0.0015272,-0.0088575
-0.27631,1.5102,-1.0983,9.179,-0.0045815,0.0027489,-0.0067195
-0.26367,1.216,-0.96105,9.1202,-0.015272,-0.00061087,-0.0018326
-0.25629,1.118,-0.84337,9.3555,-0.031765,-0.0042761,0.00061087
-0.25058,1.216,-0.90221,9.179,-0.047647,-0.0073304,-0.00030543
-0.25693,1.3533,-1.0983,9.3752,-0.054062,-0.0076358,-0.002138
-0.24289,1.6083,-1.3141,9.1202,0.017715,-0.0027489,-0.011912
-0.23413,1.6671,-1.0591,9.1202,0.016799,0.0079412,-0.018021
-0.22849,1.3533,-0.74531,9.179,-0.0076358,0.015882,-0.017715
-0.20953,1.3729,-0.80415,9.2575,-0.045509,0.015272,-0.010079
-0.19214,1.5298,-0.94144,9.1986,-0.078191,0.0045815,-0.00030543
-0.18378,1.3729,-1.1768,9.179,-0.086743,-0.014355,0.0024435
-0.16498,1.4318,-1.216,9.2183,-0.035125,-0.0281,-0.0018326
-0.1582,1.5298,-1.0199,9.3163,-0.0048869,-0.024435,-0.0079412
-0.15076,1.4318,-0.90221,9.3359,-0.025962,-0.007025,0.0018326
-0.12512,1.3533,-0.90221,9.179,-0.0073304,0.016188,0.0073304
-0.13278,1.3533,-1.0983,9.179,0.02138,0.033903,-0.021991
-0.11365,1.4906,-1.118,9.2183,0.049786,0.039095,-0.015882
-0.1138,1.2945,-1.0003,9.3163,0.043677,0.037263,-0.0048869
-0.10886,1.5495,-1.118,9.3359,0.0064141,0.03879,-0.002138
-0.10138,1.5298,-1.0199,9.0025,-0.071777,0.039401,-0.0051924
-0.10898,1.3337,-1.1768,8.9437,-0.048564,0.032681,-0.0048869
-0.11282,1.3729,-1.1768,9.0417,-0.079107,0.017715,0.020464
-0.12695,1.4514,-1.0591,9.2771,-0.072388,0.0042761,0.095295
-0.11963,1.3925,-0.90221,9.0417,-0.047953,0.002138,0.0009163
-0.11319,1.2945,-1.0199,9.0417,0.024435,0.0064141,-0.0058032
-0.12238,1.3533,-1.1572,9.179,0.16799,0.0027489,-0.012828
-0.11774,1.4318,-1.1768,9.3359,0.32895,-0.009163,-0.0079412
-0.10355,1.3925,-1.1768,9.4144,-0.037874,-0.026267,0.0054978
-0.083801,1.6867,-0.86299,9.6301,-0.068417,-0.0058032,0.0033598
-0.059631,1.6867,-0.17652,9.7478,-0.10201,0.011912,0.03543
-0.0079956,1.1964,1.1572,10.591,-0.17196,0.012523,0.032681
0.044159,1.2356,-0.078453,10.12,-0.26603,0.021991,0.023824
0.090302,1.3533,-2.432,9.0221,-0.37293,0.020159,0.028711
0.11615,1.6867,-3.3539,8.1199,-0.48258,0.0036652,0.032681
0.078186,1.824,-2.7262,8.5318,-0.55589,-0.02474,0.033903
-0.0099792,2.0594,-1.7456,7.4531,-0.56658,-0.059559,0.031765
-0.1254,0.8826,-1.216,9.179,-0.51771,-0.082467,0.032987
-0.24756,1.6475,-0.72569,8.7083,-0.42425,-0.084299,0.061087
-0.33502,1.6671,-0.68647,8.0022,-0.31826,-0.065973,0.0562
-0.41541,1.0199,-0.72569,7.8649,-0.23396,-0.042455,0.030238
-0.50244,0.86299,-1.0199,9.0221,-0.197,-0.02474,0.036652
-0.58401,0.80415,-0.80415,10.003,-0.22694,-0.0079412,0.045204
-0.6586,1.3337,-0.56879,10.297,-0.32956,-0.0061087,0.055589
-0.73334,1.4318,-0.74531,9.7478,-0.48258,-0.023518,0.066279
-0.76962,1.3533,-0.72569,8.9633,-0.61942,-0.058948,0.06689
-0.78384,1.3729,-0.49033,9.5713,-0.67592,-0.10415,0.06017
-0.74161,1.3533,-0.62763,9.6694,-0.64416,-0.13378,0.069944
-0.66949,1.5298,-0.47072,9.5125,-0.53298,-0.12462,0.037874
-0.57111,1.1964,-0.27459,9.4144,-0.37996,-0.087659,0.01069
-0.46069,1.3533,-0.56879,9.3752,-0.24068,-0.040623,-0.0009163
-0.35571,1.3533,-1.1768,9.3555,-0.15241,0.0027489,0.0085521
-0.23819,1.5495,-1.5102,9.434,-0.14691,0.032987,0.026267
-0.12387,1.4318,-1.5102,9.3752,-0.23854,0.043371,0.044593
-0.015869,1.4514,-1.2553,9.3359,0.016493,0.16616,-0.0064141
0.075684,1.2356,-0.94144,9.3359,-0.0085521,0.12767,0.011606
0.15848,1.5495,-1.4906,8.8064,-0.10934,0.060476,-0.10537
0.24347,1.6867,-1.8829,8.6299,-0.24709,-0.03207,-0.063225
0.30048,1.4318,-1.9417,8.8848,-0.26786,-0.066279,-0.06689
0.35446,1.5298,-1.5887,9.0025,-0.14294,-0.021991,-0.085521
0.41284,1.3533,-1.1768,9.1986,-0.04948,0.012828,-0.072082
0.48141,1.1964,-1.0003,9.4144,-0.032987,0.019548,-0.029016
0.54486,1.1768,-1.6671,9.1986,0.021991,0.0027489,0.0024435
0.62482,1.6083,-2.6282,8.8064,0.0061087,0.033903,-0.0094684
0.71851,1.9221,-3.0008,8.6299,-0.043371,0.048869,0.0067195
0.7926,1.8044,-2.7262,8.6299,-0.10293,0.047037,0.017715
0.86169,1.4318,-1.8437,8.9044,-0.15119,0.029322,0.022907
0.905,1.4318,-1.5102,9.179,-0.17104,0.0027489,0.019853
0.93842,1.4318,-1.8829,9.179,-0.076053,-0.021686,0.015577
0.957,1.7456,-2.589,8.7083,-0.0076358,-0.032376,0.010385
0.9632,1.9809,-2.8243,8.4926,-0.01741,-0.026878,-0.076053
0.96854,1.5495,-2.432,8.6887,0.06017,-0.0085521,-0.07025
0.96063,1.6083,-1.9809,8.9437,0.12278,0.022297,-0.026573
0.94696,1.3925,-1.9025,9.0417,0.14905,0.057727,-0.047342
0.91107,1.3533,-2.2948,8.8456,0.13561,0.09163,-0.065363
0.88834,1.824,-2.5693,8.8652,0.086437,0.11179,-0.071471
0.85281,1.6083,-2.5105,8.7279,-0.14783,0.10812,-0.073609
0.80304,1.5495,-2.1378,8.8652,-0.087965,0.091935,-0.076053
0.75275,1.4318,-1.824,8.8652,-0.062308,0.0073304,0.0048869
0.71414,1.3533,-1.9417,9.0613,-0.1408,-0.03879,0.012217
0.68033,1.5495,-2.2751,8.8848,-0.17074,-0.055283,-0.00030543
0.65363,1.5298,-2.6674,8.7279,-0.15852,-0.044899,-0.029932
0.62982,1.6867,-2.7655,8.5514,-0.11973,-0.025045,-0.042761
0.6037,1.5298,-2.4713,8.7083,-0.058643,0,-0.033903
0.58499,1.5495,-2.2555,8.8652,-0.0009163,0.025962,-0.024129
0.57834,1.6671,-2.2948,8.8652,0.018021,0.040623,-0.0094684
0.56433,1.6867,-2.6282,8.4926,-0.009163,0.039401,-0.018021
0.5614,1.9221,-2.9224,8.4729,-0.075136,0.026878,-0.0051924
0.56644,1.824,-2.942,8.6299,-0.16005,0.0061087,0.016188
0.58282,1.7064,-2.687,8.8652,-0.24587,-0.019242,0.016188
0.6004,1.5298,-2.2948,8.7279,-0.30085,-0.049786,0.016188
0.61124,1.5102,-1.8829,8.8652,-0.29688,-0.068417,0.012828
0.61368,1.4318,-1.8437,8.8652,-0.24312,-0.059865,0.0018326
0.61407,1.3925,-2.0986,8.8064,-0.16249,-0.033598,-0.016188
0.61368,1.3925,-2.4517,8.7083,0.02474,0.03543,-0.016188
0.6268,1.2356,-2.7851,8.8652,0.0082467,0.033598,-0.022907
0.64801,1.4318,-2.6086,8.8064,-0.0079412,0.026878,-0.013744
0.62585,1.1964,-2.6282,8.9437,-0.017104,0.021686,-0.012523
0.61145,1.3533,-2.6086,8.8652,-0.025045,0.016799,-0.012523
0.58398,1.5887,-2.432,8.8652,-0.03207,0.018937,-0.012217
0.5527,1.6083,-2.5105,8.8652,-0.025351,0.02138,-0.014661
0.5119,1.4318,-2.2751,8.8652,-0.0061087,0.024435,-0.016188
0.47519,1.5298,-2.1967,8.6495,-0.063225,0.03146,0.0042761
0.4574,1.4318,-2.3732,8.8652,0.0018326,0.040623,0.0051924
0.43832,1.5298,-2.2751,8.8652,0.012828,0.044593,-0.023824
0.43152,1.6083,-2.1575,8.8652,0.012523,0.043982,-0.017715
0.43787,1.3729,-2.1967,8.9437,-0.0039706,0.037874,-0.010079
0.439,1.5298,-2.3144,8.7083,-0.0281,0.025962,-0.0009163
0.4523,1.5298,-2.432,8.7279,-0.048258,0.014355,0.0045815
0.4585,1.7064,-2.432,8.7475,-0.060476,0.0097738,0.0042761
0.47217,1.6867,-2.432,8.7868,0.027184,0.014966,-0.021686
0.4863,1.6083,-1.9809,8.8456,0.060781,0.034514,-0.014966
0.49625,1.3533,-2.1378,8.8652,0.080634,0.050702,-0.0079412
0.50354,1.5887,-2.4124,8.8064,0.074526,0.0562,-0.0024435
0.51865,1.5298,-2.432,8.8064,0.040623,0.050396,-0.0015272
0.51666,1.3925,-2.432,8.7475,-0.01069,0.034514,-0.0033598
0.51965,1.5102,-2.5301,8.7868,-0.061087,0.022297,-0.0027489
0.50928,1.4318,-2.2751,8.7279,-0.087965,0.01405,-0.0036652
0.51141,1.0591,-2.1967,9.0417,-0.076358,0.010385,-0.016493
0.51324,1.2356,-2.1967,8.9437,-0.048258,0.010079,-0.017104
0.51868,1.5495,-2.2948,8.7475,-0.023213,0.016188,-0.0045815
0.51779,1.3925,-2.4124,8.7083,-0.0088575,0.026267,-0.0085521
0.51196,1.6475,-2.1967,8.8456,0.0015272,0.030543,-0.010996
0.5134,1.3729,-2.0594,8.8848,0.015272,0.032987,-0.01069
0.4931,1.5298,-2.1182,8.9437,0.018937,0.033292,-0.012523
0.49173,1.3533,-2.2163,8.8064,0.023824,0.03207,-0.015577
0.48386,1.4318,-2.2751,8.7279,-0.017104,0.022297,0.014355
0.48618,1.5102,-2.3732,8.7279,-0.011912,0.024435,0.016188
0.50381,1.5887,-2.2948,8.8064,-0.0088575,0.023213,-0.0015272
0.53436,1.4906,-2.2751,8.8652,-0.0064141,0.022907,0.0009163
0.55865,1.5495,-2.3144,8.8064,-0.012217,0.025962,0.0015272
0.58441,1.3337,-2.3732,8.9437,-0.025045,0.030238,0.00061087
0.59409,1.4318,-2.432,8.7279,-0.035736,0.031154,0.0079412
0.62131,1.5298,-2.2751,8.8652,-0.027489,0.024435,0.013744
0.62811,1.3533,-2.2751,8.9437,-0.053756,-0.00061087,-0.0045815
0.64905,1.6671,-2.432,8.7279,-0.048869,-0.0061087,-0.0054978
0.6636,1.5298,-2.3144,8.7083,-0.026573,-0.00030543,-0.011301
0.66351,1.5495,-2.2555,8.8652,0.00030543,0.010079,-0.012523
0.66687,1.3729,-1.9809,8.8848,0.019853,0.019853,-0.010996
0.64828,1.3533,-2.2555,8.9044,0.0281,0.026878,-0.0085521
0.64893,1.4906,-2.432,8.8652,0.023213,0.029932,-0.011606
0.63947,1.3925,-2.3732,8.8456,0.0064141,0.025962,-0.01069
0.63141,1.6475,-2.3732,8.8456,-0.069639,0.018021,-0.012217
0.63284,1.4906,-2.2163,8.8652,-0.072082,0.010079,-0.011301
0.62122,1.5298,-2.1575,9.0025,-0.065668,-0.0030543,-0.0079412
0.59192,1.5495,-2.1967,8.8652,-0.062003,-0.010385,-0.0067195
0.61444,1.5102,-2.3732,9.0221,-0.055283,-0.016188,-0.0058032
0.60626,1.5887,-2.3536,8.8848,-0.038485,-0.022907,-0.0058032
0.61325,1.6867,-2.2948,8.5318,-0.021075,-0.028405,-0.0061087
0.60648,1.4318,-2.1575,8.6887,-0.052229,-0.023824,-0.0085521
0.60236,1.4514,-2.1378,8.7475,0.044899,-0.0061087,-0.0079412
0.59494,1.5102,-2.2163,8.8652,0.035125,0.016188,-0.0067195
0.58228,1.6083,-2.2751,8.7475,0.0067195,0.037568,-0.01069
0.5679,1.6083,-2.3144,8.7475,-0.025045,0.046731,-0.012217
0.56375,1.4514,-2.3732,8.7279,-0.042455,0.041539,-0.0085521
0.55716,1.5495,-2.3732,8.8064,-0.042455,0.029932,-0.0042761
0.54391,1.3337,-2.1967,8.8064,-0.0054978,0.019853,-0.0051924
0.53049,1.3925,-2.1967,9.0221,0.029016,0.018631,-0.0064141
0.51706,1.5495,-2.432,8.8064,-0.018021,0.00030543,-0.013744
0.5119,1.5298,-2.9028,8.8652,0.00061087,0.0042761,-0.019242
0.51913,1.5102,-2.5105,8.8652,0.019548,0.015272,-0.018937
0.52161,1.4514,-2.2948,8.9437,0.026573,0.022907,-0.01741
0.52264,1.5102,-2.0006,8.9437,0.012523,0.021075,-0.01069
0.49927,1.5298,-2.1378,8.8848,-0.012523,0.012523,-0.0054978
0.48544,1.6671,-2.2948,8.7868,-0.024435,-0.00061087,-0.0036652
0.47046,1.5495,-2.4124,8.8652,-0.014661,-0.0030543,-0.0061087
0.45581,1.3533,-2.2751,8.8652,0.034819,0.0082467,-0.026878
0.44894,1.5298,-2.2555,8.8456,0.059865,0.022297,-0.023824
0.44681,1.3533,-2.1378,8.8652,0.069944,0.029627,-0.02138
0.4584,1.4514,-2.2751,8.8652,0.065057,0.032376,-0.022602
0.4628,1.4318,-2.3732,8.7475,0.054672,0.030543,-0.023824
0.47131,1.4906,-2.4124,8.7083,0.041539,0.025962,-0.02474
0.4823,1.4318,-2.2163,8.8456,0.040317,0.018021,-0.027184
0.48914,1.4906,-2.1378,8.8064,0.058338,0.0094684,-0.0281
0.48807,1.6083,-2.4517,8.8652,0.091324,0.0079412,-0.027794
0.49713,1.6083,-2.2948,8.8456,0.12462,0.015882,-0.039095
0.505,1.5887,-2.1378,8.8652,0.14661,0.030238,-0.021686
0.49561,1.3533,-2.0986,8.8652,0.16188,0.040623,-0.019853
0.48767,1.3925,-2.1967,8.9437,0.16952,0.045509,-0.017715
0.48611,1.3729,-2.2751,8.7279,0.18234,0.045815,-0.018326
0.48474,1.3533,-2.2163,8.8064,0.20464,0.051313,-0.017104
0.48764,1.4906,-2.1575,8.9044,0.2303,0.055283,-0.018631
0.47824,1.5298,-2.4124,8.8652,0.24923,0.061392,-0.092546
0.47568,1.2945,-2.1967,9.0025,0.26237,0.06689,-0.090713
0.4744,1.6083,-2.3144,9.1594,0.27703,0.05681,-0.043982
0.46231,1.6671,-2.432,9.0417,0.32437,0.045204,-0.045815
0.43417,1.6867,-2.432,8.7868,0.41966,0.048564,-0.063225
0.4053,1.7652,-2.1378,8.6887,0.52595,0.075442,-0.085827
0.37781,1.3925,-1.4318,8.8456,0.61545,0.11087,-0.087354
0.33176,1.1964,-0.90221,9.3555,0.66676,0.14294,-0.087354
0.27225,1.216,-0.72569,9.434,-0.035125,-0.018631,-0.025351
0.22568,1.1964,-1.3141,9.1202,-0.0030543,0.0030543,-0.020464
0.17456,1.3533,-1.7456,8.9437,0.025045,0.02138,-0.01405
0.11948,1.3729,-1.6279,8.9437,0.037874,0.031154,-0.010079
0.048706,1.216,-1.3141,9.179,0.025962,0.033292,-0.012523
-0.013,0.92183,-1.3141,9.3359,0.0027489,0.022297,-0.016799
-0.069305,1.3533,-1.471,9.2183,-0.015272,0.0085521,-0.018326
-0.12192,1.216,-1.4318,9.0025,-0.023824,-0.0030543,-0.02138
-0.1626,1.5298,-1.5102,9.1986,-0.0027489,-0.012828,0.012828
-0.18063,1.4318,-1.7456,9.0417,0.015272,-0.018021,0.015272
-0.19128,1.3337,-1.824,8.8456,0.039706,-0.018021,-0.019548
-0.20319,1.4318,-1.6867,9.1594,0.065363,-0.015882,-0.02138
-0.20438,1.5495,-1.471,9.1986,0.076664,-0.0097738,-0.011606
-0.24133,1.5495,-1.471,9.1202,0.063835,0.00061087,-0.00030543
-0.25537,1.3533,-1.5102,9.2183,-0.023824,0.0082467,0.0027489
-0.27606,1.6867,-1.824,8.8652,-0.016188,0.007025,0.0054978
-0.30756,1.3729,-1.7456,8.9437,-0.030543,-0.00061087,0.0027489
-0.32977,1.4906,-1.6279,9.0417,-0.06017,-0.0054978,0.0018326
-0.35495,1.2356,-1.4318,9.1202,-0.074831,-0.011606,0.015577
-0.37134,1.1964,-1.5102,9.2575,-0.067806,-0.023518,0.018631
-0.39291,1.3729,-1.5691,9.179,-0.045815,-0.029627,0.015272
-0.39795,1.4318,-1.5298,9.1202,-0.025962,-0.020769,0.0036652
-0.41443,1.4318,-1.5102,9.0613,0.034208,-0.0012217,-0.0024435
-0.42108,1.118,-1.3533,9.1594,0,0.013439,-0.0009163
-0.43008,1.3533,-1.4318,9.1202,0.010385,0.0073304,-0.0076358
-0.43198,1.216,-1.5102,9.1986,0.021991,0.012828,-0.014661
-0.42825,1.5298,-1.7456,9.0417,0.0045815,0.01069,0.00030543
-0.43179,1.6475,-1.6475,8.8848,-0.028405,0.00030543,0.002138
-0.439,1.6867,-1.824,9.0221,-0.054367,-0.012217,-0.0018326
-0.43857,1.5102,-1.5691,9.0417,-0.067806,-0.020159,-0.0097738
-0.4436,1.5495,-1.4318,9.0417,-0.076969,-0.025045,-0.010079
-0.4574,1.2945,-1.3533,9.179,-0.065057,-0.027794,-0.0051924
-0.46231,1.5102,-1.5102,9.179,-0.044899,0.019548,-0.0097738
-0.45605,1.1964,-1.7456,9.1202,-0.022602,0.023213,-0.013439
-0.44305,1.4906,-1.6475,9.0613,0.0061087,0.030238,-0.01741
-0.44955,1.3533,-1.6671,8.8456,0.03207,0.040012,-0.023824
-0.44543,1.2945,-1.6279,8.9437,0.043677,0.047037,-0.024435
-0.44983,1.3533,-1.5691,9.0417,0.032681,0.051313,-0.018937
-0.45636,1.3533,-1.6475,9.1594,0.012828,0.047037,-0.012523
-0.46194,1.4514,-1.5298,9.1202,-0.0054978,0.037568,-0.01069
-0.46408,1.5298,-1.5298,9.1202,-0.020464,0.029627,-0.0094684
-0.48248,1.5298,-1.824,9.0025,-0.03207,0.025045,-0.0051924
-0.49426,1.5298,-1.8829,8.9437,-0.035125,0.026878,-0.014661
-0.51059,1.6867,-1.7456,9.1006,-0.024435,0.029322,-0.012523
-0.52042,1.5495,-1.6279,8.8064,-0.010385,0.030849,-0.0094684
-0.53226,1.5495,-1.6475,9.1594,-0.002138,0.03207,-0.010385
-0.54822,1.4318,-1.6279,9.0025,-0.00030543,0.032376,-0.010385
-0.56372,1.4318,-1.5102,8.9044,0.0051924,0.0281,-0.012217
-0.57358,1.3729,-1.4318,9.1594,0.020159,0.026267,-0.025045
-0.58545,1.2356,-1.5691,9.0221,0.031765,0.029016,-0.029322
-0.57715,1.4514,-1.6279,9.2183,0.033903,0.036957,-0.0054978
-0.57693,1.5298,-1.6475,9.1202,0.022297,0.043371,-0.0054978
-0.56854,1.4514,-1.6279,8.9437,0.00030543,0.044593,-0.0024435
-0.55896,1.5102,-1.5691,9.0613,-0.020769,0.038179,-0.0033598
-0.55557,1.4906,-1.5298,9.0613,-0.021991,0.026573,-0.0051924
-0.55292,1.5495,-1.6279,9.179,-0.0045815,0.025351,-0.01405
-0.54871,1.2356,-1.5887,9.1202,-0.018021,0.020464,-0.011606
-0.5535,1.3925,-1.6475,9.0221,-0.0051924,0.0094684,-0.012523
-0.54337,1.3729,-1.726,9.179,0.021991,0.024435,-0.027489
-0.53525,1.5495,-1.6475,9.1202,0.033598,0.043982,-0.024435
-0.53583,1.5887,-1.5691,9.0613,0.012217,0.04215,-0.014355
-0.54144,1.4514,-1.6475,9.1202,-0.021686,0.030238,-0.0045815
-0.53653,1.3533,-1.5298,9.1006,-0.043677,0.020464,-0.0051924
-0.52429,1.6083,-1.726,9.0025,-0.053756,0.018326,-0.011606
-0.51062,1.2356,-1.4906,9.0417,-0.15363,-0.017715,0.044899
-0.47659,1.3925,-1.4318,9.1594,-0.13164,-0.020159,0.038485
-0.42984,1.5102,-1.5691,9.1594,-0.11057,-0.01741,0.016799
-0.41528,1.3729,-1.6279,9.0025,-0.085521,-0.013744,0.025351
-0.38321,1.3533,-1.5691,9.0417,-0.0562,-0.0085521,0.028711
-0.3653,1.118,-1.6279,9.1594,-0.052229,-0.0012217,0.028711
-0.35669,1.3533,-1.6475,8.9044,-0.17104,0.01405,0.030238
-0.33859,1.3337,-1.5102,9.0417,-0.17287,0.014966,0.036346
-0.33517,1.3729,-1.6475,9.0417,-0.072082,0.0051924,-0.013134
-0.33047,1.3337,-1.6671,8.8652,-0.0562,0.0030543,-0.01741
-0.31277,1.5298,-1.6671,8.9633,-0.029627,0.0073304,0.027489
-0.30325,1.2945,-1.6279,8.8456,-0.0051924,0.016493,0.026573
-0.26752,1.1964,-1.5102,9.0417,0.012217,0.028405,0.025962
-0.21161,1.1964,-1.3533,9.1594,0.026267,0.034514,0.016799
-0.16245,1.2356,-1.3533,9.2575,-0.06689,0.036041,0.0042761
-0.10071,1.5298,-1.3729,9.1986,-0.076969,0.036652,-0.0067195
-0.055908,1.5495,-1.5887,9.1202,0.06689,0.066279,-0.0064141
-0.024933,1.6671,-1.6671,9.1202,0.030543,0.052534,-0.0094684
-0.0096436,1.6083,-1.6867,8.8064,-0.031765,0.0281,-0.018631
-0.013519,1.3337,-1.5691,9.0221,-0.096822,0.0015272,-0.011912
-0.028503,1.0395,-1.216,9.3359,-0.14142,-0.016188,-0.019242
-0.059143,1.2945,-1.3533,9.2183,-0.16524,-0.024129,-0.026878
-0.092712,1.3533,-1.4318,9.1202,-0.17287,-0.034819,-0.022602
-0.13028,1.216,-1.6279,9.1006,-0.16493,-0.040928,-0.0094684
-0.15753,1.118,-1.726,9.1202,-0.04948,-0.043677,-0.0054978
-0.17905,1.4318,-1.7456,8.9437,-0.0042761,-0.033903,0.0045815
-0.20258,1.2356,-1.824,9.0417,0,-0.0039706,-0.009163
-0.20694,1.3925,-1.9809,8.8064,-0.035125,0.026267,-0.010385
-0.228,1.3925,-2.0594,8.9437,-0.090713,0.039706,-0.007025
-0.23639,1.5298,-1.8829,9.0417,-0.14172,0.033903,-0.007025
-0.24377,1.5298,-1.824,8.9437,-0.14875,0.016799,-0.011301
-0.24893,1.2945,-1.5887,9.1006,-0.11087,-0.0030543,-0.011606
-0.25696,1.3925,-1.6475,8.9437,-0.0048869,0.01741,-0.0012217
-0.25272,1.3337,-1.8437,9.1594,-0.02138,0.013134,-0.0009163
-0.24356,1.3925,-1.5691,9.179,-0.024129,0.011606,-0.0054978
-0.23883,1.4318,-1.6867,9.1202,-0.012523,0.010996,-0.0042761
-0.23618,1.4318,-1.824,9.0221,0.0048869,0.014661,-0.0064141
-0.24567,1.3533,-1.824,9.0417,0.016493,0.022907,-0.0082467
-0.24649,1.3337,-1.7456,9.0417,0.015882,0.027794,-0.0082467
-0.24945,1.3533,-1.726,9.1202,0.002138,0.0281,-0.0042761
-0.25021,1.1376,-1.6867,9.1202,-0.020464,-0.01069,-0.0051924
-0.25543,1.2945,-1.5691,9.1202,0.03207,0.014355,-0.0058032
-0.26056,1.1768,-1.471,9.179,0.07758,0.038485,-0.014661
-0.25223,1.3729,-1.824,9.0025,0.087965,0.048258,-0.011301
-0.24295,1.4318,-1.9025,8.7279,0.063225,0.044899,-0.0082467
-0.22369,1.4318,-1.6475,8.9437,0.022907,0.033292,-0.0064141
-0.21457,1.3925,-1.5887,9.0417,-0.016188,0.018631,-0.0085521
-0.2048,1.4318,-1.5298,9.0613,-0.048258,0.0042761,-0.0067195
-0.19437,1.3533,-1.6671,8.9437,-0.072693,-0.0061087,0.00061087
-0.17514,1.4318,-1.824,8.9437,-0.082772,-0.016799,-0.0054978
-0.15793,1.3533,-1.8044,8.9437,-0.072998,-0.016188,-0.0051924
-0.1488,1.2356,-1.6475,9.1202,-0.043982,-0.0039706,-0.0073304
-0.12988,1.4318,-1.5887,9.1202,-0.0042761,0.011606,-0.009163
-0.1312,1.3729,-1.6475,9.0221,0.031765,0.026267,-0.0045815
-0.14197,1.3533,-1.6475,8.8652,0.04612,0.034514,-0.0015272
-0.13977,1.1964,-1.5102,9.0417,0.037568,0.030849,0.00030543
-0.14297,1.3729,-1.5298,9.1594,0.013134,0.019242,-0.00030543
-0.1525,1.2945,-1.6475,9.1202,0.02474,0.011606,-0.0058032
-0.14566,1.3729,-1.5887,9.1006,0.047037,0.012828,-0.013744
-0.15372,1.5102,-1.6671,9.0417,0.067195,0.022297,-0.019242
-0.16138,1.3925,-1.6475,9.0613,0.072082,0.03146,-0.018021
-0.15219,1.4318,-1.4906,9.1006,0.057116,0.030543,-0.0097738
-0.14877,1.1768,-1.471,9.179,0.035125,0.023824,-0.0018326
-0.15317,1.4318,-1.6475,9.0417,0.01405,0.018937,0.0009163
-0.15054,1.3533,-1.6671,9.0613,0.0015272,0.0045815,-0.0030543
-0.12869,1.3533,-1.824,8.8848,-0.037263,0.0082467,-0.0009163
-0.11017,1.4318,-1.6867,9.0417,-0.039706,0.012523,0.0042761
-0.089233,1.2945,-1.5691,9.0417,-0.033292,0.012828,0.0061087
-0.087128,1.3729,-1.5691,9.179,-0.024129,0.01405,0.0058032
-0.090576,1.4318,-1.6279,9.1594,-0.016188,0.013744,-0.0015272
-0.090912,1.4906,-1.6475,9.0417,-0.0079412,0.01741,-0.0064141
-0.10269,1.3729,-1.6475,9.0417,-0.00061087,0.019242,-0.0061087
-0.094513,1.5102,-1.8044,9.0417,-0.014355,0.0082467,0.01405
-0.098999,1.3337,-1.6279,8.9437,-0.041844,-0.0094684,0.0051924
-0.10791,1.4318,-1.4906,9.1006,-0.066584,-0.025656,0.0036652
-0.12149,1.2356,-1.5298,9.0417,-0.076358,-0.034208,0.00061087
-0.12677,1.3533,-1.7848,8.9044,-0.07422,-0.033292,0.0015272
-0.12396,1.5298,-1.6867,9.0613,-0.057116,-0.019853,0.0033598
-0.13654,1.5298,-1.5298,9.1202,-0.034514,-0.0058032,0.0036652
-0.13879,1.4318,-1.824,9.2771,-0.030543,-0.0018326,0.010385
-0.14249,1.4318,-1.6867,9.179,-0.0094684,0.0012217,-0.0061087
-0.15387,1.3337,-1.5691,9.0417,-0.0027489,0.0082467,-0.0079412
-0.15826,1.3533,-1.7456,8.9633,-0.0024435,0.013744,0.00030543
-0.1799,1.2945,-1.6475,9.0613,-0.0036652,0.021075,0.0061087
-0.19711,1.5298,-1.6475,8.9437,-0.011301,0.031765,0.0012217
-0.19595,1.5298,-1.6475,8.9044,-0.027794,0.038485,-0.0085521
-0.21188,1.3729,-1.6475,8.9437,-0.023213,0.037568,-0.0058032
-0.21286,1.3729,-1.6475,9.0221,-0.016799,0.027184,-0.0039706
-0.21518,1.6083,-1.6475,9.0417,-0.025656,0.015577,0.0088575
-0.21799,1.2945,-1.6475,9.1202,-0.011301,0.010385,0.0064141
-0.21872,1.3533,-1.7848,9.1202,-0.0051924,0.010385,-0.011606
-0.21313,1.4318,-1.7456,9.1202,-0.0058032,0.014355,-0.0088575
-0.22192,1.4318,-1.6279,9.0417,-0.0097738,0.011301,0.0009163
-0.20389,1.4318,-1.7456,9.0417,-0.02138,0.0088575,0.0073304
-0.20206,1.1376,-1.6279,9.1202,-0.039401,0.0079412,0.0061087
-0.19321,1.4906,-1.6475,9.1202,-0.039095,0.0048869,0.0054978
-0.19263,1.4906,-1.5691,9.0613,0.0015272,0.025351,-0.010385
-0.16858,1.1964,-1.8044,9.2183,0.007025,0.030849,-0.013439
-0.14435,1.5102,-1.824,9.0417,0.0009163,0.025962,-0.0054978
-0.1431,1.3533,-1.6867,9.0417,-0.010385,0.019548,-0.0018326
-0.13513,1.3925,-1.6671,9.0025,-0.027489,0.015272,-0.0030543
-0.13116,1.4318,-1.5691,9.0221,-0.041844,0.010079,-0.0064141
-0.13708,1.4514,-1.6475,9.1202,-0.04612,0.002138,-0.0064141
-0.12234,1.5298,-1.7848,9.0417,-0.032681,0.0009163,-0.0073304
-0.1283,1.1768,-1.6867,9.1202,0.01069,0.0079412,-0.016188
-0.12387,1.4318,-1.6475,9.1594,0.02138,0.014661,-0.020159
-0.12207,1.3533,-1.5102,9.0417,0.017715,0.022297,-0.011912
-0.12408,1.3729,-1.6475,9.0417,-0.0054978,0.021075,-0.007025
-0.1308,1.4318,-1.6867,9.0417,-0.034514,0.01069,-0.0036652
-0.12772,1.5298,-1.7456,9.0613,-0.055894,0,-0.0054978
-0.1329,1.2553,-1.6279,9.1202,-0.062919,-0.0073304,-0.0097738
-0.13327,1.4318,-1.6671,9.0417,-0.051924,-0.0088575,-0.011301
-0.14868,1.3533,-1.6475,9.0417,-0.0281,-0.0027489,-0.0027489
-0.14697,1.3337,-1.8044,8.9437,0.0009163,0.014355,-0.0009163
-0.14453,1.4514,-1.824,9.0613,0.013744,0.026878,-0.015272
-0.15146,1.5495,-1.5691,9.1202,-0.0024435,0.030543,-0.0054978
-0.16422,1.2356,-1.4906,9.1594,-0.027489,0.019242,-0.0033598
-0.16495,1.2356,-1.5298,9.1202,-0.043371,0.0033598,-0.0039706
-0.1637,1.5887,-1.6867,9.0417,-0.040623,-0.0039706,-0.009163
-0.16785,1.4906,-1.6475,9.0221,-0.025962,0.0012217,-0.011606
-0.17117,1.2945,-1.5691,9.1202,-0.01405,0.011606,0.0048869
-0.17065,1.3729,-1.6475,9.179,-0.014661,0.01741,0.0054978
-0.1731,1.2945,-1.6475,8.8848,-0.025656,0.016799,-0.0058032
-0.18539,1.3533,-1.6475,9.0417,-0.034514,0.012523,-0.0085521
-0.19342,1.4906,-1.824,9.1986,-0.035125,0.0030543,-0.0067195
-0.19852,1.3729,-1.6671,9.0613,-0.032376,-0.0012217,-0.00030543
-0.20541,1.5298,-1.6475,9.1006,-0.0281,0.0015272,0.0039706
-0.20673,1.5887,-1.6867,9.0221,-0.023824,0.0033598,0.0039706
-0.21951,1.2945,-1.6671,9.0417,0.0076358,0.009163,-0.0073304
-0.21048,1.5298,-1.824,9.0221,0.017715,0.019853,-0.010996
-0.19733,1.3729,-1.6475,8.9633,0.011606,0.03207,-0.0097738
-0.19171,1.5298,-1.6279,9.1202,-0.0024435,0.038485,-0.0097738
-0.18723,1.5298,-1.5102,9.0613,-0.019242,0.038485,-0.0079412
-0.17349,1.3533,-1.6475,8.9437,-0.03207,0.032987,-0.0027489
-0.16367,1.5298,-1.6475,9.0417,-0.046426,0.027184,-0.0027489
-0.14581,1.4318,-1.824,9.0417,-0.019242,0.019853,-0.0054978
-0.15015,1.3533,-1.7456,9.0613,-0.023824,0.019548,-0.0009163
-0.13504,1.4318,-1.8044,9.1006,-0.024129,0.021991,-0.0030543
-0.12067,1.3533,-1.6475,9.0025,-0.019853,0.024435,-0.0094684
-0.11218,1.2356,-1.7456,8.9044,-0.014661,0.024129,-0.007025
-0.10336,1.4318,-1.6671,9.0417,-0.018326,0.021686,-0.0054978
-0.098602,1.3729,-1.5691,9.0417,-0.027794,0.021991,-0.0036652
-0.10687,1.3925,-1.6475,9.0417,-0.034208,0.020769,-0.0048869
-0.097778,1.5102,-1.6475,9.1202,-0.028711,0.018326,-0.0045815
-0.09137,1.5102,-1.7848,9.0221,-0.021991,0.014966,-0.01405
-0.093781,1.6475,-1.7456,8.9437,-0.010385,0.016799,-0.013134
-0.081299,1.5298,-1.726,9.0025,-0.00030543,0.018326,-0.0061087
-0.086853,1.3533,-1.6475,9.0417,0.007025,0.019548,-0.0042761
-0.082825,1.4906,-1.6475,9.0613,0.015577,0.021686,-0.0045815
-0.084106,1.3925,-1.6671,9.0221,0.018937,0.023518,-0.0045815
-0.082428,1.3533,-1.6867,8.9044,-0.035736,0.027184,-0.0054978
-0.083527,1.2945,-1.6867,8.9437,-0.033903,0.032987,-0.010385
-0.092438,1.3533,-1.6671,9.0417,-0.011912,0.019242,-0.0027489
-0.099945,1.3533,-1.6671,9.0221,0,0.026878,-0.0076358
-0.11063,1.4514,-1.6867,9.1006,0.0024435,0.027489,-0.0097738
-0.11752,1.5102,-1.7848,9.0417,-0.0073304,0.025045,-0.0039706
-0.11996,1.5298,-1.6671,9.0417,-0.022297,0.023518,0.0015272
-0.12598,1.5495,-1.7456,9.0613,-0.044899,0.01741,0.007025
-0.13712,1.3533,-1.6475,9.1202,-0.065363,0.0085521,0.0067195
-0.14679,1.4906,-1.824,9.0221,-0.066584,0.0042761,0.0018326
-0.15186,1.3533,-1.6867,9.0417,0.00030543,0.029016,0.0015272
-0.14612,1.3729,-1.9417,9.179,-0.018631,0.022602,-0.00030543
-0.13141,1.1964,-1.5691,9.1202,-0.035736,0.018326,-0.0054978
-0.13516,1.0591,-1.6475,9.2183,-0.045204,0.014661,-0.0015272
-0.14545,1.3533,-1.6867,9.2183,-0.041539,0.01069,-0.0045815
-0.15125,1.216,-1.6867,9.179,-0.036957,0.011301,-0.0061087
-0.15567,1.3533,-1.7456,8.8652,-0.030238,0.012828,-0.00061087
-0.1561,1.3533,-1.6671,8.7475,-0.013134,0.0097738,0.0024435
-0.17545,1.5298,-1.5298,9.0025,0.011606,0.013744,-0.018326
-0.19388,1.3729,-1.5102,8.9437,0.034208,0.027794,-0.025045
-0.19629,1.4906,-1.7848,8.9437,0.029016,0.033903,-0.0024435
-0.20633,1.3925,-1.824,8.9437,-0.002138,0.027489,0.0030543
-0.21222,1.5298,-1.7456,9.0025,-0.033292,0.0097738,0.010385
-0.2171,1.3533,-1.7456,8.9633,-0.040317,-0.0051924,0.0076358
-0.22015,1.4318,-1.726,9.0417,-0.02138,-0.0082467,-0.0064141
-0.2338,1.3925,-1.5691,9.0417,0.0094684,0.002138,-0.013439
-0.23254,1.3533,-1.6671,9.1594,-0.049175,0.021075,-0.0042761
-0.2363,1.3337,-1.6671,9.0417,-0.042455,0.026573,0.0015272
-0.24026,1.2945,-1.7848,8.9437,-0.029932,0.030543,-0.009163
-0.23355,1.3729,-1.6867,9.1006,-0.017715,0.032987,-0.0048869
-0.22528,1.5298,-1.6279,9.0417,-0.0085521,0.03543,-0.007025
-0.21628,1.4514,-1.6475,9.0025,-0.0009163,0.037568,-0.01069
-0.19946,1.5102,-1.7456,9.1006,0.0027489,0.037568,-0.0082467
-0.18527,1.5102,-1.6671,9.0417,0,0.037263,-0.0054978
-0.1777,1.3337,-1.8044,8.9633,-0.0079412,0.036041,-0.0054978
-0.16315,1.4906,-1.6475,8.9437,-0.024435,0.033598,-0.009163
-0.15915,1.1964,-1.5298,9.1594,-0.036957,0.027184,0.0027489
-0.14346,1.3337,-1.7456,8.9437,-0.039401,0.021075,0.0012217
-0.13412,1.3729,-1.824,9.0221,-0.029322,0.020769,0
-0.12372,1.5298,-1.6279,9.0417,-0.010385,0.026267,-0.0030543
-0.12067,1.4906,-1.5298,9.1202,0.0042761,0.031154,-0.0051924
-0.10864,1.1964,-1.5102,9.1202,0.01069,0.03207,-0.0039706
-0.096252,1.3533,-1.5691,9.0221,-0.074526,-0.057116,-0.019242
-0.083618,1.3533,-1.7456,8.8652,-0.039095,-0.042761,-0.029016
-0.055481,1.2945,-1.6475,8.9633,-0.015577,-0.026878,0.041539
-0.038635,1.2945,-1.5691,9.0417,-0.0033598,-0.014661,0.035125
-0.028931,1.2749,-1.7456,9.1594,0,-0.0009163,0.02474
-0.026825,1.3533,-1.7456,9.0613,0.00061087,0.01741,0.013744
-0.018585,1.2945,-1.6475,9.1202,-0.15241,0.039706,0.0067195
-0.016022,1.4906,-1.6671,9.0613,-0.12034,0.058032,-0.0030543
-0.0071106,1.2945,-1.6475,8.9044,-0.025656,0.054367,0.015882
-0.015289,1.5102,-1.6475,9.1202,-0.023824,0.03879,0.018326
-0.0014343,1.1964,-1.5887,9.0613,-0.045815,0.014355,-0.037568
-0.0030212,1.2749,-1.6867,9.0613,-0.06353,-0.0042761,-0.037874
-0.0005188,1.2945,-1.6867,9.0221,-0.059559,0.0012217,-0.029932
0.0071716,1.4318,-1.6671,9.0417,-0.027184,0.012217,-0.019853
0.0010986,1.5495,-1.7456,8.8848,-0.00061087,0.022297,-0.007025
0.0056152,1.5495,-1.824,8.9437,0,0.019242,0.0058032
0.024017,1.5298,-1.6475,9.0417,-0.018631,0.0033598,-0.043371
0.014191,1.4906,-1.5102,9.179,-0.0045815,0.013134,-0.040623
0.013214,1.3337,-1.4318,9.179,0.029932,0.024129,-0.025045
0.011688,1.3729,-1.3533,9.0613,0.068417,0.040928,-0.034208
0.0084839,1.2945,-1.2553,9.0025,0.089186,0.051924,-0.041233
0.012695,1.0787,-1.2553,9.2575,0.082772,0.051618,-0.040012
0.00030518,1.1964,-1.3533,9.2771,0.050396,0.040623,-0.034514
-0.0080261,1.0787,-1.7456,9.179,0.012217,0.025045,-0.039095
-0.028229,1.2945,-2.1575,9.1594,-0.041233,0.011606,0.051618
-0.042511,1.5495,-1.9809,9.0221,-0.043066,-0.0018326,0.045815
-0.072052,1.7064,-1.824,8.5514,-0.048258,-0.0076358,-0.035736
-0.0914,1.5887,-1.7456,9.0417,-0.074526,-0.0064141,-0.026573
-0.098236,1.5495,-1.5691,9.2575,-0.11851,-0.0024435,-0.011606
-0.11191,1.6083,-1.6475,9.0417,-0.15241,-0.0079412,0.010996
-0.12344,1.6671,-1.4318,8.8848,-0.015882,-0.028711,0.035125
-0.11926,1.3533,-1.4122,8.9633,-0.033598,-0.049786,0.050396
-0.11432,1.1768,-1.5102,9.0613,-0.10599,-0.0085521,0.0067195
-0.094604,1.2749,-1.8829,9.1986,-0.12278,-0.0012217,0.0012217
-0.063049,1.3533,-1.7456,9.1006,-0.14111,-0.0033598,0.011912
-0.04657,1.4906,-1.7848,9.1006,-0.15485,-0.016799,0.016799
-0.044128,1.4906,-1.824,9.1202,-0.1518,-0.031765,0.023213
-0.025848,1.3925,-1.7456,9.1202,-0.12431,-0.039095,0.023824
-0.015045,1.3533,-1.824,8.8652,-0.080023,-0.034208,0.014355
-0.012207,1.3729,-1.7456,8.9044,-0.041539,-0.01741,0.0088575
-0.002533,1.5298,-1.6867,9.1594,0.033598,0.020159,-0.013439
-0.0017395,1.4318,-1.6475,9.1594,0.065668,0.027184,0
-0.0050659,1.4318,-1.6279,9.1202,0.10721,0.041233,-0.029627
-0.0057373,1.4318,-1.6279,8.9044,0.13378,0.054978,-0.02138
-0.0018005,1.3925,-1.6279,9.0417,0.13744,0.0562,-0.018937
0.0030518,1.4318,-1.6867,9.0025,0.12584,0.045815,-0.016799
0.015381,1.4318,-1.7064,9.0025,0.10354,0.036957,-0.012523
0.027832,1.3729,-1.4906,9.179,0.081551,0.032681,-0.013744
0.026215,1.4906,-1.471,9.1986,0.03879,0.032987,-0.019853
0.038757,1.3533,-1.3729,8.9437,-0.0045815,0.029932,-0.01741
0.037964,1.3337,-1.471,9.0613,-0.039706,0.014661,0.0076358
0.028687,1.3729,-1.7456,9.0025,-0.05681,0.0064141,0.002138
0.021576,1.3925,-1.6475,9.179,-0.062919,0.01069,-0.0082467
0.013641,1.1768,-1.5298,9.1202,-0.063225,0.011606,-0.012217
-0.006958,1.2945,-1.4906,8.9437,-0.054672,0.010385,-0.010996
-0.020752,1.1964,-1.4318,9.0417,-0.039095,0.017104,-0.014355
-0.056763,1.2356,-1.5102,9.179,-0.032376,0.022297,-0.010996
-0.092072,1.5102,-1.5691,9.0417,-0.039401,0.01741,0.0033598
-0.11514,1.3729,-1.5102,9.0417,-0.053451,0.014661,-0.016493
-0.15674,1.3729,-1.4906,9.179,-0.068111,0.0061087,-0.018937
-0.18018,1.3533,-1.726,9.1986,-0.079412,-0.0048869,-0.021075
-0.20325,1.3337,-1.7456,9.0417,-0.083689,-0.016188,-0.021075
-0.22592,1.6083,-1.824,9.0221,-0.085827,-0.018021,-0.01741
-0.24283,1.5298,-1.6671,9.0221,-0.093157,-0.013439,-0.017104
-0.2543,1.4318,-1.5102,9.0417,-0.028405,0.007025,0.019548
-0.25192,1.5102,-1.5691,9.0613,-0.062003,-0.014355,0.023518
-0.23941,1.3533,-1.6671,8.8848,-0.10263,-0.032376,-0.0012217
-0.22913,1.2945,-1.6475,9.0417,-0.12645,-0.041539,0.0012217
-0.23831,1.4318,-1.6867,9.1594,-0.12798,-0.04612,0.011912
-0.23697,1.5298,-1.6279,9.0417,-0.1182,-0.041844,0.013134
-0.23575,1.3729,-1.5691,9.0417,-0.10354,-0.030849,0.012217
-0.23355,1.2945,-1.8044,9.1202,-0.093462,-0.017715,0.015272
-0.22791,1.118,-1.7456,9.1594,-0.10201,-0.013439,0.0054978
-0.23224,1.2945,-1.6671,8.8848,-0.11942,-0.022297,0.0036652
-0.2182,1.5102,-1.6475,9.1202,-0.12737,-0.029016,0.023518
-0.2056,1.4514,-1.6279,9.1202,-0.10293,-0.022907,0.015882
-0.18671,1.2945,-1.5691,9.1594,-0.050702,0,0.0012217
-0.15558,1.5102,-1.5691,9.1006,0.00061087,0.027489,-0.0067195
-0.12589,1.3925,-1.6671,8.9437,0.021686,0.044288,-0.0009163
-0.097076,1.4906,-1.7456,8.9044,0.0064141,0.041844,0.0045815
-0.068054,1.5298,-1.6475,9.0417,-0.0562,0.027794,-0.0009163
-0.041443,1.5102,-1.8437,9.0025,-0.043677,0.011606,0.0027489
-0.013519,1.7456,-2.2751,8.7475,-0.019242,0,0.0015272
0.012573,1.5495,-1.8437,8.8848,0.0076358,0.00030543,-0.0039706
0.035156,1.3925,-1.5691,9.0025,0.02138,0.0082467,-0.01069
0.057495,1.4318,-1.6867,9.0417,0.018937,0.01741,-0.010385
0.081909,1.2356,-1.8437,9.1202,-0.025351,0.026267,-0.0067195
0.087463,1.4514,-1.9417,9.0417,-0.048869,0.032376,-0.0045815
0.099945,1.4514,-1.7848,8.9437,-0.038485,0.029016,-0.02138
0.11575,1.3533,-1.5691,9.0417,-0.034819,0.020464,-0.014355
0.12238,1.4318,-1.6475,9.0417,-0.015882,0.016799,-0.0024435
0.13239,1.4318,-1.9613,9.0417,0.018021,0.016493,-0.0085521
0.13254,1.4318,-1.9809,9.0417,0.062614,0.017104,-0.0094684
0.14639,1.4318,-1.8044,8.9437,0.11057,0.021075,-0.012523
0.14786,1.4318,-1.6279,9.0417,-0.00030543,0.030849,-0.018631
0.14374,1.1768,-1.5691,9.179,-0.023518,0.048258,-0.021991
0.14102,1.3533,-1.824,8.9044,-0.046426,0.012217,-0.0076358
0.14816,1.3533,-1.8829,9.1202,-0.041539,0.018326,-0.0054978
0.15491,1.1964,-1.6671,9.1594,-0.029627,0.027184,-0.0094684
0.14026,1.3533,-1.5887,9.0417,-0.030238,0.03146,-0.0033598
0.12051,1.1964,-1.5887,9.1202,-0.038179,0.026573,0
0.095428,1.5102,-1.824,9.0221,-0.034819,0.021991,0
0.057129,1.3337,-1.6867,9.0025,-0.021991,0.024435,-0.0030543
0.041229,1.2945,-1.5691,8.8652,-0.0082467,0.028405,-0.0058032
0.01413,1.2356,-1.5102,9.1202,0.009163,0.032681,-0.014966
-0.0021667,1.4318,-1.471,9.1594,0.013134,0.038179,-0.013134
-0.025513,1.4318,-1.5102,9.0613,0.0076358,0.036041,-0.0061087
-0.027954,1.2945,-1.6475,9.0417,-0.0018326,0.031154,-0.0039706
-0.040924,1.3729,-1.6671,8.9437,-0.009163,0.025351,-0.0039706
-0.045532,1.1376,-1.5102,9.0025,-0.012828,0.023518,-0.0088575
-0.055603,1.4318,-1.5102,9.179,-0.0094684,0.024129,-0.013439
-0.067596,1.4318,-1.7456,9.0417,-0.007025,0.023824,-0.015272
-0.073212,1.3533,-1.6867,9.0417,-0.010996,0.023824,0
-0.06778,1.3533,-1.7456,9.0417,-0.017715,0.020464,-0.0012217
-0.080139,1.5298,-1.6475,9.0613,-0.032376,0.016799,-0.0088575
-0.077118,1.4318,-1.7456,9.0613,-0.048564,0.015577,-0.0061087
-0.081055,1.4318,-1.5298,9.0417,-0.057727,0.012828,-0.0048869
-0.080719,1.3337,-1.5102,9.0417,-0.057421,0.009163,0.0015272
-0.080017,1.2945,-1.5298,9.0417,-0.045204,0.0064141,0.0058032
-0.068115,1.2945,-1.6475,9.1594,-0.025045,0.0064141,0.0039706
-0.047302,1.216,-1.6475,9.1594,-0.019548,0.015882,0.0030543
-0.028015,1.4318,-1.5102,9.0613,0,0.026267,0.0051924
-0.0065918,1.4318,-1.6279,9.0613,0.0085521,0.030543,0.0027489
0.0088501,1.2749,-1.7848,9.1202,0.0033598,0.03146,0.0009163
0.06665,1.4906,-1.8829,9.0417,-0.011301,0.029627,0.0009163
0.06601,1.3533,-1.5298,9.0417,-0.029932,0.018937,0.0051924
0.085693,1.2945,-1.6279,9.1986,-0.040928,0.0079412,0.0027489
0.10443,1.4514,-1.5102,9.179,-0.039706,0.0054978,0
0.11041,1.1964,-1.5691,9.0417,0.023518,0.030543,-0.022297
0.13547,1.4318,-1.726,9.0025,0.035125,0.025045,-0.033598
0.18198,1.4318,-1.824,9.1202,0.040012,0.025656,-0.007025
0.20334,1.6083,-1.9025,8.9437,0.032987,0.029627,-0.011301
0.21445,1.4318,-1.5298,9.0613,0.023824,0.03146,-0.0061087
0.23154,1.2356,-1.3729,9.179,0.013744,0.026267,-0.0024435
0.23547,1.1964,-1.4906,9.0613,-0.0018326,0.021991,-0.0061087
0.25165,1.3533,-1.5691,9.1006,0.011606,0.014355,-0.013744
0.26099,1.3533,-1.6475,9.1006,0.146,0.01069,-0.031154
0.25912,1.2945,-1.4318,9.1202,0.18998,0.027794,-0.038179
0.27048,1.3925,-1.6475,9.0417,0.21228,0.054367,-0.036652
0.27203,1.1964,-1.726,8.9437,0.20922,0.074526,-0.031154
0.27936,1.1964,-1.6671,9.1202,0.18234,0.083994,-0.035125
0.27921,1.4906,-1.7456,9.0417,0.14355,0.082161,-0.040012
0.28076,1.2945,-1.6475,9.0613,0.029016,0.07422,-0.034208
0.27792,1.4318,-1.7456,8.8652,0.084605,0.061697,-0.029322
0.27188,1.5495,-1.7456,9.0025,0.11759,0.050091,-0.013439
0.27194,1.3925,-1.7848,8.9044,0.13225,0.043677,-0.0097738
0.25418,1.2945,-1.7848,9.179,0.14294,0.040012,-0.046731
0.24731,1.4906,-1.8044,9.0417,0.135,0.041844,-0.046426
0.23856,1.2356,-1.471,9.1006,0.11209,0.043982,-0.043982
0.22034,1.3533,-1.5691,9.1202,0.071166,0.041539,-0.03543
0.20044,1.3533,-1.8437,9.2183,0.12217,0.040012,-0.025962
0.18362,1.2945,-2.0006,8.8652,0.1182,0.033903,-0.020464
0.18253,1.2749,-1.6671,9.0025,-0.022602,0.015272,0.0036652
0.17453,1.2356,-1.3337,9.0613,-0.034514,0.007025,-0.00061087
0.16211,1.0787,-1.3141,8.9437,-0.036346,0.0009163,0.0085521
0.16394,1.2945,-1.4318,9.1202,-0.032987,0.00061087,0.0036652
0.13278,1.2945,-1.3533,9.0613,-0.031765,0.0042761,0.0073304
0.12125,1.1964,-1.2553,9.3359,-0.028711,0.012828,0.010079
0.10995,1.3533,-1.3141,9.0025,-0.014355,0.028405,0.0045815
0.091125,1.3533,-1.1964,9.1006,-0.0045815,0.036346,0.0030543
0.087097,1.2356,-1.1768,9.0417,-0.01405,-0.014355,-0.0085521
0.095428,1.2945,-1.6279,9.2183,0.020769,0.0082467,-0.0018326
0.12622,1.1376,-1.5691,8.8456,0.026573,0.025962,-0.0048869
0.15097,0.86299,-1.4318,9.0417,0.014355,0.026878,-0.0048869
0.16861,0.98067,-1.3533,9.2771,-0.00030543,0.023213,-0.0097738
0.17926,1.3729,-1.216,9.2575,-0.011606,0.019242,-0.011301
0.19971,1.3533,-1.3533,9.2183,-0.017104,0.016188,-0.013134
0.20123,1.3533,-1.4318,9.2575,-0.026573,0.014966,-0.013439
0.21997,1.2749,-1.4122,9.1202,-0.041844,0.0097738,-0.0051924
0.22681,1.2945,-1.5298,9.0417,-0.051924,0.0030543,-0.0061087
0.23755,1.4318,-1.5887,9.0417,-0.05681,0.00030543,0.0015272
0.23608,1.4318,-1.4906,9.179,-0.054978,-0.0039706,0.002138
0.23355,1.3533,-1.3141,9.0417,-0.041844,-0.007025,-0.0036652
0.24091,1.1964,-1.471,9.179,-0.02474,0.0012217,-0.0073304
0.24344,1.216,-1.5691,9.0221,-0.017715,0.010385,-0.0067195
0.24222,1.3729,-1.6475,9.0417,-0.023213,0.015577,-0.0039706
0.24481,1.3729,-1.5691,9.0417,-0.034208,0.026267,-0.015882
0.22928,1.4318,-1.5691,9.179,-0.062919,0.02138,-0.020769
0.22107,1.2945,-1.3141,9.2183,-0.084605,0.0082467,0.021075
0.21393,1.3729,-1.1964,9.179,-0.091935,-0.0039706,0.018326
0.21375,1.4906,-1.3533,9.179,-0.078191,-0.0067195,0.0054978
0.20798,1.216,-1.6475,9.0417,-0.041539,-0.0018326,-0.0012217
0.20923,1.2945,-1.5298,9.0417,0.0058032,0.012828,-0.0039706
0.1911,1.3729,-1.5887,9.1202,0.03879,0.02474,-0.010079
0.17621,1.2945,-1.4122,9.0613,0.061392,0.027184,-0.011301
0.16769,1.3337,-1.471,9.179,0.054062,0.025656,-0.013744
0.15442,1.3729,-1.4318,9.1202,0.029016,0.020159,-0.019548
0.14725,1.3337,-1.4906,9.1006,0,0.0088575,-0.013744
0.12674,1.2356,-1.5691,8.9044,-0.022602,-0.0033598,-0.011301
0.11127,1.3533,-1.471,9.1594,-0.04612,-0.011301,-0.010996
0.085968,1.2945,-1.4318,9.1202,-0.069333,-0.020769,-0.0012217
0.074188,1.2945,-1.3729,9.0613,-0.057727,-0.026267,0.0024435
0.061676,1.3533,-1.5102,9.1202,-0.041233,0.0048869,0
0.060852,1.3533,-1.6671,9.2183,-0.02138,-0.0015272,0.0030543
0.077332,1.5102,-1.5691,9.1202,-0.0061087,-0.0009163,-0.0042761
0.074127,1.3533,-1.4318,9.0417,-0.0030543,0.0067195,-0.0048869
0.048645,1.1964,-1.3729,9.0417,-0.010079,0.015272,-0.0036652
0.046051,1.3337,-1.471,9.1594,-0.02474,0.02138,-0.0051924
0.04306,1.3729,-1.5691,9.0417,-0.045815,0.023518,-0.0039706
0.069977,1.3533,-1.6475,9.0417,-0.051618,0.019853,-0.0024435
0.047699,1.2945,-1.5691,9.1202,-0.029016,0.0094684,0.0073304
0.050934,1.3533,-1.3729,9.179,-0.027794,0.011912,0.0088575
0.077515,1.1964,-1.4122,9.179,-0.034819,0.0067195,0.0073304
0.094421,1.2356,-1.5102,9.0417,-0.041539,0.0018326,0.0073304
0.11618,1.2945,-1.5298,9.179,-0.043371,0.0012217,0.0064141
0.13004,1.4318,-1.7456,9.1202,-0.036957,0.0027489,0.0064141
0.13779,1.3533,-1.5102,9.0417,-0.030238,0.007025,0.0064141
0.15042,1.3533,-1.5102,9.0417,-0.031154,0.0073304,0.0073304
0.17184,1.4318,-1.4318,9.0613,-0.050396,0.0067195,0.0027489
0.17194,1.1964,-1.5102,9.179,-0.04612,0.0042761,-0.0012217
0.17584,1.3925,-1.6279,9.179,-0.04215,0.0027489,0.0094684
0.17303,1.4514,-1.5298,9.1202,-0.040928,0.0039706,0.0088575
0.18216,1.5298,-1.5298,9.0613,-0.039706,0.0061087,0.0061087
0.19641,1.2945,-1.5298,9.0417,-0.035736,0.0048869,0.0054978
0.19299,1.3729,-1.6279,8.9044,-0.039706,0.0012217,0.0064141
0.19931,1.2749,-1.471,9.0613,-0.048869,0.0015272,0.0064141
0.20157,1.2356,-1.5298,9.0417,-0.018326,0.0064141,-0.0015272
0.20215,1.4906,-1.5691,9.1202,-0.02138,0.011606,-0.0009163
0.21155,1.1964,-1.5691,9.1006,-0.022297,0.015272,0.0018326
0.20453,1.3533,-1.5691,9.0417,-0.025351,0.018326,-0.002138
0.19839,1.3533,-1.5102,9.179,-0.029322,0.021686,-0.0094684
0.19769,1.1964,-1.5298,9.0417,-0.036041,0.020464,-0.01069
0.19489,1.3533,-1.6279,9.0417,-0.027794,0.018937,-0.0079412
0.18741,1.5102,-1.5691,9.1202,-0.018326,0.014661,-0.0048869
0.1759,1.5102,-1.5298,9.1202,0.0088575,-0.016188,-0.016188
0.17981,1.0787,-1.8437,9.2575,-0.080023,-0.017715,-0.016188
0.19241,1.4906,-1.5102,9.0613,-0.070555,-0.009163,-0.00061087
0.1969,1.2356,-1.5298,9.1202,-0.046731,0.0042761,-0.0039706
0.19955,1.4906,-1.5691,9.1202,-0.016493,0.020464,-0.011912
0.19897,1.3729,-1.6279,9.179,0.0073304,0.028405,-0.016493
0.19412,1.118,-1.5691,9.2575,0.017715,0.029322,-0.014661
0.17548,1.5298,-1.5691,9.1006,0.015577,0.028711,-0.014661
0.18082,1.4906,-1.5887,8.9437,-0.00061087,0.029932,-0.0027489
0.1799,1.1768,-1.6475,9.0417,0.0067195,0.03543,-0.0058032
0.16794,1.3337,-1.6279,8.9044,0.0018326,0.034819,-0.0045815
0.14944,1.4318,-1.5298,9.0613,-0.013134,0.030238,-0.0015272
0.13507,1.2945,-1.726,9.179,-0.035736,0.022297,0.002138
0.13062,1.5298,-1.6475,8.9437,-0.054978,0.012828,0.0012217
0.11618,1.3533,-1.6475,8.9633,-0.061087,0.0085521,0.00061087
0.11469,1.216,-1.5691,9.1202,-0.054978,0.009163,0.0009163
0.11044,1.2356,-1.5691,9.179,-0.025045,0.013134,-0.0079412
0.087311,1.4318,-1.7456,9.0613,-0.01069,0.016799,0.0015272
0.086761,1.4318,-1.6475,9.0613,-0.013134,0.019548,-0.0024435
0.081024,1.3925,-1.6867,9.0417,-0.027794,0.018326,-0.00061087
0.090118,1.5298,-1.5691,9.1202,-0.042761,0.010996,0.00030543
0.089752,1.2945,-1.6279,9.1986,-0.050702,0.00030543,0.00030543
0.090759,1.3729,-1.8044,9.1594,-0.03879,-0.0058032,-0.0018326
0.099091,1.4318,-1.5691,9.0221,-0.018631,0.0012217,-0.0067195
0.10135,1.3533,-1.5102,9.0025,-0.0058032,0.009163,0.00061087
0.11285,1.2945,-1.6279,9.0221,-0.0061087,0.013439,-0.0012217
0.11169,1.216,-1.6475,9.0221,-0.009163,0.011301,0.0064141
0.1142,1.3729,-1.5298,9.1202,-0.01741,0.011301,0.0054978
0.11288,1.4318,-1.7456,8.9437,-0.033903,0.011606,0.0042761
0.11267,1.5298,-1.8437,8.9437,-0.05284,0.0085521,0.0048869
0.12161,1.5298,-1.824,9.0417,-0.069639,-0.0012217,0.0051924
0.11902,1.5495,-1.5887,9.0221,-0.079412,-0.011301,0.0045815
0.12503,1.3533,-1.471,9.0417,-0.072082,-0.00061087,-0.0061087
0.13776,1.3925,-1.4906,9.1202,-0.076664,-0.00030543,-0.0085521
0.15558,1.1964,-1.5691,8.9437,-0.066279,0.0051924,-0.00030543
0.15851,1.3533,-1.5298,9.1006,-0.057727,0.01069,0.0012217
0.15399,1.3533,-1.6671,9.1202,-0.052534,0.016493,0.0042761
0.15128,1.2356,-1.726,9.0417,-0.033598,0.021991,-0.0039706
0.14755,1.5102,-1.7848,8.8652,0.0082467,0.03146,-0.01069
0.147,1.5298,-1.5691,9.0613,0.046731,0.050396,-0.010079
0.14185,1.5298,-1.5691,9.1006,0.0042761,0.059559,0.0051924
0.14685,1.5298,-1.824,9.0613,-0.030849,0.052534,-0.0082467
0.13419,1.4318,-1.824,8.9437,-0.06689,0.043371,-0.014355
0.13318,1.3533,-1.6475,9.1006,-0.078191,0.035125,-0.013744
0.13019,1.4514,-1.7848,9.0025,-0.076358,0.023518,-0.01069
0.11536,1.2945,-1.6867,9.0613,-0.072082,0.012523,-0.0067195
0.12106,1.5298,-1.8044,8.9437,0.05284,-0.00061087,-0.0030543
0.1167,1.3533,-1.824,9.0025,0.036041,-0.012217,0.007025
0.11914,1.3533,-1.7456,9.0221,-0.0079412,-0.0058032,-0.010996
0.12769,1.3533,-1.7848,8.9437,-0.015272,0.016799,-0.0064141
0.12393,1.3533,-1.7456,9.0417,-0.030543,0.029932,-0.0067195
0.12277,1.3729,-1.5298,9.2575,-0.039401,0.032987,0.0042761
0.10574,1.4906,-1.5102,9.0613,-0.040012,0.023824,0.0082467
0.083649,1.1376,-1.6475,9.1594,-0.034819,0.011912,0.013134
0.054291,1.2945,-1.824,9.0417,-0.051618,0.0033598,0.010079
0.014954,1.4318,-1.7848,8.8456,-0.019242,0.0067195,-0.0030543
-0.020813,1.3533,-1.6475,9.1202,0.01069,0.020769,-0.0051924
-0.069702,1.5298,-1.8044,9.1202,0.025962,0.031765,-0.0042761
-0.10049,1.3729,-1.824,9.0417,0.025656,0.036957,-0.0009163
-0.12955,1.2945,-1.8829,8.8456,0.0085521,0.041233,-0.0051924
-0.16226,1.216,-1.6671,9.0417,-0.012217,0.040928,-0.0097738
-0.17566,1.2356,-1.6279,9.1202,-0.029627,0.031154,-0.0061087
-0.18381,1.3533,-1.5691,9.0221,-0.021991,0.020769,-0.0027489
-0.18668,1.1964,-1.7848,9.1202,-0.0061087,0.013744,-0.0051924
-0.18661,1.3729,-1.9613,8.8064,-0.013134,0.0045815,-0.011912
-0.1572,1.3925,-1.9809,9.1202,0.020464,0.01741,-0.011301
-0.13107,1.3337,-1.6867,9.0417,0.04215,0.031154,-0.019548
-0.099915,1.2945,-1.5887,9.0417,0.040928,0.036041,-0.018631
-0.096375,1.4318,-1.7456,9.0221,0.022907,0.030238,-0.014966
-0.087311,1.3533,-1.8437,9.0221,-0.0058032,0.020464,-0.0088575
-0.07074,1.3925,-1.8829,9.0417,-0.033292,0.010079,-0.010385
-0.059723,1.4514,-1.824,8.9437,-0.051924,-0.00061087,-0.011606
-0.05777,1.3533,-1.5102,9.0613,-0.059254,-0.009163,-0.014661
-0.041351,1.2945,-1.6475,9.0613,-0.048869,-0.012523,-0.013439
-0.03952,1.5102,-1.6867,9.0025,-0.034819,-0.010079,-0.0076358
-0.027924,1.3925,-1.7848,8.9437,-0.019242,-0.0045815,-0.0048869
0.00088501,1.4514,-1.726,8.9633,-0.0027489,0.0024435,-0.0030543
-0.0060425,1.4318,-1.5691,9.0221,0.012217,0.011606,-0.0039706
0.0070496,1.2945,-1.5298,9.0417,0.020159,0.019242,-0.0088575
0.01355,1.3533,-1.7456,9.1202,0.017104,0.023518,-0.012523
0.012268,1.5298,-1.9809,9.0417,-0.00030543,0.020159,-0.0051924
0.022369,1.5102,-1.7456,8.9437,-0.02474,0.013439,-0.0027489
0.021667,1.3925,-1.6279,9.1202,-0.050702,0.0018326,-0.010079
0.023834,1.1964,-1.5298,9.0613,-0.067806,-0.0076358,-0.0033598
0.030945,1.2945,-1.6475,9.179,-0.06353,-0.0088575,0.00030543
0.025208,1.3729,-1.7848,9.1006,-0.041844,-0.0048869,-0.0018326
0.027832,1.5495,-1.6671,8.9437,-0.0039706,0.0036652,-0.0024435
0.0177,1.2945,-1.824,8.9633,0.033598,0.018937,-0.002138
0.0021667,1.3533,-1.7848,9.0613,0.036652,0.030543,-0.016799
0.013702,1.216,-1.5298,9.179,0.045204,0.037874,-0.019548
-0.013428,1.4514,-1.6475,9.0417,0.039401,0.035125,-0.022907
-0.028381,1.1768,-1.6475,9.0417,0.018021,0.02474,-0.020464
-0.036865,1.3533,-1.824,8.8848,-0.007025,0.015577,-0.020159
-0.045868,1.3533,-1.824,8.8848,-0.030543,0.0073304,-0.019548
-0.065857,1.4318,-1.6475,9.0417,-0.040928,0.0012217,-0.018021
-0.08548,1.3533,-1.5102,9.1202,-0.035125,-0.00030543,-0.016188
-0.096619,1.1964,-1.7456,9.0025,-0.027489,0.013134,-0.0097738
-0.099487,1.5298,-1.7848,9.0417,-0.026878,0.013744,-0.0094684
-0.11429,1.2945,-1.6475,9.1006,-0.02474,0.010385,0.0018326
-0.10873,1.3533,-1.6671,9.0417,-0.016799,0.0054978,0.0024435
-0.13116,1.1376,-1.5102,9.1594,-0.0027489,0.0045815,0.00030543
-0.14972,1.3729,-1.5887,9.1594,0.009163,0.0064141,-0.0058032
-0.16272,1.5495,-1.6279,9.179,-0.018631,0.013134,-0.0097738
-0.17371,1.6475,-1.7456,8.9044,-0.024129,0.019548,-0.0085521
-0.16577,1.3533,-1.824,9.0417,-0.0045815,0.021991,-0.017715
-0.16849,1.5102,-1.6867,9.0025,-0.013744,0.023518,-0.018937
-0.16553,1.1376,-1.6671,9.179,-0.016493,0.016799,-0.0094684
-0.14969,1.1964,-1.6867,9.1986,-0.012217,0.011912,-0.012217
-0.1449,1.3533,-1.6867,9.0417,-0.0058032,0.013439,-0.013439
-0.13046,1.216,-1.6475,9.0417,0.0088575,0.013439,-0.013439
-0.11267,1.3533,-1.824,9.0221,0.012828,0.013744,-0.011912
-0.10498,1.2945,-1.6475,9.179,0.0064141,0.016799,-0.011912
-0.09552,1.1376,-1.6475,9.1202,-0.024435,0.020769,0.0048869
-0.085693,1.2945,-1.7848,8.9437,-0.035125,0.0058032,0.0036652
-0.085114,1.3337,-1.824,8.8848,-0.037568,-0.0009163,-0.011606
-0.090912,1.5298,-1.7456,9.1202,-0.031154,-0.0018326,-0.012828
-0.062805,1.2356,-1.6867,9.1202,-0.018937,0.0073304,-0.010996
-0.057068,1.5298,-1.824,9.0417,-0.01069,0.020159,-0.0076358
-0.05188,1.6475,-1.824,9.0613,-0.014966,0.02474,-0.0051924
-0.043213,1.5298,-1.7848,8.9437,-0.024129,0.025351,-0.00061087
-0.046326,1.5102,-1.726,9.1202,-0.032987,0.020159,0.0045815
-0.052612,1.5102,-1.6867,9.0613,-0.045815,0.010996,0.0042761
-0.051819,1.3533,-1.6867,8.9437,-0.054672,0.0027489,0.0015272
-0.040924,1.3729,-1.7848,9.0417,-0.055894,-0.0009163,-0.0009163
-0.050354,1.3533,-1.7848,9.0417,-0.052229,-0.0015272,-0.00061087
-0.049652,1.1964,-1.6279,9.1202,-0.04215,0.0012217,0.0024435
-0.057678,1.3533,-1.5691,9.0417,-0.026267,0.0067195,0.0018326
-0.067261,1.0787,-1.6671,9.1202,-0.01741,0.011301,0.0015272
-0.068512,1.3533,-1.6867,9.1202,0.0076358,0.011606,-0.023518
-0.064392,1.1768,-2.0594,9.0613,0,0.023824,-0.018937
-0.045959,1.3533,-1.8044,8.9437,-0.015882,0.03207,-0.011301
-0.037933,1.3533,-1.8044,9.0417,-0.03543,0.032681,-0.014355
-0.041138,1.4318,-1.6279,9.0417,-0.04612,0.025351,-0.02138
-0.049469,1.4318,-1.6867,9.0417,-0.040623,0.015272,-0.025045
-0.053223,1.216,-1.7456,9.1202,-0.020159,0.009163,-0.0281
-0.056488,1.5298,-1.8437,8.9044,-0.0018326,0.010079,-0.027794
-0.052887,1.3925,-1.6475,8.8848,-0.0012217,0.015577,0.0015272
-0.048431,1.3533,-1.7848,8.9633,-0.019853,0.016799,0.0082467
-0.056213,1.4906,-1.7848,9.0417,-0.047342,0.009163,-0.0097738
-0.065063,1.3533,-1.824,8.9633,-0.078802,-0.0067195,-0.0009163
-0.074219,1.3533,-1.7456,9.0417,-0.094073,-0.02474,0.0051924
-0.083801,1.5102,-1.6475,9.0613,-0.087354,-0.036957,0.0082467
-0.09613,1.4906,-1.6671,9.1202,-0.065668,-0.038179,0.0018326
-0.10254,1.3533,-1.6671,9.0025,-0.043677,-0.028711,-0.0012217
-0.11777,1.3729,-1.8044,9.0025,-0.022907,0.018631,-0.0082467
-0.11658,1.3337,-1.7456,8.8652,-0.036041,0.017104,-0.0045815
-0.11188,1.3337,-1.6475,9.0221,-0.04215,0.012217,-0.0073304
-0.11026,1.4906,-1.7456,9.179,-0.035736,0.011301,-0.0051924
-0.10864,1.5298,-1.7848,9.1202,-0.02474,0.015577,-0.007025
-0.10406,1.6867,-1.824,9.0417,-0.010079,0.021075,-0.0097738
-0.098999,1.5887,-1.7456,8.8064,0.0024435,0.026267,-0.010385
-0.092743,1.3729,-1.7848,8.8652,0.0073304,0.027489,-0.010385
-0.083405,1.3729,-1.8829,9.0417,-0.018937,0.02474,-0.012217
-0.077057,1.3925,-1.7456,9.179,-0.038485,0.018631,-0.010385
-0.069397,1.2356,-1.7456,8.9633,-0.049786,0.0076358,-0.0067195
-0.068695,1.2945,-1.6867,9.0417,-0.050396,-0.0042761,-0.009163
-0.078125,1.3533,-1.5298,9.1202,-0.040928,-0.012217,-0.011606
-0.083862,1.2356,-1.6475,9.179,-0.026267,-0.013744,-0.011912
-0.074921,1.5298,-1.9613,9.1594,-0.0073304,-0.011301,-0.012523
-0.071045,1.6083,-1.9417,8.9437,0.0051924,-0.002138,-0.014661
-0.064545,1.5298,-1.5102,8.8848,-0.17501,-0.031154,0.019853
-0.061951,1.216,-1.5298,9.0417,-0.14569,-0.030543,0.021991
-0.036102,1.3533,-1.7848,9.1594,-0.13347,-0.023824,-0.036957
-0.038208,1.5495,-2.2948,8.8456,-0.13806,-0.013744,-0.035736
-0.041138,1.6083,-2.2751,8.7868,-0.13622,-0.0088575,-0.026878
-0.014923,1.4906,-2.2751,8.6299,-0.12614,-0.018326,-0.0085521
-0.027863,1.6083,-2.0594,8.8848,-0.2022,-0.032987,0.0073304
-0.039459,1.5298,-1.9809,8.8064,-0.19731,-0.036346,0.014966
-0.056335,1.5298,-1.9809,8.9437,0.061087,-0.015882,0.087659
-0.065002,1.5298,-2.1967,8.8652,0.14539,0.020159,0.11973
-0.086792,1.6867,-1.824,8.9633,0.2306,0.067501,-0.015577
-0.11169,1.3729,-2.1378,9.434,0.26114,0.10232,0.0039706
-0.12976,1.6083,-2.2948,9.3359,0.20708,0.10018,0.023824
-0.16739,1.9221,-2.0006,8.8456,0.1069,0.067806,0.04948
-0.20721,1.5495,-1.1964,8.8456,0.055589,0.057421,0.062614
-0.23096,1.0591,-1.1572,9.3555,0.088881,0.065057,0.061392
-0.26166,1.3337,-1.4318,8.8456,0.24251,0.071777,0.016188
-0.27692,0.8826,-1.5298,9.1202,0.13439,0.083689,-0.011301
-0.24869,1.3533,-1.2553,8.8848,0.049175,0.07086,0.12034
-0.22958,1.6867,-1.5887,9.0417,0.007025,0.036041,0.096822
-0.15854,1.0787,-1.8044,9.0025,-0.044593,0.032681,0.051618
-0.09726,1.0395,-1.9809,8.7868,-0.086132,0.033903,0.026878
-0.045898,1.2356,-2.1378,8.5318,0.17868,0.015272,0.060476
-0.00079346,1.0395,-1.824,8.8456,0.25779,-0.009163,0.06353
0.010681,0.98067,-1.6867,9.0417,-0.043677,-0.0097738,-0.026267
-0.029938,1.0395,-1.7456,8.9437,-0.022602,0.018021,-0.032987
-0.083527,1.3729,-1.9025,8.9437,-0.045815,0.04612,-0.032376
-0.15729,1.4318,-1.6867,9.0417,-0.097738,0.058032,-0.027489
-0.2182,1.5298,-1.5102,9.0417,-0.14997,0.050091,-0.016493
-0.28247,1.3925,-1.6475,9.2183,-0.18662,0.025045,-0.011301
-0.33948,1.3533,-1.7456,9.1202,-0.10201,-0.0039706,-0.0082467
-0.38394,1.4318,-1.8829,9.1202,-0.082772,-0.022907,-0.015272
-0.405,1.4318,-1.9613,9.0417,-0.031765,0.025045,-0.010079
-0.41275,1.2945,-2.2751,9.0025,-0.029322,0.022602,-0.011301
-0.41006,1.4318,-2.1378,9.0613,-0.027489,0.025045,-0.0088575
-0.39438,1.6475,-2.0006,8.8652,-0.027184,0.029016,-0.010079
-0.38138,1.4318,-2.1575,8.9437,-0.03207,0.026573,-0.013134
-0.38336,1.6083,-2.2751,9.0417,-0.04215,0.020769,-0.015882
-0.36719,1.5495,-1.9809,9.0613,-0.047647,0.015272,-0.015272
-0.36316,1.7456,-1.9417,9.0613,-0.044593,0.013439,-0.011912
-0.35336,1.6083,-1.8829,8.8064,-0.032681,0.018021,-0.0018326
-0.33398,1.3337,-2.0594,8.7083,-0.021686,0.025962,-0.00030543
-0.31021,1.3337,-2.1378,8.9437,-0.017104,0.027489,-0.012217
-0.28384,1.5298,-2.2555,9.0025,-0.014661,0.0281,-0.013439
-0.27121,1.4318,-1.9417,8.8848,-0.012217,0.027489,-0.013134
-0.25778,1.3533,-1.9809,8.9633,-0.01069,0.028405,-0.01069
-0.24304,1.4318,-1.8829,9.0417,-0.016799,0.023518,-0.0085521
-0.2225,1.2356,-1.9809,9.0417,-0.029322,0.015882,-0.0061087
-0.20319,1.4906,-2.0594,8.8652,-0.043677,0.0085521,0.0042761
-0.20029,1.4514,-2.0006,8.8652,-0.043371,0.0024435,0.0018326
-0.18774,1.2945,-1.9613,8.9633,-0.046426,0.0009163,0.0027489
-0.1824,1.3925,-2.0594,9.0025,-0.058338,-0.007025,0.0067195
-0.17209,1.2356,-1.9809,8.8652,-0.070555,-0.021991,0.0097738
-0.15842,1.2356,-2.0986,9.1202,-0.063225,-0.034819,0.012828
-0.14676,1.5102,-2.1967,9.1594,-0.040928,-0.033598,0.014355
-0.15125,1.3729,-2.1182,8.9044,-0.015882,-0.018631,0.0088575
-0.13892,1.3533,-2.0398,8.8064,-0.0009163,-0.0015272,-0.0082467
-0.13843,1.2356,-1.9809,8.9437,-0.0015272,0.012217,-0.011912
-0.13965,1.3925,-2.0986,8.7868,-0.0094684,0.018326,0.00061087
-0.14191,1.3729,-2.0594,8.7279,-0.018937,0.018021,-0.0009163
-0.14072,1.3533,-2.2163,8.8652,-0.026878,0.014966,-0.0009163
-0.14465,1.3729,-2.1182,8.8064,-0.025351,0.015577,-0.0012217
-0.13464,1.3729,-2.0986,8.8652,-0.013744,0.018326,-0.0036652
-0.13428,1.5298,-2.0986,8.9437,-0.0039706,0.023213,-0.0067195
-0.13348,1.2945,-1.9809,8.8652,-0.026878,0.007025,-0.0064141
-0.11578,1.216,-1.9809,8.8064,-0.045815,-0.0018326,-0.0045815
-0.097534,1.3729,-1.9809,8.9044,-0.047647,-0.0018326,-0.0039706
-0.084595,1.3337,-2.0006,8.9437,-0.032681,0.007025,-0.0082467
-0.072388,1.3533,-2.0398,8.8652,-0.011912,0.01741,-0.01069
-0.043671,1.4318,-2.0594,8.9241,0.0018326,0.024435,-0.013439
-0.032135,1.5102,-1.9809,8.9437,-0.00061087,0.024435,-0.012217
0.0018616,1.6083,-1.9809,9.0221,-0.011606,0.018937,-0.0082467
0.02774,1.2945,-1.9809,9.0417,-0.060476,0.014355,-0.0085521
0.048492,1.4318,-2.0006,8.9044,-0.059254,0.0082467,-0.012523
0.073181,1.3533,-1.9809,8.8652,-0.043371,-0.00061087,-0.0048869
0.10938,1.3925,-2.1378,8.9633,-0.021686,-0.0030543,-0.011606
0.13391,1.5298,-2.1182,9.0025,-0.0064141,0.0024435,-0.016799
0.15756,1.3729,-1.9417,8.9437,-0.0048869,0.013134,-0.014355
0.17047,1.4318,-1.8437,9.0417,-0.030238,0.022297,-0.010079
0.16351,1.1964,-1.8437,9.0417,-0.049175,0.020769,-0.0079412
0.19406,1.4906,-2.0006,8.9044,-0.063835,0.012217,-0.0088575
0.20242,1.5298,-1.9809,9.0025,-0.075442,-0.0079412,-0.020769
0.22488,1.5102,-1.8829,9.0025,-0.078802,-0.025962,-0.012523
0.22986,1.216,-1.824,9.0025,-0.078191,-0.032681,-0.012523
0.25,1.4318,-2.0398,8.9437,-0.071471,-0.032376,-0.010385
0.25659,1.6475,-2.2751,8.8652,-0.059559,-0.026878,-0.0012217
0.26862,1.4318,-1.9809,8.8652,-0.012217,-0.018937,-0.0009163
0.28134,1.3533,-1.9809,9.0417,-0.034819,-0.014355,-0.0033598
0.29282,1.5298,-1.8829,9.2183,-0.040623,-0.011912,-0.014966
0.29486,1.2945,-1.8829,9.0417,-0.032987,-0.0067195,-0.020464
0.30115,1.6083,-2.0594,8.8064,-0.0009163,0.0036652,-0.02138
0.30276,1.5102,-2.1378,8.8848,0.025962,0.014661,-0.013744
0.29431,1.5495,-2.1967,9.0613,0.032376,0.018021,-0.0058032
0.2955,1.5102,-2.0006,8.9044,0.014661,0.015577,0.0015272
0.2966,1.2356,-1.824,8.8652,-0.016493,0.0079412,0
0.28519,1.5102,-1.9809,8.8064,-0.039401,0.0036652,-0.0079412
0.26855,1.5298,-2.1967,8.8456,0.0073304,0.032376,-0.0067195
0.27234,1.3337,-2.3144,8.8848,-0.013439,0.03207,-0.0097738
0.27536,1.4318,-1.9417,8.9044,-0.033598,0.019242,-0.0076358
0.27374,1.5102,-1.8829,8.8848,-0.049175,0.0064141,-0.0054978
0.25861,1.5298,-1.9809,8.9044,-0.056505,0.0012217,-0.0036652
0.25967,1.4318,-1.9809,8.9437,-0.054367,-0.0012217,-0.0015272
0.25363,1.2749,-2.0594,8.9437,-0.036652,-0.0033598,0.00030543
0.25424,1.4318,-1.9809,9.0417,-0.012828,0.0009163,-0.00030543
0.25284,1.5102,-1.824,9.0417,0.0082467,0.011912,-0.0039706
0.24539,1.5298,-1.9809,8.9633,0.018021,0.019548,-0.0058032
0.23508,1.3533,-2.0594,8.9044,0.015882,0.0281,-0.0058032
0.22659,1.6083,-2.1182,8.9044,0.00061087,0.03207,-0.0015272
0.22269,1.4318,-1.9613,9.0025,-0.023824,0.026573,0.00030543
0.22461,1.3337,-2.0006,8.8064,-0.040012,0.010385,0
0.22577,1.5298,-2.0006,8.9633,-0.036346,-0.0042761,-0.0030543
0.23257,1.4906,-2.0594,8.8456,-0.017104,-0.0079412,-0.0039706
0.24246,1.4318,-2.1967,8.8064,0.0085521,0.00030543,-0.04948
0.24734,1.5298,-1.9809,8.8456,0.026878,0.014966,-0.054672
0.26239,1.1964,-1.8829,9.0417,0.035125,0.029322,-0.0097738
0.26489,1.5102,-1.8829,9.0417,0.050396,0.041539,-0.014661
0.26752,1.3533,-1.9809,8.8064,0.058643,0.055589,-0.02474
0.2706,1.4906,-2.0594,8.9044,0.04948,0.062614,-0.035736
0.26459,1.5495,-2.1378,8.9044,0.036041,0.059559,-0.044899
0.26755,1.3533,-1.9809,8.8652,0.033292,0.050091,-0.048258
0.27139,1.3533,-1.9417,9.0417,-0.007025,0.028405,-0.012523
0.2536,1.4318,-1.9809,9.1202,-0.01741,0.018021,-0.0094684
0.23721,1.4318,-2.0986,8.7475,-0.031154,0.013439,-0.010996
0.22308,1.5298,-2.2751,8.8652,-0.038485,0.0097738,-0.011301
0.21875,1.6671,-2.1575,8.7083,-0.032681,0.0094684,-0.011912
0.21881,1.6475,-2.1575,8.9437,-0.018021,0.013744,-0.013134
0.20239,1.3337,-2.0006,9.0417,0.002138,0.021686,-0.01405
0.21939,1.5102,-2.0594,9.0417,0.017104,0.028711,-0.015272
0.20743,1.4318,-1.9613,8.9437,0.45112,-0.020769,-0.10629
0.21622,1.5102,-1.8829,8.8456,0.47678,0.021075,-0.080634
0.24881,1.2356,-1.6671,9.0417,0.41294,0.075442,-0.10171
0.27164,1.2749,-1.3729,9.179,0.30238,0.10415,-0.07086
0.26776,1.118,-1.5691,9.1594,0.18479,0.097738,-0.061087
0.26215,1.0591,-1.9809,9.1006,0.080329,0.074526,-0.073915
0.24036,1.1964,-2.2751,8.7083,0.16005,0.058948,-0.10049
0.21942,1.3925,-2.2948,8.7279,0.33078,0.047342,-0.11637
0.20792,1.3729,-2.1967,8.8456,-0.14111,0.026573,0.037568
0.1857,1.3925,-1.824,8.9044,-0.15791,-0.0036652,0.037568
0.15228,1.4906,-1.8044,9.0221,-0.1347,-0.025045,-0.061087
0.12994,1.5102,-2.0594,8.9437,-0.099266,-0.03146,-0.049175
0.086731,1.6867,-2.1575,8.9044,-0.07025,-0.021075,-0.029627
0.052795,1.5102,-2.0986,8.9044,-0.061697,-0.0009163,0.00061087
0.030579,1.3337,-1.8829,8.9044,-0.007025,0.017104,0.025656
-0.0053101,1.3533,-1.8829,8.8848,-0.083078,0.025656,0.03543
-0.053619,1.1964,-2.1967,9.0417,-0.064752,-0.013439,0.046731
-0.12137,1.6867,-2.6282,8.6299,-0.037874,-0.0036652,0.017715
-0.19141,1.7456,-2.7459,8.6887,-0.011301,0.012217,0.0051924
-0.27005,1.5495,-1.824,9.1202,-0.00030543,0.030849,0.0015272
-0.35938,1.3729,-1.9809,9.3359,-0.011912,0.037568,0.0048869
-0.45642,1.6475,-2.3732,8.7279,-0.038485,0.036041,0.0079412
-0.5481,1.5495,-2.0594,8.5514,-0.081245,0.023213,0.020159
-0.62851,1.4318,-1.6475,9.0417,-0.12065,-0.0015272,0.040012
-0.6976,1.5298,-1.471,9.0613,-0.11179,-0.022297,-0.031765
-0.72702,1.3925,-1.1768,9.1202,-0.05681,-0.02474,-0.098655
-0.72659,1.2945,-1.2553,9.0613,-0.0045815,0.0030543,-0.032376
-0.70068,1.3729,-1.6475,8.8064,0.023518,0.050091,-0.061087
-0.66412,1.0591,-1.9613,8.9437,0.01741,0.085216,-0.057727
-0.60675,1.1964,-1.9809,8.9437,0.036041,0.10293,-0.039401
-0.56088,1.3925,-2.0006,9.1202,-0.1408,0.063835,-0.012828
-0.51105,1.118,-1.8829,9.0025,-0.14142,-0.0018326,0.011606
-0.452,1.0199,-1.824,9.1594,-0.07025,0.042455,-0.025045
-0.38522,1.2749,-2.0398,9.2575,-0.056505,0.03146,-0.027794
-0.31467,1.6083,-2.1967,8.8652,-0.014355,0.043371,-0.067806
-0.26666,1.8044,-2.2751,8.8456,0.017715,0.054978,-0.072693
-0.22284,1.4318,-2.0006,9.0417,0.043371,0.049175,-0.071777
-0.1777,1.216,-1.824,9.1006,0.072082,0.040012,-0.069333
-0.14685,1.3925,-1.824,9.1202,0.0956,0.041233,-0.06353
-0.092834,1.4514,-1.824,8.8848,0.1066,0.042761,-0.04215
-0.034271,1.4318,-2.4713,8.6299,0.15058,0.099266,0.0045815
0.011261,1.6671,-2.5693,8.3945,0.076969,0.078802,0.026573
0.062073,1.5102,-2.2751,8.9437,0.0067195,0.06353,-0.026878
0.090942,1.3337,-1.9809,8.8652,-0.04215,0.053756,-0.041233
0.13361,1.3337,-1.824,8.8652,-0.072998,0.040012,-0.028405
0.14902,1.3533,-2.0398,9.0025,-0.098044,0.016799,-0.0073304
0.15146,1.4318,-1.9809,9.0417,-0.093462,0,-0.00061087
0.1478,1.3533,-2.2555,8.8064,-0.0562,0.0036652,-0.0073304
0.14661,1.2945,-2.1575,8.7279,-0.00030543,0.02138,-0.072082
0.13748,1.3729,-2.0594,9.0025,0.057727,0.049786,-0.072082
0.11157,1.2945,-2.0006,9.1006,0.069944,0.069333,0.036652
0.095825,1.5102,-2.2751,8.8456,0.032376,0.07025,0.047037
0.067261,1.216,-2.3732,8.9437,-0.022602,0.061087,0.043371
0.05127,1.5495,-2.1967,9.0221,-0.059559,0.044899,0.016799
0.023804,1.3533,-1.7456,9.1202,-0.070555,0.029627,-0.016188
-0.0038452,1.4318,-1.6475,9.0025,-0.046731,0.03207,-0.045815
-0.038086,1.4514,-2.1967,9.0025,0.034514,0.044593,-0.047953
-0.096191,1.6083,-2.1967,8.9437,0.079718,0.04948,-0.057421
-0.14624,1.4318,-1.9809,9.2183,0.13439,0.058338,-0.066279
-0.2045,1.4906,-1.824,8.8652,0.17471,0.075442,-0.077885
-0.24561,1.3729,-1.7848,8.8652,0.16707,0.09499,-0.078191
-0.27017,1.3533,-1.7456,8.8652,0.11209,0.10507,-0.06353
-0.28375,1.4318,-2.0986,8.8848,0.042455,0.090408,-0.059254
-0.29718,1.3729,-2.2555,9.0025,-0.025656,0.064446,-0.054062
-0.3038,1.1964,-1.9025,9.0417,0.026878,0.007025,-0.0073304
-0.2688,1.1964,-1.7456,9.0025,0.065973,0.016799,0.0015272
-0.23648,1.1964,-1.8829,8.7475,0.075442,0.026878,-0.010385
-0.2034,1.3729,-2.0006,8.9437,0.055283,0.030543,-0.0079412
-0.17035,1.3533,-2.0986,8.8652,0.014355,0.027489,-0.00030543
-0.14413,1.2945,-2.0006,9.0025,-0.045815,0.014966,0.0094684
-0.13559,1.2945,-1.9809,8.9437,-0.068111,0.0082467,0.010385
-0.15189,1.3533,-1.8829,9.0417,-0.025351,0.011606,-0.0018326
-0.10626,1.5298,-1.9417,8.9044,-0.039401,0.014966,-0.0009163
-0.1095,1.5298,-2.1967,8.7279,-0.047647,0.014661,0.0033598
-0.1113,1.6867,-2.0398,8.9437,-0.026878,0.020159,0.0073304
-0.11658,1.5102,-1.8437,9.1006,0.0097738,0.043982,-0.0009163
-0.12042,1.2749,-1.7848,9.0025,0.041844,0.062614,-0.0039706
-0.13556,1.3533,-1.8829,8.9044,0.082772,0.071777,-0.0033598
-0.1449,1.5102,-1.9809,8.9044,0.1295,0.084299,0
-0.15573,1.4906,-2.1967,8.8652,0.15699,0.094073,0
-0.16507,1.5495,-2.1575,8.8456,0.069333,0.092241,0.0012217
-0.18066,1.118,-1.9417,8.9044,-0.0030543,0.077274,0.0073304
-0.20123,1.216,-1.7848,9.0025,-0.05681,0.058338,0.0058032
-0.20578,1.118,-1.6475,9.1006,-0.079412,0.037874,-0.0012217
-0.21353,1.3533,-1.7848,9.1202,-0.067501,0.017715,-0.0085521
-0.21732,1.0787,-1.824,9.0417,-0.028405,0.012828,-0.0094684
-0.22815,1.2356,-1.8829,8.8848,0.1576,0.018021,-0.007025
-0.22119,1.0591,-1.9025,9.0613,0.1292,0.023518,-0.0045815
-0.22012,1.216,-1.8829,9.0025,0.080023,0.032376,-0.0027489
-0.2034,1.216,-1.7848,9.1594,0.082161,0.037874,-0.009163
-0.17288,1.3925,-1.8044,8.9633,0.049786,0.036652,0.0094684
-0.14682,1.4318,-1.9809,8.8848,-0.0073304,0.035736,0.013134
-0.12909,1.1964,-1.9613,9.0417,-0.05681,0.033292,0.017715
-0.10577,1.3337,-1.8044,9.179,-0.080023,0.020769,0.017715
-0.090729,1.1964,-1.7456,9.1202,0.019548,0.0061087,0.017104
-0.079834,1.3533,-1.824,9.0613,0.057421,0.00061087,0.0094684
-0.096985,1.4318,-1.824,8.8848,0.072998,0.035125,-0.027489
-0.11575,0.96105,-2.2751,9.0613,0.085827,0.033903,-0.010079
-0.13168,1.2945,-2.0006,8.9437,0.083689,0.018937,-0.0073304
-0.15408,1.118,-1.7456,9.179,0.075747,0.0012217,-0.013439
-0.18042,1.3533,-1.6279,9.0417,0.078802,-0.0097738,-0.028405
-0.20883,1.1376,-1.726,9.179,0.12248,-0.0045815,-0.044899
-0.22525,1.216,-1.726,8.9437,0.1799,0.010079,-0.049175
-0.24713,1.118,-1.7848,9.1202,0.21502,0.0054978,-0.048258
-0.24084,1.118,-1.7456,9.1594,0.22327,-0.0042761,-0.060476
-0.23035,1.3533,-1.726,9.0025,0.23396,-0.016493,-0.078802
-0.21335,1.2945,-1.8829,8.8652,0.22419,-0.016799,-0.013744
-0.18515,1.5298,-1.9809,8.8064,0.19395,0.00030543,0.0061087
-0.1445,1.1768,-1.9025,8.9437,0.14203,0.020769,0.009163
-0.088104,1.216,-1.824,9.0613,0.068111,0.021991,0.00061087
-0.022705,1.2356,-1.824,9.0417,-0.018937,0.0097738,-0.0045815
0.033478,1.1768,-1.8044,8.8652,-0.083078,-0.0094684,-0.03146
0.12787,1.3533,-1.5691,9.0025,-0.0956,-0.022297,-0.071777
0.19531,1.3925,-1.4318,9.0613,-0.063835,-0.014661,-0.099266
0.29858,1.1768,-1.5691,8.9437,-0.015577,0.013439,-0.079412
0.40063,1.1964,-1.5691,8.7475,0.0061087,0.04948,-0.078496
0.50381,0.86299,-1.6475,9.2183,-0.017104,0.085827,-0.083383
0.57269,1.216,-1.7456,9.2575,-0.044288,0.1066,-0.075747
0.62671,1.3337,-1.824,9.0613,-0.049786,0.11606,-0.054978
0.67831,1.6475,-1.6671,9.1006,-0.06689,0.14172,-0.047037
0.71027,1.7456,-1.3533,9.0417,-0.07086,0.16952,0.00061087
0.72192,1.3533,-1.6475,8.9437,-0.017715,0.16096,0.0085521
0.70425,1.5298,-1.6475,9.1202,0.067501,0.14508,-0.093462
0.65491,1.1964,-1.6671,9.179,0.14569,0.13683,-0.080023
0.56796,1.5298,-1.5691,9.0417,0.17868,0.13867,-0.068417
0.46967,1.1768,-1.4906,8.9044,0.16616,0.12859,-0.047953
0.33984,1.0395,-1.7456,8.8652,0.135,0.1127,-0.01069
0.21857,0.74531,-1.7848,9.0221,0.13531,0.08827,0.0067195
0.10205,0.8826,-1.5691,9.1202,-0.78832,-0.28191,-0.04948
0.007843,0.80415,-1.3533,9.179,-0.77733,-0.29719,0.014966
-0.078644,0.90221,-1.1768,9.179,-0.69394,-0.25748,0.25168
-0.17233,1.1768,-1.3533,9.1202,-0.73487,-0.24374,0.27611
-0.27161,1.0787,-1.5298,9.0221,-0.49541,-0.1912,0.25443
-0.38138,1.0395,-1.6671,9.0417,0.32712,0.033903,0.099266
-0.46158,1.4318,-1.4318,9.0417,1.0895,0.40714,-0.013744
-0.56772,1.4906,-1.2749,9.2183,1.4972,0.65607,-0.05681
-0.65198,1.5102,-1.5102,9.1202,0.69242,0.69455,0.12553
-0.73016,1.2356,-1.4122,9.2575,0.33323,0.6072,0.10079
-0.78909,1.2945,-1.216,9.434,0.11301,0.46823,0.041844
-0.85559,1.3533,-1.0983,9.7282,-0.022602,0.33384,0.040623
-0.87054,1.1964,-1.1572,9.8459,-0.17776,0.22663,0.054367
-0.88284,1.118,-1.4318,10.434,-0.29291,0.17287,0.064141
-0.84485,1.5102,-1.6279,10.768,1.4612,0.13928,0.087659
-0.76227,2.0006,-0.96105,10.297,1.1264,0.069333,0.12492
-0.65756,2.0006,-0.21575,8.7083,0.027489,-0.011301,-0.082772
-0.54919,1.824,-1.4318,7.6492,0.22174,-0.043982,-0.15363
-0.42291,0.039227,-4.5699,5.9821,0.35461,-0.025656,0.087965
-0.28564,0.80415,-4.0207,7.1196,0.35339,0.025045,0.098044
-0.14658,1.2945,-1.0591,8.9437,0.18326,0.072388,0.099876
-0.022461,0.49033,0.078453,9.8851,-0.11301,0.076053,0.090713
0.048523,0.49033,-0.15691,9.6694,-0.28802,0.037263,0.065973
0.078674,0.56879,-0.72569,9.4144,-0.16371,-0.07025,-0.0012217
0.088379,0.13729,-1.471,9.3359,0.040012,0.19273,0.14813
0.11237,0.27459,-2.4124,9.3359,0.019548,0.16493,0.20983
0.13837,0.56879,-2.8243,9.4928,0.0042761,0.1179,-0.014966
0.21085,0.41188,-2.3144,9.9636,-0.03207,0.055894,0.0027489
0.28128,0.17652,-1.6475,10.375,-0.10171,-0.022297,0.018631
0.34457,-0.33343,-1.5691,10.415,-0.22083,-0.10599,0.040928
0.40753,0.23536,-2.687,10.454,-0.41661,-0.1741,0.07758
0.49298,1.2945,-4.0207,10.062,-0.64446,-0.23152,0.10232
0.6015,2.1378,-4.3345,9.5125,-3.9129,0.12798,-0.19517
0.75024,2.0202,-3.8638,9.9832,-4.1017,0.12767,-0.20495
0.86575,1.7652,-3.0989,9.8263,-4.0928,0.15944,-0.38637
0.97092,2.9224,-3.4127,8.9437,-3.9334,0.24526,-0.36499
1,3.2166,-3.5304,7.6884,-3.7012,0.37415,-0.34544
1,3.5696,-3.1381,7.7865,-3.4297,0.53634,-0.3091
1,3.2558,-2.7851,8.1787,-3.1872,0.70677,-0.25779
1,3.4127,-2.6282,7.8649,-3.0232,0.83689,-0.21533
1,3.1774,-2.0594,7.3158,-2.9242,0.89706,-0.45632
1,2.9616,-1.471,7.0019,-2.8051,0.90255,-0.44257
1,2.7066,-1.1768,6.8647,-2.5812,0.91691,-0.26389
1,2.7851,-1.3141,6.5312,-2.2581,0.9725,-0.35675
1,2.7851,-1.3141,5.9036,-1.9151,1.0525,-0.43341
1,2.7851,-1.2553,6.5312,-1.6017,1.1176,-0.46823
1,3.2166,-1.1572,7.2961,-1.3451,1.1506,-0.47678
1,3.1185,-0.86299,7.6884,-1.1493,1.1625,-0.46976
1,3.3735,-1.0003,7.5903,-0.26267,1.1692,-0.02474
1,3.9423,-1.3729,7.1196,-1.0724,1.1906,0.10873
1,4.4914,-2.432,6.3743,-0.95631,1.2343,-0.42241
1,5.1975,-3.4519,6.0605,-0.88637,1.2868,-0.38882
1,5.9821,-4.6287,5.0406,-0.84788,1.3231,-0.34575
1,6.5116,-5.8252,4.2365,-0.78954,1.3427,-0.30238
1,6.7666,-5.9232,3.3539,-0.67287,1.3628,-0.24954
1,6.3743,-5.9036,3.9815,-0.49908,1.3631,-0.15485
1,6.845,-6.8058,4.158,-0.51618,0.2364,-0.44104
1,7.5707,-7.708,4.158,-0.94959,0.21594,-0.41172
1,7.4727,-8.218,4.8641,-1.3937,0.18601,-0.71257
1,6.5312,-7.2177,5.3937,-1.817,0.16402,-0.6408
1,6.139,-5.9232,4.8249,-2.2235,0.14966,-0.59682
1,5.629,-5.4329,4.1972,-2.5992,0.13134,-0.55864
1,4.4718,-5.8055,4.2953,-2.941,0.12859,-0.51954
1,3.7069,-6.2174,4.7268,-3.3014,0.13286,-0.47922
1,3.0989,-6.3743,5.1975,-0.61453,-0.69058,0.17074
0.90311,2.432,-6.0409,5.8055,-0.10965,-0.62797,0.15669
0.75949,1.5298,-5.5898,5.9036,0.21044,-0.48503,0.27367
0.59705,0.92183,-6.0409,5.5702,0.30757,-0.31185,0.2361
0.45157,0.49033,-7.0019,5.4917,0.27978,-0.18112,0.19151
0.29446,-0.17652,-7.2961,5.5898,0.24496,-0.11942,0.17104
0.13373,-0.13729,-7.0608,5.2956,-1.5855,-0.062919,0.18204
-0.05191,-0.13729,-7.0019,4.9622,-1.1875,-0.020769,0.17898
-0.23685,-0.078453,-6.9823,4.9426,1.2251,0.012523,-0.12584
-0.40207,-1.118,-8.4729,4.6091,1.8937,0.10354,-0.27153
-0.5408,-1.2945,-10.356,5.0995,2.4972,0.28191,0.13867
-0.65811,1.3729,-7.6296,5.6094,2.8317,0.51435,0.10934
-0.72849,1.5102,-5.9036,6.5901,2.8317,0.78252,0.079107
-0.78818,0.98067,-6.5508,6.4332,2.6435,0.95081,0.046731
-0.83615,0.76492,-6.845,6.5508,0.3656,0.96792,0.014966
-0.87067,1.216,-6.6097,5.5702,0.69425,0.88667,-0.018937
-0.88266,1.0199,-6.4528,4.3542,-1.0015,-0.61422,0.3146
-0.85455,0.90221,-7.1785,3.7069,-1.098,-0.74434,0.37049
-0.80157,0.80415,-6.6685,3.7854,-1.0678,-0.77397,0.14539
-0.68689,0.11768,-5.4133,4.3934,-0.99938,-0.75625,0.16554
-0.55817,-0.21575,-5.6486,4.8837,-1.0119,-0.73457,0.20922
-0.42786,-0.49033,-7.1589,4.9426,-0.97097,-0.69852,0.23488
-0.30508,0.078453,-9.5909,4.2561,-0.77488,-0.60018,0.22907
-0.2038,1.2356,-10.454,2.7655,-0.48442,-0.46059,0.25717
-0.10568,1.8044,-8.5906,2.2163,-0.17715,-0.30299,0.48381
-0.029144,1.7652,-7.708,2.7262,0.0015272,-0.18479,0.37813
-0.0048828,2.1182,-7.8453,2.589,0.01069,-0.1292,0.44685
-0.063538,2.7459,-9.3555,0.90221,-0.11026,-0.087048,0.50213
-0.2229,3.2362,-11.062,0.078453,-0.45387,-0.16371,0.5565
-0.47891,2.5497,-9.1594,1.1572,-0.88759,-0.31521,0.61758
-0.8457,1.7456,-7.2961,3.0989,-1.2843,-0.45235,0.59223
-0.99997,1.8437,-7.3354,4.6484,-1.5812,-0.60018,0.54398
-0.99997,1.9221,-7.2961,5.4329,0.79993,0.7196,-0.28344
-0.99997,2.0006,-6.4332,6.0409,0.37141,0.51526,-0.28344
-0.99997,1.9809,-4.0796,6.139,-0.0073304,0.18784,0.18173
-0.99997,1.6671,-3.8442,6.0409,-0.21289,-0.073609,0.089186
-0.99997,1.8044,-3.7069,6.2959,-0.25565,-0.1576,-0.06353
-0.99997,1.3533,-3.3146,6.3547,-0.21686,-0.1179,-0.19487
-0.99997,0.98067,-3.3146,6.2959,-0.19853,-0.038179,-0.24221
-0.99997,0.66685,-5.021,6.6489,-0.28711,0.053451,-0.25748
-0.99997,0.49033,-6.1782,7.1589,1.1765,0.48564,0.48197
-0.99997,0.50995,-6.139,8.0022,0.94837,0.43646,0.39951
-0.99997,0.50995,-4.7072,8.4926,0.7138,0.38759,0.42089
-0.99997,0.41188,-3.5304,8.0807,0.49908,0.32865,0.43494
-0.99997,0.39227,-3.2558,7.9434,0.26267,0.24923,0.49541
-0.99997,0.2942,-3.3146,8.5514,0.011606,0.12584,0.55375
-0.99997,-0.68647,-3.6285,9.1202,-0.19639,-0.025351,0.56536
-0.99997,-0.82376,-4.0207,8.7475,-0.2587,-0.15974,0.53634
-0.99997,-0.66685,-6.0409,7.6296,0.31673,-0.21258,0.1689
-0.99997,-0.5884,-8.2572,6.8647,1.0198,-0.16554,0.2193
-0.99997,0.25497,-8.1199,5.8055,1.8387,0.028711,0.31307
-0.99997,0.90221,-5.4525,4.668,2.5846,0.3485,0.21594
-0.96445,-0.2942,-1.471,9.0417,3.1365,0.69608,0.14111
-0.75107,-2.2555,0.19613,9.179,3.5018,1.0489,0.086132
-0.55054,-2.0006,0.078453,7.6296,3.58,1.273,0.017715
-0.32947,-0.80415,-1.1768,6.845,3.2394,1.3216,0.04612
-0.041931,-0.90221,-3.3735,8.5906,2.5271,1.2275,0.10079
0.272,-1.3141,-2.589,9.8851,1.7999,0.93921,0.17868
0.53094,-2.1575,-1.824,11.003,1.3131,0.66157,0.21441
0.71185,-1.5298,-2.9812,8.9437,1.1768,0.55405,0.27611
0.83554,-0.50995,-3.6677,7.1785,1.226,0.60812,0.29474
0.93808,-0.45111,-3.6285,7.0608,1.1906,0.62278,0.24221
1,-1.0199,-2.7459,8.1199,1.2043,0.6576,0.27489
0.99997,-1.9417,-1.8044,10.474,1.1011,0.74526,0.17715
0.89713,-2.687,-0.25497,12.18,-3.4761,-1.4474,0.57574
0.72952,-3.0401,-0.84337,11.14,-3.0378,-1.2993,0.69242
0.56467,-1.471,-4.766,9.3555,-2.521,-1.1393,0.6805
0.41855,0.35304,-7.4531,7.1392,-1.9749,-0.87904,0.69914
0.32321,1.0395,-7.708,6.6685,-1.2966,-0.52137,0.65393
0.27612,2.7655,-8.3749,6.237,-0.65271,-0.21838,0.5733
0.2366,4.5111,-4.6287,6.5312,-0.45571,-0.06353,0.56688
0.17029,4.5307,-0.54917,7.8453,-0.93035,-0.093462,0.55894
0.087372,2.9224,0.62763,8.2376,-1.8295,-0.19853,-0.8546
-0.029144,0.27459,-1.1572,7.8649,-2.9477,-0.35827,-1.0586
-0.14194,-0.13729,-4.7072,5.3544,-3.8231,-0.40592,0.72418
-0.20444,0.078453,-8.1199,3.295,-3.978,-0.30238,0.47342
-0.19891,-0.27459,-10.532,1.3729,-3.1814,-0.091019,-0.036652
-0.11282,-0.33343,-8.7083,-0.2942,-2.0287,0.10507,-0.49511
0.045929,0.90221,-7.4531,0.82376,-1.1897,0.37232,-0.53787
0.21878,-0.05884,-3.0793,1.9809,-0.84208,0.50549,-0.57757
0.38525,-1.5887,-5.2368,-2.6086,-0.36957,0.45326,-0.72968
0.53595,0.45111,-12.925,-4.3738,0.57024,0.3989,-0.71746
0.64706,1.8633,-13.729,-3.805,1.1958,0.46548,-1.2019
0.62888,1.1964,-11.454,-2.3536,1.0293,0.65027,-1.2874
0.33789,0.76492,-11.376,-0.47072,0.033598,0.81764,-1.3045
-0.21118,2.5497,-10.572,-0.078453,-1.394,0.88331,-1.2462
-0.84625,1.3533,-4.5111,2.7851,-1.003,0.7532,-1.0482
-0.99997,-1.216,-0.54917,5.9036,-0.9841,0.46976,-0.8378
-0.99997,-1.7652,-3.6285,2.7655,-2.1399,0.16952,-0.58093
-0.99997,2.4713,-10.944,-0.86299,-0.81917,0.023518,-0.71868
-0.99997,2.0594,-10.277,-0.098066,0.38179,0.12156,-0.84177
-0.99997,-0.76492,-6.7077,1.5887,0.92943,0.3036,-0.97128
-0.99997,-1.1768,-6.8058,2.2163,0.74434,0.44043,-0.85002
-0.99997,1.6475,-9.5909,2.432,0.095906,0.478,-0.64294
-0.99997,3.3735,-11.552,0.54917,-2.5501,0.37904,-0.5791
-0.99997,2.0006,-9.1006,1.726,-2.8665,0.17898,-0.55955
-0.99997,0.41188,-5.0995,3.5108,1.6878,0.16249,-0.16402
-0.99997,1.2749,-4.0796,2.589,1.1808,0.02138,-0.099571
-0.99997,2.9224,-5.3348,1.4122,0.61667,-0.063835,-0.31673
-0.99997,3.4912,-7.0804,0.078453,0.020464,-0.12187,-0.18051
-0.99997,3.9423,-7.0216,-1.5495,-0.5006,-0.1689,-0.13989
-0.99997,4.7464,-7.3158,-3.1185,-0.82528,-0.22907,-0.14294
-0.99997,5.276,-7.9042,-2.5693,-0.85582,-0.30482,-0.14875
-0.99997,5.0995,-10.415,-2.0986,-0.60079,-0.37049,-0.17257
-0.99997,4.4718,-10.042,-3.0401,-0.023824,-0.39798,0.049175
-0.99997,4.4914,-10.003,-1.9613,-0.0956,-0.40287,0.030849
-0.99997,4.5895,-11.395,-5.531,-0.35277,-0.44715,0.029932
-0.99997,5.0406,-10.14,-6.5705,-0.56261,-0.5003,0.13897
-0.99997,5.8252,-7.4727,-3.4323,-0.76786,-0.54214,0.13286
-0.99997,4.668,-4.3934,0.019613,-1.0037,-0.58918,0.10476
-0.84756,4.2169,-2.7459,0.96105,-1.0608,-0.6747,0.11423
-0.46271,4.1188,-3.5304,-0.078453,-0.85918,-0.73976,0.097738
-0.0849,3.805,-5.2368,-0.098066,-0.50091,-0.78435,-0.06353
0.25256,3.55,-7.963,1.1768,-0.12401,-0.8042,-0.18204
0.52158,3.7461,-7.9238,0.078453,0.23579,-0.81276,0.025962
0.73856,3.5696,-6.3743,0.098066,0.54764,-0.79412,-0.013439
0.89435,3.5304,-5.2564,-0.52956,0.91294,-0.7703,-0.051313
0.99734,2.8635,-5.8055,-0.23536,1.2046,-0.71349,-0.068111
1,2.6086,-7.61,-0.47072,0.99632,-0.69303,-0.082772
1,3.2558,-8.7868,-0.76492,0.76725,-0.80176,-0.054062
1,3.2558,-8.7868,-1.3533,1.1652,-0.89919,-0.11698
1,3.7265,-8.4729,-1.6475,1.39,-0.832,-0.071166
1,3.2558,-8.2768,-0.37265,1.2718,-0.80756,-0.1573
1,3.2754,-8.4337,-0.21575,1.0629,-0.7816,-0.0027489
1,4.1972,-6.845,-0.66685,0.91996,-0.79626,-0.0015272
1,4.5699,-7.2765,-1.0983,0.98685,-0.82711,-0.081245
1,4.2561,-8.6495,-0.60801,1.1365,-0.8039,-0.12889
1,3.7069,-8.6299,-0.21575,1.2028,-0.80023,-0.13714
1,4.06,-6.9627,0.019613,0.73915,-0.51924,-0.71868
1,4.158,-6.139,0.078453,0.98716,-0.47281,-0.65851
1,3.9423,-6.8647,-0.23536,1.2648,-0.42241,-0.98563
1,3.9423,-8.1003,-0.50995,1.6203,-0.36621,-0.96853
1,4.3542,-8.4729,-0.78453,2.0088,-0.30268,-0.92546
1,4.3738,-8.0611,-1.3925,2.3225,-0.21808,-0.8772
1,4.8837,-7.0019,-1.5102,2.5186,-0.14233,-0.82833
1,5.1975,-6.3547,-1.1768,2.5757,-0.1066,-0.7761
1,4.5111,-6.3547,-0.60801,2.2571,-0.098044,-0.31643
1,3.4127,-6.492,0.68647,1.9902,-0.10232,-0.30696
1,3.9423,-7.1589,-0.15691,1.748,-0.11912,-0.57666
1,4.9622,-7.8453,-0.52956,1.5519,-0.13806,-0.47892
1,5.4329,-7.4727,-0.68647,1.3967,-0.16952,-0.41203
1,4.9622,-7.5315,0.019613,1.2981,-0.18479,-0.37965
1,4.8053,-8.7279,-1.2945,2.5372,-0.20861,-0.35552
1,4.9426,-9.9047,-1.9809,2.4548,-0.25595,-0.33109
1,4.9622,-8.571,-1.7848,1.3137,-0.28039,-0.24618
1,5.1975,-7.3942,-1.6083,1.3112,-0.28986,-0.22602
1,5.2564,-7.6884,-1.2356,1.2608,-0.28619,-0.29596
1,4.5111,-7.708,-1.6475,1.1417,-0.27214,-0.29199
1,4.8837,-7.3354,-1.726,0.96364,-0.25534,-0.28833
1,4.7464,-6.3547,-0.78453,0.75289,-0.24068,-0.27061
1,4.9818,-5.1191,-0.15691,1.2755,-0.23854,-0.25076
1,5.0995,-4.5111,0.43149,1.2911,-0.24587,-0.24709
1,4.9426,-4.9426,0.21575,-0.88178,-0.65485,-0.95661
1,5.1191,-6.0409,0.64724,-1.0363,-0.72785,-0.967
1,5.1975,-6.7077,0.72569,-1.0785,-0.76755,-0.61697
1,5.1191,-6.845,0.23536,-0.9444,-0.7648,-0.71899
1,5.4329,-6.2763,0.019613,-0.64935,-0.72937,-0.821
1,5.374,-5.8252,0.54917,-0.23976,-0.67348,-0.90866
1,5.4329,-5.2956,1.0199,0.15974,-0.61789,-0.97158
1,5.0602,-4.9818,1.5691,0.478,-0.5678,-0.97738
1,5.1975,-5.4133,1.3337,-0.16799,-0.17043,-0.0079412
1,5.6879,-6.6685,0.72569,-0.26206,-0.20983,-0.020159
