-3.2818e-05,4.6287,4.7856,7.7473,-0.019853,0.028405,0.015272
-3.8799e-05,4.6287,4.9229,7.7865,-0.019242,0.026573,0.018326
-4.9867e-05,4.8053,4.6876,7.7865,-0.014355,0.025962,-0.0024435
-5.3084e-05,4.5699,4.7464,7.8649,-0.0054978,0.023824,0
-4.8733e-05,4.7464,4.7072,7.6492,0.0042761,0.021991,-0.0012217
-4.3754e-05,4.5111,4.8445,7.7865,0.0045815,0.021686,0.0015272
-3.3792e-05,4.8053,4.8053,7.6296,-0.0058032,0.022297,0.0058032
-1.7689e-05,4.5111,5.0995,7.7669,-0.021075,0.02474,0.0097738
9.9451e-07,4.5699,5.0602,7.6492,-0.034208,0.026267,0.013744
1.8017e-05,4.8053,4.9229,7.5511,-0.03543,0.027489,0.01405
3.6169e-05,4.8053,5.021,7.5511,-0.025962,0.029627,0.018631
5.5303e-05,4.8837,5.0602,7.61,-0.016799,0.03146,0.016799
7.1719e-05,4.7464,5.0014,7.61,-0.011912,0.032681,0.01405
8.6796e-05,4.8837,4.9033,7.6492,-0.014661,0.032376,0.011606
9.7823e-05,4.5307,4.9622,7.6296,-0.019548,0.033598,0.010385
0.00011056,4.6484,4.9426,7.6884,-0.022907,0.036346,0.011912
0.00012903,4.8445,4.766,7.61,-0.024129,0.035125,-0.0088575
0.00014618,4.8837,4.8053,7.5903,-0.029016,0.033903,-0.014355
0.00017464,4.7856,4.7856,7.5903,-0.036041,0.032376,0.012828
0.00020565,4.8053,4.7856,7.61,-0.040928,0.028711,0.011912
0.0002536,4.8053,4.766,7.61,-0.044288,0.026573,0.0094684
0.00031076,4.8053,4.7856,7.7473,-0.045509,0.025351,0.0058032
0.0003799,4.5111,4.7464,7.7669,-0.041233,0.025962,-0.00061087
0.00045332,4.668,4.766,7.6884,-0.032376,0.027489,-0.0054978
0.00052719,4.668,4.7072,7.61,-0.026878,0.029932,-0.020769
0.00059453,4.668,4.6876,7.6884,-0.026573,0.03207,-0.018326
0.00065005,4.8053,4.7856,7.7473,-0.036346,0.030849,-0.018021
0.00068482,4.6287,4.9033,7.61,-0.051007,0.029016,-0.019548
0.0006838,4.7856,4.7072,7.61,-0.060476,0.027489,-0.021991
0.00064089,4.7464,4.7856,7.6296,-0.065973,0.025045,-0.023518
0.00055795,4.5895,4.7856,7.7865,-0.066279,0.022297,-0.024129
0.00044157,4.5111,4.8053,7.7865,-0.062003,0.020464,-0.022907
0.00027804,4.668,4.8445,7.61,0.017715,-0.016493,0.023824
7.5548e-05,4.7856,4.8445,7.7865,0.045509,-0.018021,0.025656
-0.00015649,4.5111,4.8053,7.8649,0.048564,-0.016799,0.035736
-0.00039563,4.7464,4.9229,7.7865,0.029932,-0.015272,0.032376
-0.00062133,4.4326,5.021,7.8453,-0.0012217,-0.012828,0.031154
-0.00083039,4.668,5.0798,7.7865,-0.031765,-0.011606,0.030849
-0.0010022,4.4326,5.0798,7.7865,-0.044288,-0.01069,0.029016
-0.0011225,4.5699,5.021,7.6884,-0.03879,-0.0082467,0.025045
-0.0011874,4.8837,4.8445,7.61,0.0097738,-0.0036652,0.0033598
-0.0011822,4.9426,4.9426,7.61,0.0051924,0.0018326,-0.0036652
-0.0011156,4.6876,4.9033,7.6296,-0.013134,0.0054978,0.026573
-0.00099736,4.668,4.9426,7.6884,-0.037874,0.0082467,0.027184
-0.00083254,4.668,5.0995,7.8061,-0.058643,0.011912,0.025656
-0.00063212,4.668,4.9426,7.708,-0.06353,0.013439,0.02138
-0.0004217,4.668,4.7072,7.6884,-0.023824,0.010385,0.015272
-0.00020923,4.8837,4.7072,7.61,-0.0042761,0.0097738,0.010079
-2.1922e-05,4.9622,4.8053,7.6884,-0.018326,0.011301,-0.011606
0.00013213,4.7856,4.9229,7.61,-0.01405,0.011301,-0.007025
0.00024473,4.8053,4.7464,7.4531,-0.019242,0.01405,-0.0097738
0.00030324,4.668,4.6287,7.5511,-0.033903,0.017715,-0.010996
0.00032348,4.8837,4.6091,7.5511,-0.049175,0.021991,-0.010079
0.00030552,4.668,4.7856,7.5511,-0.058643,0.027184,-0.012523
0.0002619,4.8837,4.7072,7.61,-0.053451,0.027184,-0.011606
0.00019768,4.7464,4.7856,7.5903,-0.035125,0.026267,-0.011606
0.0001393,4.8053,4.6287,7.5315,0.053451,0.0064141,0.039401
0.00010273,4.8837,4.6287,7.61,0.0562,0.012217,0.03879
9.3372e-05,4.9818,4.8053,7.6884,0.034819,0.015272,0.036652
0.00011982,4.8053,4.8641,7.61,-0.0048869,0.016493,0.051007
0.00018442,4.8053,4.8641,7.6884,-0.045509,0.01069,0.055894
0.00028556,4.8837,4.9229,7.6884,-0.063225,0.0027489,0.053451
0.00041583,4.6484,4.8053,7.61,-0.04948,-0.0048869,0.043982
0.00056839,4.8053,4.8053,7.61,-0.018326,-0.012217,0.038485
0.00072195,4.8053,4.8641,7.61,0.0064141,0.019242,0.021686
0.00086057,4.8053,4.7464,7.6884,0.0048869,0.024435,0.021686
0.00097095,4.7856,4.8641,7.6492,0.00061087,0.023213,0.016493
0.0010497,4.668,4.7072,7.6884,-0.00061087,0.020159,0.014966
0.0010887,4.8837,4.6287,7.61,0.0051924,0.01741,0.012523
0.0010803,4.7464,4.6876,7.6884,0.0088575,0.015577,0.013439
0.0010366,4.7464,4.7856,7.7473,0.0030543,0.016493,0.018937
0.00095578,4.8837,4.7856,7.7669,-0.0024435,0.020159,0.02138
0.00085087,4.8837,4.6484,7.7669,-0.0067195,0.022602,-0.0018326
0.00072675,4.5699,4.7072,7.7865,-0.0088575,0.021686,-0.010385
0.00060213,4.6484,4.8053,7.7865,-0.012523,0.021686,0.021991
0.00047924,4.8053,4.9426,7.7473,-0.017715,0.016493,0.023213
0.00037154,4.668,4.9229,7.6296,-0.025656,0.010996,0.020769
0.00026671,4.8053,4.8053,7.61,-0.033292,0.0079412,0.015577
0.00017655,4.7464,5.021,7.61,-0.035736,0.007025,0.010079
9.3091e-05,4.5111,5.021,7.6492,-0.035125,0.0064141,0.0048869
7.0534e-06,4.7856,4.8053,7.5511,-0.031765,0.0079412,-0.041233
-8.9781e-05,4.6876,5.021,7.5511,-0.025045,0.0079412,-0.040928
-0.00020164,4.6876,5.0014,7.6884,-0.024129,0.0076358,-0.019242
-0.00032849,4.668,4.9229,7.61,-0.029627,0.0088575,-0.026573
-0.00047503,4.7464,4.9033,7.61,-0.040623,0.0082467,-0.031765
-0.00063552,4.8053,4.766,7.61,-0.051924,0.0073304,-0.034819
-0.00080344,4.668,4.7856,7.6296,-0.0562,0.0067195,-0.037263
-0.00096817,4.8837,4.7072,7.61,-0.054672,0.007025,-0.040012
-0.0011123,4.6876,4.7464,7.6492,-0.020769,-0.0061087,0.017104
-0.0012261,4.7464,4.7072,7.6296,-0.012217,-0.0024435,0.017104
-0.0012957,4.6287,4.7072,7.7669,-0.01069,-0.0027489,0.00030543
-0.0013095,4.7464,4.5307,7.7473,-0.014966,-0.002138,0.011301
-0.0012709,4.9622,4.6484,7.6296,-0.012217,-0.0018326,0.016493
-0.0011742,4.9622,4.7072,7.7473,-0.0042761,0.0012217,0.017715
-0.0010294,4.7464,4.7856,7.7473,0.0018326,0.0073304,0.016799
-0.00084601,4.8837,4.7856,7.6492,0.0045815,0.014355,0.016188
-0.00064269,4.8837,4.8445,7.6296,-0.016493,-0.00030543,-0.0045815
-0.00044102,4.8053,4.8053,7.61,-0.020769,-0.00030543,-0.002138
-0.00026409,4.8837,5.0798,7.61,-0.026573,-0.00061087,-0.0042761
-0.00012408,4.9426,4.9426,7.6296,-0.026573,0.00061087,-0.00030543
-2.5424e-05,4.8837,4.9033,7.5903,-0.018937,0.0027489,0.0009163
2.2205e-05,4.8053,4.9229,7.6296,-0.0048869,0.0058032,-0.0009163
1.9959e-05,4.7464,4.9229,7.5511,-0.013134,0.011606,-0.0012217
-2.4502e-05,4.7856,5.021,7.5511,-0.014661,0.013439,-0.0024435
-9.4616e-05,4.9622,4.7856,7.5903,0.014966,0.013439,0.0085521
-0.00017734,4.9033,4.7464,7.5511,0.0024435,0.012523,0.0048869
-0.00024239,4.8837,4.5895,7.5315,-0.015272,0.013744,0.0015272
-0.0002771,4.8837,4.7856,7.7473,-0.030543,0.01405,0.0048869
-0.0002603,4.7464,4.8053,7.7669,-0.036346,0.013439,0.0085521
-0.00019065,4.8053,4.5895,7.6884,-0.033903,0.013439,0.0094684
-6.6338e-05,4.8053,4.7072,7.6492,0.0079412,0.014966,0.0088575
0.00011468,4.9622,4.6876,7.6884,0.016799,0.015577,0.0088575
0.00033585,4.8053,4.7856,7.6884,-0.035736,0.020464,-0.029932
0.00058625,4.7464,4.8445,7.61,-0.041844,0.014355,-0.03207
0.00083301,4.6484,4.9229,7.7473,-0.039401,0.010079,-0.0079412
0.0010567,4.8837,4.7464,7.61,-0.028711,0.0067195,-0.013439
0.0012425,4.668,4.9033,7.6492,-0.016493,0.0030543,-0.019853
0.00137,4.8053,4.9229,7.61,-0.011301,0.00030543,-0.021075
0.00144,4.8053,5.0014,7.61,-0.014966,-0.0009163,-0.020464
0.0014443,4.8053,4.9033,7.61,-0.023518,-0.002138,-0.024435
0.0013951,4.8053,4.8641,7.61,-0.050396,-0.0042761,-0.012523
0.001298,4.7464,4.8641,7.61,-0.05284,-0.00061087,-0.009163
0.0011719,4.7856,4.9229,7.6296,-0.047342,-0.002138,-0.033903
0.0010414,4.8053,4.7856,7.6492,-0.039095,-0.0033598,-0.032681
0.00091639,4.8053,4.9229,7.6884,-0.028711,0.00030543,-0.0281
0.00081979,4.7464,4.7856,7.5903,-0.018631,0.0018326,-0.023824
0.00076088,4.8837,4.7856,7.61,-0.032987,0.00061087,-0.021075
0.00072347,4.8837,4.6287,7.4923,-0.042761,0.0009163,-0.015577
0.00070847,4.7464,4.7856,7.6296,-0.021991,0.010385,-0.0033598
0.00070929,4.8053,4.8445,7.7865,-0.033598,0.010385,-0.0054978
0.00069969,4.8837,4.7856,7.61,-0.042455,0.01069,0.010079
0.00066945,4.9426,4.8445,7.6296,-0.048564,0.010079,0.0051924
0.0005971,4.9426,4.8053,7.6492,-0.053145,0.0094684,0.0012217
0.00046463,4.8837,4.9622,7.7473,-0.052534,0.0085521,-0.00061087
0.00027116,4.7856,4.9229,7.6492,-0.047037,0.0097738,-0.0027489
1.2702e-05,4.8837,4.6484,7.6296,-0.038179,0.012523,-0.0033598
-0.00029804,4.8837,4.9033,7.6492,-0.044593,0.0042761,0.016493
-0.00064508,4.6484,4.9229,7.7865,-0.033292,0.0033598,0.013439
-0.0010078,4.8837,4.9229,7.6884,-0.013744,0.0051924,0.0039706
-0.0013529,4.668,4.9229,7.6492,0.00030543,0.0076358,0.010385
-0.0016581,4.8053,4.8445,7.6492,0.0048869,0.0073304,0.016493
-0.0018928,4.668,4.9229,7.6296,-0.0012217,0.0085521,0.020159
-0.0020412,4.7464,4.9229,7.5903,-0.012523,0.007025,0.019242
-0.002086,4.8053,4.9622,7.6492,-0.027794,0.0033598,0.018631
-0.0020334,4.7268,4.8641,7.5511,-0.040012,-0.00030543,0.022907
-0.0018871,4.6287,4.7856,7.61,-0.042761,-0.0067195,0.022907
-0.0016704,4.7856,4.8445,7.61,-0.037263,-0.0061087,0.0085521
-0.001397,4.8053,4.766,7.5511,-0.025351,0.00030543,0.0064141
-0.0010952,4.7464,4.8445,7.6296,-0.011301,0.0058032,0.0094684
-0.00079773,4.6876,4.7856,7.6296,-0.00030543,0.011301,0.015272
-0.00052962,4.6484,4.7856,7.6296,0.0036652,0.018937,0.019548
-0.00030492,4.668,4.7464,7.6296,-0.0054978,0.023213,0.021075
-0.00013464,4.8837,4.7464,7.6492,-0.019853,0.025962,0.010385
-1.9868e-05,4.7464,4.8445,7.5903,-0.035125,0.02474,0.012523
4.8575e-05,4.8053,4.7072,7.61,-0.046731,0.019242,0.020769
7.9702e-05,4.8837,4.7856,7.5511,-0.050702,0.013439,0.016493
8.9715e-05,4.9426,4.7856,7.6492,-0.047647,0.012217,0.013134
9.7399e-05,4.668,4.7856,7.4923,-0.041844,0.011301,0.0082467
0.00012305,4.8837,4.8053,7.6884,-0.032681,0.010079,0.0076358
0.00017804,4.5699,4.9033,7.708,-0.021075,0.01069,0.0085521
0.00027238,4.5699,4.9229,7.5511,-0.010385,0.32742,-0.36805
0.00039515,4.8053,4.7856,7.61,-0.24771,0.35491,-0.37751
0.00054202,4.668,4.766,7.5511,-0.25809,0.3821,-0.24099
0.00070656,4.8837,4.9033,7.61,-0.23885,0.40897,-0.26237
0.00085444,4.5307,4.9229,7.6884,-0.19731,0.43341,-0.281
0.00099155,4.8053,4.8445,7.6492,-0.14111,0.45754,-0.30971
0.0010865,4.7856,4.8053,7.7473,-0.079107,0.48381,-0.33659
0.0011221,4.8053,4.9033,7.6492,-0.025351,0.50977,-0.35461
0.0010989,4.668,4.9033,7.5903,-0.017715,0.065973,-0.053756
0.0010225,4.5699,4.8641,7.6492,-0.040317,0.061697,-0.062308
0.00090051,4.8445,4.7856,7.5315,-0.054062,0.065057,-0.026573
0.00073791,4.9622,4.7072,7.4531,-0.055283,0.069944,-0.029322
0.00056749,4.668,4.6287,7.6884,-0.042761,0.074526,-0.033598
0.00040324,4.7464,4.7856,7.61,-0.02138,0.079412,-0.037874
0.00026235,4.6484,4.9229,7.6296,0.0018326,0.085521,-0.041233
0.00016525,4.7464,4.8445,7.61,0.015577,0.093768,-0.04612
0.00011048,4.6287,4.6876,7.4531,-0.025045,0.10293,-0.13958
0.00010879,4.8837,4.5307,7.5903,-0.059865,0.11179,-0.1463
0.00014433,4.6287,4.6484,7.4531,-0.079107,0.12095,-0.069028
0.00020172,4.8053,4.8053,7.4923,-0.075442,0.13073,-0.076664
0.00027434,4.6287,4.8445,7.5511,-0.054978,0.13714,-0.088881
0.00033074,4.668,4.7072,7.6492,-0.024435,0.14325,-0.10507
0.00036407,4.668,4.4718,7.5315,0.01741,0.14905,-0.11851
0.00035813,4.3149,4.5895,7.4923,0.0048869,0.15272,-0.13011
0.00030395,4.5307,4.6484,7.3746,0.010079,0.15699,-0.19548
0.00020925,4.6287,4.4718,7.2373,-0.011606,0.16646,-0.21625
7.5124e-05,4.5699,4.6484,7.3354,-0.045204,0.17746,-0.15149
-7.8141e-05,4.5111,4.5503,7.3158,-0.090103,0.19364,-0.15821
-0.00023083,4.1972,4.2953,7.2373,-0.14569,0.21747,-0.16799
-0.00036321,4.1972,4.0796,7.3158,-0.20067,0.24465,-0.17379
-0.00044682,4.2561,3.9815,7.2765,0.0039706,0.27214,-0.17685
-0.00047258,4.1776,4.158,7.3942,0.014966,0.29902,-0.18265
-0.00043453,3.7854,4.6287,7.8649,-0.30849,0.59376,-0.38637
-0.00033895,3.6481,4.8053,8.1787,-0.52229,0.59682,-0.36682
-0.00018466,3.5696,4.5307,8.0807,-0.62797,0.58948,-0.41508
6.4218e-06,3.4912,4.3149,7.9042,-0.59895,0.58368,-0.41692
0.00020728,3.5304,4.6287,7.8649,-0.45662,0.58063,-0.4163
0.00038844,3.1774,5.1583,8.3357,-0.24862,0.58765,-0.42333
0.00052248,3.1774,5.7075,8.6299,-0.033598,0.60476,-0.4215
0.00058954,3.0008,5.7467,8.9044,0.12767,0.62736,-0.40714
0.00058234,2.8635,5.4329,8.4926,0.18601,0.64416,-0.39767
0.00050059,2.9616,4.8053,8.1787,0.13408,0.65149,-0.38026
0.00034446,3.0793,4.6287,7.9238,-0.012828,0.65301,-0.35552
0.00013822,2.8635,5.0798,8.2768,-0.2022,0.65301,-0.35797
-9.0916e-05,2.6282,5.9428,8.7279,-0.34514,0.64507,-0.38454
-0.00030473,2.1575,6.1782,8.9437,-0.40103,0.6295,-0.40836
-0.00047825,2.2948,5.3937,8.4141,-0.37049,0.60567,-0.41447
-0.00057953,2.2948,4.3934,7.9434,-0.27917,0.58215,-0.40928
-0.0005927,2.2359,4.0011,7.8649,-0.18204,0.56749,-0.34178
-0.00052575,2.0202,4.4326,8.2768,-0.11057,0.5565,-0.35308
-0.00039463,1.9221,5.1191,8.8652,-0.071777,0.54825,-0.36011
-0.00021694,1.4906,5.3348,9.1594,-0.063835,0.53909,-0.34606
-2.2941e-05,1.3533,4.9229,8.8652,-0.072693,0.53267,-0.33903
0.0001305,1.118,4.5895,8.4926,-0.084299,0.53329,-0.33475
0.0002134,1.3925,4.6287,8.8064,-0.09163,0.53512,-0.33323
0.00017009,1.3533,4.9622,9.0025,-0.08827,0.53359,-0.33689
-3.1255e-05,1.1964,5.0798,8.9437,-0.06017,0.52993,-0.38943
-0.00041987,1.3337,4.9622,8.9437,-0.011606,0.53145,-0.39187
-0.00098194,1.118,4.7856,8.8064,0.044593,0.54245,-0.36774
-0.0016934,1.0787,4.5895,8.4141,0.095906,0.55833,-0.37965
-0.0025128,1.0395,4.6876,8.3749,0.12126,0.58124,-0.39248
-0.0033829,0.86299,5.1583,8.6887,0.096211,0.60995,-0.40561
-0.0042487,0.33343,5.6486,9.0417,0.013439,0.63286,-0.40073
-0.0050258,0.17652,5.531,9.0025,-0.12217,0.6524,-0.39095
-0.0056429,0.25497,4.766,8.7475,-0.024435,0.41692,-0.040623
-0.0060409,0.078453,4.2953,8.6495,-0.036957,0.40317,-0.021075
-0.0061677,-0.13729,4.4326,9.0221,-0.026573,0.39279,-0.11179
-0.0060081,-0.17652,4.9033,9.2771,-0.013744,0.38332,-0.11148
-0.0055552,-0.39227,5.0995,9.2183,-0.0054978,0.36805,-0.10599
-0.0048423,-0.35304,5.0798,9.179,-0.0036652,0.343,-0.090408
-0.0039167,-0.43149,5.2171,9.0417,0.062003,0.30604,-0.07025
-0.0028296,-0.50995,5.0995,8.8848,0.014661,0.25229,-0.051924
-0.0016597,-0.37265,4.9229,8.8064,-0.014355,0.18662,0.0030543
-0.00046354,-0.50995,5.1191,8.7083,-0.025045,0.12065,0.0039706
0.00070356,-0.64724,5.2564,8.8064,-0.0061087,0.057727,0.012828
0.0017745,-0.70608,5.3348,8.8652,0.033292,0.0042761,0.028711
0.0027204,-0.68647,5.1583,8.7475,0.076664,-0.031154,0.024129
0.003521,-1.0003,4.9229,8.6299,0.11637,-0.044899,0.014355
0.0041815,-0.82376,4.8445,8.4141,0.0064141,-0.041233,0.01069
0.0047086,-1.3337,5.0995,8.7475,0.0058032,-0.025351,0.0079412
0.005124,-1.4318,5.3348,8.8848,0.1573,0,-0.07422
0.0054589,-1.3337,5.374,8.8652,0.14386,0.034819,-0.076969
0.005732,-1.3141,5.0995,8.8064,0.14203,0.074831,0.0009163
0.0059703,-1.3925,5.0995,9.0417,0.16188,0.1127,-0.013744
0.0061747,-1.7652,5.2368,9.5713,0.19426,0.14752,-0.031765
0.0063528,-1.7064,5.4721,9.9439,0.23915,0.17776,-0.048869
0.006494,-1.5298,5.3348,9.9047,0.146,0.19792,-0.063835
0.0065744,-1.471,4.9622,9.434,0.16127,0.20067,-0.071777
0.0065631,-1.0003,4.7072,8.4926,-0.037263,0.42822,-0.12462
0.0064322,-0.98067,4.5307,7.9042,-0.049175,0.43402,-0.11606
0.0061552,-1.1572,4.7072,7.5315,-0.022297,0.43524,-0.21594
0.0057277,-1.1572,4.7856,7.6884,0.03207,0.43341,-0.20036
0.0051416,-1.3925,4.7268,7.7473,0.085521,0.43494,-0.18815
0.0044211,-1.6279,4.8445,8.2376,0.12034,0.43738,-0.17532
0.0035915,-1.7848,4.8445,8.4141,0.12553,0.43402,-0.15547
0.0026877,-1.7652,4.7464,8.4141,0.10232,0.4273,-0.13714
0.0017577,-1.9417,4.9229,8.4141,-0.041539,0.0281,-0.039095
0.00088086,-2.1575,5.2171,8.5318,-0.007025,0.022297,-0.040317
0.00010159,-1.8437,5.6486,8.4926,0.014966,0.021075,-0.020464
-0.00056553,-1.5887,6.0213,8.5514,0.015577,0.02474,-0.023824
-0.0011005,-1.6083,6.6489,8.8652,0.014661,0.029322,-0.022602
-0.0015005,-1.471,6.9627,8.5318,0.016493,0.034208,-0.02138
-0.0017801,-1.3925,6.7274,8.218,0.018631,0.033292,-0.027184
-0.0019689,-1.6083,6.1978,8.1199,0.016799,0.03146,-0.034514
-0.0021066,-1.3925,5.7859,7.963,0.01741,0.027794,-0.0045815
-0.0022376,-1.7456,5.5506,8.0022,0.024435,0.023824,-0.0039706
-0.0024037,-1.6083,5.374,7.9434,0.037263,0.020159,-0.039095
-0.0026378,-1.7064,5.2368,8.1199,0.044288,0.021075,-0.035736
-0.0029584,-1.6083,5.2171,8.4141,0.039401,0.01741,-0.028405
-0.0033663,-1.6083,5.276,8.5514,0.018021,0.01069,-0.019548
-0.0038437,-1.6083,5.3937,8.4926,-0.01405,0.010996,-0.013439
-0.0043557,-1.6475,5.5506,8.1787,-0.044593,0.017715,-0.0079412
-0.0048552,-1.5298,5.7075,8.1003,-0.14966,0.069028,-0.0027489
-0.0052887,-1.5298,5.7271,8.0807,-0.10751,0.062919,-0.00061087
-0.0056042,-1.7652,5.7859,8.1787,-0.069333,0.052534,-0.0076358
-0.0057591,-1.6867,5.5702,8.0807,-0.027794,0.043677,-0.016188
-0.0057267,-1.7652,5.5702,7.9434,0.0088575,0.03879,-0.010996
-0.0055014,-1.6279,5.4721,8.1591,0.029932,0.034208,0.0042761
-0.0051006,-1.7848,5.5506,8.1787,0.047647,0.020769,0.0079412
-0.0045646,-1.5495,5.5506,8.1787,0.063835,0.007025,-0.00030543
-0.0039518,-1.5887,5.5506,8.1591,0.077274,-0.0009163,-0.015882
-0.0033325,-1.5887,5.6486,8.2572,0.087659,0.0009163,-0.019242
-0.0027802,-1.6867,5.884,8.2376,0.087354,0.0067195,0.0048869
-0.0023617,-1.7064,5.9428,8.316,0.07086,0.0097738,0.0067195
-0.0021198,-1.7064,5.884,8.1003,0.033903,0.013134,0.0058032
-0.0020813,-1.9613,5.7859,8.1199,-0.01069,0.021075,-0.00030543
-0.002249,-1.7848,5.7075,7.9434,-0.044899,0.028405,-0.010385
-0.0025974,-1.8044,5.5506,7.963,-0.057421,0.030543,-0.013439
-0.0030702,-1.7064,5.4721,8.0807,-0.035125,0.026878,-0.0085521
-0.0035813,-1.7848,5.5506,8.2572,-0.025351,0.028711,-0.0067195
-0.0040413,-1.8044,5.5506,8.1199,-0.011606,0.022907,-0.015577
-0.0043448,-1.8437,5.6486,8.218,0.0036652,0.019853,-0.011301
-0.0044009,-1.9417,5.7075,8.2376,0.0030543,0.020769,-0.010996
-0.0041321,-1.6475,5.884,8.0807,-0.0064141,0.021991,-0.011606
-0.0034897,-1.7652,5.8644,8.0807,-0.027489,0.023213,-0.0088575
-0.0024635,-1.8044,5.7075,8.0807,-0.037263,0.022297,-0.0076358
-0.0010747,-1.7456,5.5506,8.0807,0.0012217,0.016799,-0.0039706
0.00061869,-1.7848,5.5702,8.0807,0.0030543,0.012217,-0.0058032
0.0025232,-1.8437,5.7075,8.0807,-0.0009163,0.010996,-0.0061087
0.0045307,-2.0986,5.7075,8.1199,-0.0033598,0.012217,-0.0058032
0.006525,-1.8437,5.7075,8.0807,-0.0061087,0.016188,-0.0045815
0.0083683,-1.7064,5.7075,7.9434,-0.0067195,0.018631,-0.0018326
0.0099745,-1.7652,5.7075,8.0807,-0.01069,0.023213,0
0.011223,-1.6475,5.8055,8.1787,-0.0085521,0.027489,-0.00061087
0.012081,-1.6475,5.7271,8.316,-0.0281,0.029322,-0.0058032
0.012516,-1.6083,5.531,8.1003,-0.020159,0.032987,-0.0082467
0.012534,-1.8437,5.5898,8.0807,-0.0085521,0.031765,-0.012523
0.012174,-1.8437,5.6486,8.0807,-0.0076358,0.028405,-0.01069
0.011502,-1.8437,5.7467,7.9434,-0.013744,0.021075,-0.007025
0.010593,-1.6475,5.8644,8.0807,-0.009163,0.013439,-0.0061087
0.0095433,-1.9417,5.9036,8.0807,0.011606,0.0085521,-0.0097738
0.0084339,-1.7652,5.8055,7.963,0.034208,0.0048869,-0.007025
0.0073407,-1.7064,5.7075,8.0611,0.065363,0.0064141,-0.018937
0.0063137,-1.9417,5.6879,8.1003,0.060476,0.0027489,-0.016188
0.005395,-1.7652,5.7271,8.1787,0.046426,0.0061087,-0.015882
0.0045891,-1.9417,5.6486,8.1787,0.030849,0.014661,-0.021991
0.0038905,-1.7848,5.7075,8.0022,0.013134,0.018937,-0.024129
0.0032796,-1.7064,5.7859,8.0807,-0.0085521,0.021075,-0.023518
0.0027151,-1.7652,5.8448,8.0022,0.049175,0.02474,-0.025962
0.0021623,-1.8437,5.7859,8.0022,0.058338,0.027489,-0.026267
0.0015867,-1.7064,5.7859,8.0807,0.0027489,0.020464,-0.0012217
0.00094399,-2.0202,5.7859,8.2572,-0.022297,0.024129,0.00030543
0.00022693,-1.6279,5.6879,8.0807,-0.031765,0.02138,-0.0061087
-0.00056914,-1.6083,5.7075,8.0022,-0.031154,0.017104,-0.0061087
-0.001439,-1.7064,5.6486,8.0218,-0.024435,0.017104,-0.0039706
-0.0023639,-1.7652,5.7859,8.0022,-0.012523,0.018631,-0.0033598
-0.0033182,-1.7652,5.7859,8.0218,-0.007025,0.019242,-0.0039706
-0.0042727,-1.8437,5.884,7.9238,-0.0097738,0.017715,0.00061087
-0.0051981,-1.7456,5.7271,8.0218,-0.0076358,0.028405,-0.0058032
-0.0060752,-1.9025,5.7859,8.0022,-0.024129,0.033903,-0.0088575
-0.0068812,-1.7652,5.884,8.0611,-0.039095,0.026878,-0.0048869
-0.0076037,-1.7652,5.884,7.9434,-0.047647,0.018937,-0.0039706
-0.0082428,-1.6475,5.884,8.0022,-0.044288,0.016799,-0.0045815
-0.0088009,-1.7456,5.884,8.0022,-0.029016,0.015577,-0.0015272
-0.0092773,-1.7456,5.9036,8.0807,-0.0076358,0.014355,-0.0030543
-0.0096744,-1.9417,5.8448,8.1787,0.0085521,0.012828,-0.0067195
-0.0099976,-2.0986,5.7859,8.1003,0.01405,0.011606,0
-0.010246,-1.9221,5.7467,7.9238,0.011301,0.0082467,0.0030543
-0.010404,-1.6867,5.7859,7.9434,0.0082467,0.011301,-0.014355
-0.010463,-1.7456,5.9036,7.9434,0.011606,0.016799,-0.01405
-0.01041,-1.9025,5.9428,7.9238,0.0097738,0.021991,-0.014661
-0.010224,-1.8044,5.9036,8.0611,-0.0061087,0.025656,-0.012523
-0.0098891,-1.9417,5.8644,8.0611,-0.023518,0.02474,-0.0051924
-0.009401,-1.7064,5.629,7.9434,-0.033292,0.023518,-0.0015272
-0.008755,-1.8437,5.8448,8.0022,-0.036041,0.02138,-0.0033598
-0.0079678,-1.7652,6.0017,7.9434,-0.032987,0.017715,-0.0051924
-0.0070479,-1.7652,6.0213,7.9434,-0.020159,0.012217,0.0064141
-0.0060342,-1.9221,5.9428,7.9434,0.0015272,0.010079,0.0076358
-0.0049523,-1.9417,5.8644,8.0807,0.022297,0.0082467,0.002138
-0.0038418,-1.7652,5.884,8.0022,0.033598,0.0079412,-0.0018326
-0.0027428,-1.7652,5.9624,8.0022,0.03543,0.012828,-0.0042761
-0.0016882,-1.7064,5.9428,7.963,0.025045,0.017104,-0.0039706
-0.00069257,-1.7848,5.9624,7.9434,-0.0048869,0.014661,-0.010079
0.00021987,-1.7456,5.8644,7.963,-0.0024435,0.012217,-0.013439
0.0010541,-1.7652,5.8644,8.0022,0.0033598,0.015882,0.0039706
0.0018213,-1.7064,5.8644,8.0022,0.0076358,0.016799,0.002138
0.0025349,-1.8437,5.884,8.0611,0.007025,0.014966,-0.00061087
0.0032321,-1.9025,5.8644,7.9042,-0.00061087,0.014661,-0.0030543
0.003924,-1.9025,5.8644,7.963,-0.0085521,0.017104,-0.0061087
0.0046447,-1.9613,5.9624,8.0022,-0.0094684,0.019242,-0.0058032
0.0053997,-1.8044,5.9624,7.9238,0,0.019242,-0.0018326
0.0062009,-1.9221,5.884,7.9434,-0.0012217,0.019242,-0.0033598
0.0070351,-1.7064,5.7859,8.0807,-0.0045815,0.016493,-0.0097738
0.0078912,-2.0594,5.884,8.0807,-0.0051924,0.015882,-0.0061087
0.0087401,-1.9613,5.9036,8.0807,-0.0027489,0.015577,-0.0058032
0.0095438,-1.8633,5.9036,7.8649,-0.0018326,0.013134,-0.0051924
0.010278,-1.7652,5.9624,7.9042,-0.0045815,0.013134,-0.0030543
0.0109,-1.9417,5.9624,7.963,0.00030543,0.013439,-0.00061087
0.011388,-1.7064,5.884,8.0218,-0.015577,0.013439,0.00061087
0.011721,-1.9613,5.9036,7.9238,-0.021686,0.012523,-0.0012217
0.011897,-1.7652,5.884,7.9434,-0.023213,0.013744,-0.0027489
0.011927,-1.7848,5.884,7.9042,-0.019548,0.015577,-0.0042761
0.011813,-1.8437,5.9036,7.9434,-0.012523,0.012828,-0.0036652
0.011586,-1.7652,6.0213,7.9434,-0.0045815,0.010385,-0.00061087
0.011274,-1.9417,5.9624,8.0218,-0.0024435,0.011912,0.002138
0.010893,-1.7848,5.9428,7.963,-0.007025,0.014355,0.0039706
0.01047,-1.7456,5.884,8.0022,-0.015272,0.014355,0.00030543
0.010007,-1.7456,5.884,7.963,-0.014355,0.015272,0.002138
0.0095005,-1.7456,5.884,7.9238,-0.0076358,0.017104,0.0012217
0.0089385,-1.9417,5.9428,7.9238,0.0009163,0.019853,0.0027489
0.0083045,-1.7652,5.884,7.9434,0.010996,0.022297,-0.0009163
0.0075664,-1.9221,6.0017,7.9434,0.018937,0.021075,-0.0030543
0.0067092,-1.7456,6.0213,7.9434,-0.0051924,0.018326,-0.0012217
0.0057034,-1.7652,5.884,7.9238,-0.010996,0.018326,-0.0012217
0.0045351,-1.8437,5.884,7.9238,0.0036652,0.015272,0.0054978
0.0032051,-1.9417,5.7271,7.963,0.010079,0.01741,0.0054978
0.0017209,-1.7652,5.9624,7.9238,0.0033598,0.019853,-0.0018326
0.00011936,-1.9417,6.0017,7.9238,-0.0061087,0.018326,-0.0012217
-0.0015603,-1.8437,6.0605,7.9238,-0.010385,0.015272,0.0012217
-0.0032744,-1.7652,6.0213,8.0022,-0.011606,0.012828,-0.0015272
-0.0049701,-2.0202,5.884,7.963,-0.01069,0.01069,-0.0027489
-0.0065976,-1.9613,5.884,7.8061,-0.0094684,0.011912,0
-0.0081227,-1.9221,5.884,7.7865,-0.011606,0.014661,-0.0033598
-0.0095087,-1.7652,6.0409,8.0611,-0.017715,0.018326,-0.0012217
-0.010736,-1.8044,6.0409,7.8845,-0.020464,0.020159,0.0027489
-0.011816,-1.7848,6.0213,7.9238,-0.018021,0.01741,0.0045815
-0.012739,-1.7652,5.9036,7.9042,-0.012523,0.016799,0.0042761
-0.013533,-1.7848,6.0017,7.9434,-0.010385,0.019548,0.0024435
-0.014222,-1.8437,5.9624,7.9238,-0.012217,0.018937,0.0012217
-0.014817,-1.9417,6.0017,7.963,-0.011912,0.015577,-0.002138
-0.015339,-1.7848,6.0997,8.0022,0.002138,0.014355,-0.0030543
-0.015785,-1.8437,5.9624,7.8649,0.014355,0.011301,-0.002138
-0.01615,-1.7652,6.0213,7.9238,0.01405,0.010385,-0.00061087
-0.016404,-1.9221,6.0017,7.7473,0.012828,0.010996,-0.0024435
-0.016519,-2.0202,6.0017,7.9434,0.016188,0.014966,-0.0009163
-0.016457,-1.9221,6.0017,7.9434,0.022907,0.013744,-0.0027489
-0.016179,-1.9025,6.0213,8.0022,0.022907,0.013134,-0.0085521
-0.015657,-1.7652,6.0213,7.9042,0.01405,0.012828,-0.0061087
-0.014859,-1.9417,6.0213,7.8649,-0.02138,0.012828,-0.0048869
-0.013799,-2.079,6.0213,7.963,0.0009163,0.016188,-0.0012217
-0.012483,-1.9025,5.9624,7.8649,-0.0073304,0.015577,-0.0045815
-0.010961,-1.9417,6.0213,7.7865,-0.010385,0.015577,-0.0054978
-0.0092801,-1.7848,6.0213,7.8061,-0.016493,0.017715,-0.0012217
-0.0075053,-1.7652,6.0017,7.9434,-0.024129,0.017104,-0.0012217
-0.0057071,-1.7848,6.0409,7.9434,-0.025351,0.015577,-0.0033598
-0.0039464,-1.8044,6.0997,7.9042,-0.023824,0.014966,-0.0051924
-0.0022676,-1.7652,5.9624,7.9434,-0.014355,0.01405,0.0018326
-0.00071724,-1.7652,6.0409,7.8649,-0.012217,0.015577,0.00061087
0.00070328,-1.8633,6.0409,7.8649,-0.014661,0.013744,0.002138
0.0020155,-1.9025,6.0017,7.8061,-0.018326,0.010996,0.0018326
0.0032474,-1.9417,6.0017,7.8649,-0.019242,0.0085521,0.0018326
0.004447,-1.7652,6.0409,7.9434,-0.01741,0.0067195,0.0015272
0.0056711,-2.0986,6.1586,7.963,-0.022602,0.0058032,0.0027489
0.0069633,-1.9613,6.0213,7.963,-0.018021,0.0064141,0.0045815
0.0083569,-1.7456,5.8644,7.8649,-0.012828,0.0048869,-0.00030543
0.0098697,-1.8437,6.0213,7.9042,-0.0088575,0.0048869,0.00030543
0.011491,-1.9417,6.0213,7.8649,-0.0076358,0.0085521,0.0027489
0.013185,-1.8437,6.0213,7.8649,-0.0054978,0.01069,0.0039706
0.014882,-1.7652,6.0213,7.9042,-0.0073304,0.011301,0.0027489
0.016506,-1.9221,6.0997,7.9434,-0.015882,0.012217,0.0024435
0.017972,-1.8044,6.1586,7.9434,-0.015272,0.015272,0
0.019198,-2.0986,6.1586,8.0022,-0.015882,0.016493,-0.0009163
0.020108,-1.9221,5.9624,7.9434,-0.020769,0.016799,-0.0030543
0.020668,-2.0202,6.0213,7.8649,-0.020159,0.01741,-0.00030543
0.020863,-1.8633,5.9624,7.8649,-0.018326,0.016493,-0.00061087
0.020718,-1.8437,6.0213,7.9434,-0.012523,0.015272,-0.0024435
0.020286,-1.8044,6.0997,7.9238,-0.0058032,0.010996,-0.0033598
0.019637,-1.7456,6.0997,7.963,-0.0073304,0.01069,-0.0033598
0.01887,-1.7848,6.0017,7.8649,-0.019242,0.013134,-0.0045815
0.018063,-1.7652,6.0017,7.9238,-0.019242,0.017104,-0.0067195
0.017293,-2.0594,6.0213,7.9238,-0.0088575,0.016188,-0.0045815
0.0166,-1.9417,6.0213,7.7669,-0.0042761,0.011301,-0.0027489
0.015984,-1.8437,6.1782,7.8649,-0.0079412,0.012217,-0.0048869
0.015415,-1.9221,6.1193,7.8649,-0.016493,0.012217,-0.007025
0.014825,-1.7652,6.0213,7.9042,-0.02474,0.013134,-0.01069
0.014116,-1.8044,6.0213,7.8061,-0.028405,0.014966,-0.0082467
0.01317,-1.8044,6.0213,7.8649,-0.0281,0.014966,-0.0054978
0.011884,-1.9221,6.0997,7.8649,-0.025045,0.015882,-0.0054978
0.010169,-1.7652,6.0997,7.8649,-0.0064141,0.013744,-0.002138
0.0079804,-2.2359,6.1586,8.0022,-0.0085521,0.013134,-0.0027489
0.005326,-1.9221,6.0213,7.6884,-0.01405,0.013439,-0.012217
0.0022653,-1.7652,6.0409,7.9238,-0.023824,0.012828,-0.010079
-0.0010698,-1.9417,6.0213,7.7473,-0.032681,0.013744,-0.0058032
-0.0045438,-1.7848,6.0017,7.8649,-0.038179,0.013744,-0.0039706
-0.0079497,-1.8044,6.0213,7.8649,-0.038485,0.01405,-0.0024435
-0.011109,-1.8633,6.0409,7.8649,-0.034819,0.012828,-0.0018326
-0.013854,-1.7848,6.1782,7.8649,-0.029322,0.0097738,-0.01405
-0.016068,-1.7848,6.0409,7.9434,-0.018631,0.0064141,-0.01405
-0.017708,-1.9025,6.0605,7.7865,-0.01069,0.0058032,-0.0051924
-0.018802,-2.0986,6.0605,7.9434,-0.014661,0.0097738,-0.0067195
-0.019473,-1.7848,6.0605,7.8453,-0.022602,0.015272,-0.0085521
-0.019898,-2.0202,6.0997,7.9238,-0.025045,0.016493,-0.0076358
-0.020324,-1.9417,6.0213,7.7865,-0.021075,0.015577,-0.007025
-0.021,-1.7652,5.9624,7.8649,-0.011912,0.012523,-0.011301
-0.022176,-1.9417,6.1193,7.6884,-0.010079,0.016799,-0.010385
-0.024031,-1.8044,6.1586,7.8649,-0.013134,0.013744,-0.010079
-0.026665,-1.9417,6.0997,7.8061,-0.019242,0.015577,-0.0097738
-0.030053,-1.9221,5.9624,7.7865,-0.02138,0.016493,-0.0079412
-0.034047,-1.8437,6.0997,7.8453,-0.015882,0.015272,-0.0088575
-0.03837,-1.9417,6.0605,7.7865,-0.010079,0.013134,-0.011912
-0.042625,-1.8437,6.1782,7.7865,-0.0076358,0.012523,-0.011301
-0.046356,-1.9417,6.0605,7.708,-0.0076358,0.012523,-0.0097738
-0.049059,-1.7848,6.0997,7.8453,-0.0085521,0.01405,-0.011301
-0.050256,-1.9417,6.0997,7.8649,-0.012217,0.016493,-0.010996
-0.04955,-1.7848,5.9624,7.7669,-0.018631,0.016188,-0.01069
-0.046671,-1.7848,6.0997,7.8649,-0.021686,0.014966,-0.011301
-0.041507,-2.079,6.1782,7.9434,-0.019242,0.014966,-0.010385
-0.034142,-1.8437,5.9624,7.8649,-0.012828,0.01405,-0.010996
-0.024843,-1.8044,6.0409,7.9042,-0.0073304,0.01405,-0.013134
-0.014078,-1.9417,6.0409,7.7865,-0.0064141,0.014355,-0.013744
-0.002427,-1.8437,6.1586,7.8061,-0.012828,0.014355,0.0036652
0.0094302,-1.8044,6.0409,7.8061,-0.0024435,0.011301,0.0033598
0.020796,-1.9417,6.0213,7.7865,-0.0009163,0.010996,0.0024435
0.031014,-1.9417,6.0213,7.8061,-0.0058032,0.011606,0
0.039544,-1.9025,6.0409,7.9042,-0.014355,0.01069,0.0009163
0.045999,-1.7848,6.0997,7.9434,-0.022602,0.011912,0.0033598
0.050186,-2.0202,6.0997,7.9434,-0.023518,0.013744,0.0061087
0.052117,-1.9417,6.0213,7.8649,-0.020464,0.013439,0.0054978
0.052009,-1.7848,6.0605,7.9042,-0.025962,0.011912,-0.0015272
0.050245,-2.0006,6.0997,7.9042,-0.029932,0.012217,-0.0039706
0.047312,-2.1182,6.1782,7.9434,-0.031154,0.013439,-0.0048869
0.043775,-1.8633,6.0409,7.7669,-0.032987,0.012828,-0.0039706
0.040172,-1.9417,6.0997,7.7865,-0.025962,0.014355,-0.0045815
0.036978,-1.8044,5.884,7.7865,-0.019242,0.014355,-0.0048869
0.034544,-1.8437,6.0409,7.9042,-0.014661,0.015272,-0.0036652
0.033066,-2.0202,6.1586,7.9434,-0.011606,0.016493,-0.0018326
0.032562,-1.9417,6.0997,7.6492,-0.015272,0.015882,-0.0067195
0.032891,-2.1575,6.1782,7.8061,-0.014966,0.014966,-0.0048869
0.033761,-2.0006,6.0605,7.9238,-0.016188,0.013744,-0.0061087
0.034802,-1.8437,6.0213,7.7865,-0.020159,0.015882,-0.0079412
0.035589,-1.8437,6.1586,7.8649,-0.021991,0.015882,-0.0054978
0.035718,-2.0202,6.0997,7.8649,-0.018021,0.015272,-0.0039706
0.034853,-1.8437,6.0213,7.7865,-0.013744,0.018631,-0.0058032
0.032765,-1.7848,6.0605,7.8649,-0.013744,0.020464,-0.0079412
0.029369,-1.9417,6.0213,7.7865,-0.022297,0.017104,-0.0009163
0.024719,-1.7848,6.0213,7.8649,-0.022907,0.018326,0.0024435
0.018992,-2.1575,6.0997,7.9434,-0.022297,0.019853,-0.0051924
0.012479,-1.9417,6.0997,7.7865,-0.022602,0.018021,-0.0045815
0.0055319,-1.9417,6.1782,7.7865,-0.024435,0.016188,-0.0042761
-0.0014866,-1.7652,6.0605,7.7865,-0.025962,0.015272,-0.0018326
-0.008252,-2.0006,6.0409,7.7669,-0.01405,0.015272,0
-0.014495,-1.7848,6.0213,7.8453,-0.017715,0.015577,-0.00030543
-0.020056,-1.8437,6.0997,7.7865,-0.025045,0.01405,-0.0027489
-0.024889,-2.2359,6.1586,7.963,-0.026878,0.011606,-0.0036652
-0.029033,-1.7652,6.1586,7.7865,-0.027794,0.014966,-0.0015272
-0.032615,-2.0594,6.1586,7.9238,-0.022297,0.016799,-0.0033598
-0.035799,-2.0202,6.0213,7.7865,-0.013744,0.015577,-0.0048869
-0.03876,-1.8437,6.0409,7.7669,-0.0097738,0.013439,-0.0048869
-0.041642,-1.7652,6.139,7.9434,-0.0061087,0.011606,-0.0036652
-0.044504,-1.8044,6.1586,7.8061,-0.0045815,0.011912,-0.0027489
-0.047308,-1.9025,6.1586,7.7865,-0.033598,0.0097738,0.0045815
-0.049926,-1.9417,6.1782,7.7669,-0.025656,0.0067195,0.0024435
-0.052144,-1.7848,6.0997,7.8453,-0.016799,0.0082467,0.0051924
-0.053658,-1.7652,6.0605,7.9042,-0.013744,0.01069,0.0045815
-0.054181,-2.1575,6.1782,7.8649,-0.012828,0.012217,0.0061087
-0.053426,-1.8437,6.1782,7.7865,-0.014661,0.012828,0.0097738
-0.051197,-1.9417,6.0605,7.7865,-0.018326,0.014661,0.0082467
-0.047407,-1.8044,6.0213,7.8453,-0.021686,0.015577,0.0058032
-0.042111,-1.8437,6.1782,7.9238,-0.024129,0.014355,0.0009163
-0.035528,-2.0006,6.1586,7.9042,-0.021991,0.013439,0.0027489
-0.028011,-1.7848,6.0017,7.7865,-0.020159,0.014661,0.0024435
-0.020024,-1.7652,6.1586,7.8649,-0.017715,0.014661,0.0015272
-0.012109,-2.0202,6.0997,7.8649,-0.016188,0.014966,-0.00030543
-0.0047888,-2.1182,6.1586,7.9238,-0.021075,0.014966,-0.0018326
0.001455,-1.7848,6.1782,7.8061,-0.026878,0.014661,-0.00061087
0.0062616,-1.9417,6.1586,7.7865,-0.029322,0.016493,0
0.0094403,-2.0202,6.1586,7.9434,-0.034819,0.017715,-0.0018326
0.010985,-1.9025,6.0997,7.7865,-0.041233,0.01741,-0.0018326
0.011082,-1.7848,6.1586,7.7865,-0.034514,0.016799,0.0030543
0.010096,-1.9417,6.1782,7.7473,-0.025656,0.015882,0.0030543
0.008516,-1.7652,6.0997,7.8061,-0.017104,0.01405,0.0018326
0.0068975,-1.8044,6.0997,7.7865,-0.011301,0.013439,0.0009163
0.0057956,-2.0202,6.0997,7.9042,-0.012523,0.013744,0.0009163
0.0056964,-1.9025,6.0997,7.8061,-0.01741,0.014355,-0.0012217
0.0069412,-1.7652,6.1193,7.8649,-0.012523,0.010079,0.0054978
0.0096935,-1.7652,6.1586,7.7865,-0.016799,0.013744,0.002138
0.013908,-1.7848,6.0997,7.8061,-0.020464,0.011912,0.0018326
0.01935,-1.9221,6.0997,7.8453,-0.023824,0.011606,0.0036652
0.025591,-2.0202,6.1782,7.9434,-0.029932,0.012217,0.0039706
0.032094,-2.1182,6.1782,7.9042,-0.034514,0.014355,0.0051924
0.03826,-1.7652,6.0605,7.6884,-0.033903,0.013134,0.0058032
0.043505,-1.8044,6.1782,7.9042,-0.029016,0.0094684,0.0054978
0.047348,-1.9613,6.0997,7.9238,-0.0015272,0.0042761,-0.010079
0.049442,-1.8633,6.1586,7.7865,0.0039706,0.00061087,-0.0067195
0.049638,-1.9221,6.1586,7.7865,0.0076358,0.0051924,0.0009163
0.047987,-1.7652,6.1586,7.7865,0.0036652,0.0094684,-0.00030543
0.044744,-2.1575,6.1193,7.9042,-0.0054978,0.011912,-0.0030543
0.040305,-1.9025,6.1586,7.8061,-0.016799,0.012217,-0.0024435
0.035171,-1.8437,6.1193,7.8649,-0.020769,0.011606,-0.002138
0.029862,-1.9025,6.1782,7.8061,-0.0097738,0.013134,-0.0076358
0.024869,-1.8044,6.1782,7.8649,-0.045204,0.014966,0.002138
0.020568,-1.7652,6.0017,7.7669,-0.040928,0.019242,0.0027489
0.017175,-1.7652,6.0605,7.9042,-0.028405,0.018326,-0.0036652
0.014736,-2.0006,6.0997,7.7865,-0.014966,0.014661,-0.0009163
0.01311,-1.8437,6.1782,7.9042,-0.0097738,0.012523,0.00030543
0.011997,-2.0986,6.2763,7.8649,-0.013439,0.012523,-0.0009163
0.011001,-1.9025,6.2566,7.7865,-0.027794,0.011606,-0.0012217
0.0096958,-2.0006,6.0605,7.7865,-0.039095,0.010385,0.00061087
0.0076705,-2.1575,6.0213,7.8649,-0.022907,0.010996,0.0048869
0.0046341,-1.8437,6.1193,7.8453,-0.024435,0.007025,0.0042761
0.00043787,-1.7848,6.1586,7.9042,-0.026267,0.0064141,0.0015272
-0.0048747,-1.7652,6.0017,7.7865,-0.026267,0.0073304,0
-0.011055,-1.9025,6.1782,7.8061,-0.021075,0.009163,0.0018326
-0.017696,-2.0202,6.0997,7.9042,-0.018021,0.010385,0.0045815
-0.024247,-2.0202,6.0997,7.9042,-0.017715,0.013134,0.0045815
-0.030113,-1.8437,6.1782,7.7865,-0.021686,0.014355,0.0058032
-0.034698,-1.7652,6.1586,7.7865,-0.034514,0.011912,0.00030543
-0.037517,-2.2359,6.1193,8.0218,-0.040317,0.0097738,0.002138
-0.038243,-1.7652,6.0213,7.7865,-0.040317,0.012217,-0.0030543
-0.036754,-1.7456,6.0997,7.8061,-0.032681,0.014966,-0.002138
-0.033169,-1.9613,6.1193,7.8649,-0.022907,0.014355,0.00030543
-0.027842,-1.7652,6.0605,7.7865,-0.014355,0.010079,0
-0.021315,-1.7652,6.1782,7.7865,-0.0048869,0.0097738,-0.0024435
-0.01426,-2.0594,6.1782,7.9042,-0.0048869,0.011606,-0.0033598
-0.007417,-2.1182,6.2174,7.9042,-0.013134,0.013744,0.0012217
-0.0014841,-1.8437,6.2566,7.7865,-0.021075,0.014966,0.0009163
0.0029364,-1.9613,6.0997,7.708,-0.025962,0.014355,-0.00061087
0.0054251,-1.9417,6.0997,7.7865,-0.029322,0.01405,-0.00061087
0.0057799,-1.9025,6.1586,7.9042,-0.028711,0.01405,-0.0009163
0.0040327,-1.7652,6.0997,7.7669,-0.02474,0.011912,0.00030543
0.00043405,-1.7652,6.0997,7.7865,-0.021686,0.011301,0.002138
-0.0045684,-2.1771,6.1978,7.9042,-0.015272,0.011912,0.0018326
-0.010423,-1.9417,6.1586,7.7669,-0.0054978,0.0085521,0.0058032
-0.016534,-1.8044,6.0997,7.8061,0.0048869,0.0054978,0.0042761
-0.022319,-1.7652,6.0213,7.8061,0.025962,0.0009163,-0.0027489
-0.027303,-1.9417,6.1586,7.8061,0.062614,-0.0064141,-0.0058032
-0.03116,-1.8437,6.1586,7.8649,0.10568,-0.010079,-0.0085521
-0.033738,-1.8437,6.2566,7.7865,0.13989,-0.011606,-0.012828
-0.035059,-2.0202,6.1586,7.6884,0.13073,-0.0024435,-0.013134
-0.0353,-1.8437,6.1782,7.8061,0.067501,0.010079,-0.0058032
-0.034746,-1.7848,6.0997,7.8649,-0.01405,0.014661,-0.0024435
-0.033717,-2.0986,6.1193,7.8649,-0.013134,0.019242,-0.0024435
-0.032531,-1.9417,6.0213,7.6884,-0.013134,0.016799,-0.0058032
-0.031422,-1.9025,6.0017,7.6884,-0.012523,0.012523,-0.0036652
-0.030514,-1.7652,6.3155,7.9434,-0.012828,0.010996,-0.0036652
-0.029776,-1.9221,6.5901,7.8453,-0.015272,0.010996,-0.0030543
-0.029048,-1.7848,6.3155,7.6296,-0.022907,0.0094684,-0.0033598
-0.02805,-1.8437,6.0997,7.7865,-0.028405,0.011301,-0.0027489
-0.026434,-1.8044,6.0997,7.8453,-0.0024435,0.014355,-0.012523
-0.023847,-1.9417,6.1586,7.7669,-0.0039706,0.012217,-0.011301
-0.019988,-1.7848,6.1978,7.7669,-0.014966,0.012217,-0.0048869
-0.014661,-1.8437,6.3547,7.7865,-0.020464,0.01405,-0.0045815
-0.007835,-1.7652,6.1782,7.7473,-0.023213,0.014966,-0.0058032
0.00035838,-1.7848,6.0409,7.7865,-0.020769,0.014966,-0.0079412
0.0096143,-2.1771,6.0997,7.8649,-0.030849,0.013439,-0.009163
0.019489,-1.8437,6.1978,7.7865,-0.014661,0.013439,-0.011606
0.029449,-2.0202,6.2763,7.8061,-0.022907,0.014966,-0.0097738
0.038955,-2.1182,6.2763,7.8453,-0.023824,0.015577,-0.009163
0.047513,-1.8437,6.0997,7.6884,-0.022602,0.014355,-0.012217
0.054734,-1.7848,6.1586,7.8649,-0.025351,0.014661,-0.012217
0.060407,-1.8437,6.0997,7.7669,-0.02474,0.014661,-0.01405
0.064505,-1.9417,6.1782,7.7473,-0.021075,0.014966,-0.011912
0.067195,-1.9417,6.2763,7.7473,-0.021075,0.014355,-0.011301
0.068785,-1.9025,6.2174,7.7669,-0.022907,0.013744,-0.011606
0.069698,-1.8437,6.2174,7.7473,-0.017715,0.011606,-0.009163
0.070361,-1.9417,6.1782,7.7865,-0.016493,0.009163,-0.0073304
0.07116,-1.7652,6.0605,7.7669,-0.022297,0.012523,-0.007025
0.072347,-1.9613,6.1782,7.6884,-0.030849,0.013134,-0.0082467
0.07399,-1.9221,6.1782,7.7865,-0.03146,0.012523,-0.0076358
0.075949,-1.9613,6.2763,7.7669,-0.027489,0.011606,-0.0073304
0.077855,-1.8437,6.2174,7.7865,-0.023824,0.012217,-0.0042761
0.079189,-2.1575,6.1782,7.8061,-0.025351,0.013134,-0.0027489
0.079302,-2.0202,6.1782,7.6884,-0.019548,0.013439,-0.0030543
0.077548,-1.8044,6.1782,7.8649,-0.023213,0.016493,-0.0036652
0.07335,-2.0594,6.1782,7.8061,-0.030849,0.016799,-0.002138
0.06631,-1.8437,6.1782,7.7865,-0.037568,0.015577,-0.0024435
0.05628,-1.9221,6.237,7.7865,-0.041539,0.014661,-0.0036652
0.043417,-2.0202,6.1978,7.7669,-0.043982,0.01405,-0.0042761
0.028182,-1.9025,6.2174,7.7865,-0.045815,0.014661,-0.0045815
0.011302,-1.9221,6.1782,7.7669,-0.041844,0.014966,-0.0039706
-0.0062812,-2.0594,6.1782,7.8649,-0.024435,0.010996,0.0009163
-0.023559,-2.0986,6.1782,7.8649,-0.028711,0.012828,0.00061087
-0.039534,-2.0594,6.1978,7.8061,-0.027184,0.012523,0.0051924
-0.053362,-1.9221,6.1978,7.8061,-0.027794,0.011301,0.0039706
-0.064479,-2.0594,6.1586,7.8061,-0.0281,0.012828,0.0036652
-0.072663,-1.8437,6.1978,7.7669,-0.026267,0.014661,0.0061087
-0.078075,-2.0986,6.2174,7.8061,-0.025045,0.015882,0.0082467
-0.081247,-2.0202,6.0997,7.8649,-0.018631,0.014966,0.0051924
-0.083004,-1.8437,6.1782,7.7865,-0.015577,0.014355,0.00030543
-0.084375,-1.7848,6.0213,7.7669,-0.020769,0.014661,0.0015272
-0.086415,-1.9417,6.0997,7.8061,-0.023213,0.015272,0
-0.090075,-1.9025,6.2174,7.7865,-0.021991,0.01405,0.0009163
-0.096043,-1.8437,6.1782,7.7865,-0.020464,0.014355,0.0015272
-0.1046,-1.9025,6.0997,7.6884,-0.021686,0.014355,0.0027489
-0.11557,-1.9417,6.1586,7.7473,-0.024435,0.012828,0.0012217
-0.12825,-1.8633,6.1978,7.7865,-0.026878,0.013439,-0.00061087
-0.14149,-2.0202,6.1782,7.8453,-0.011912,0.012523,-0.010079
-0.15377,-1.9221,6.1782,7.8061,-0.012828,0.017104,-0.010079
-0.16337,-1.9221,6.2174,7.7669,-0.015272,0.019548,-0.007025
-0.16854,-2.0202,6.1782,7.6884,-0.016188,0.019242,-0.0064141
-0.1677,-1.8044,6.1193,7.7865,-0.015577,0.018021,-0.0082467
-0.15967,-1.9417,6.1586,7.7669,-0.015272,0.01741,-0.011606
-0.14377,-1.9221,6.1782,7.7865,-0.017104,0.01405,-0.013439
-0.11999,-1.7848,6.0605,7.7669,-0.020159,0.013439,-0.011912
-0.088968,-2.0202,6.2174,7.7669,-0.021686,0.015577,0.0018326
-0.051992,-2.0202,6.2174,7.7865,-0.021075,0.011912,0.0039706
-0.010896,-1.9417,6.1782,7.7669,-0.024435,0.01405,-0.0079412
0.032122,-1.8437,6.2763,7.7865,-0.031765,0.015882,-0.0048869
0.074675,-1.9613,6.1782,7.7473,-0.034819,0.012828,-0.0033598
0.11444,-1.8437,6.1586,7.708,-0.029627,0.012523,-0.0027489
0.14933,-1.9417,6.1782,7.6884,-0.022907,0.012523,-0.0015272
0.17771,-2.0398,6.2174,7.8061,-0.020159,0.012217,-0.00061087
0.19851,-1.9025,6.1978,7.7865,-0.016188,0.017104,-0.011301
0.21128,-2.0202,6.1193,7.8649,-0.011912,0.017715,-0.01405
0.21616,-1.9025,6.2174,7.7669,-0.010079,0.014355,-0.0009163
0.21388,-1.8437,6.1782,7.7669,-0.0073304,0.011301,-0.0039706
0.20557,-1.8437,6.1782,7.6884,-0.0085521,0.013134,-0.0061087
0.19258,-1.9417,6.2174,7.7669,-0.013744,0.01405,-0.0079412
0.17639,-2.0202,6.1782,7.6884,-0.023213,0.013439,-0.0085521
0.15834,-1.8044,6.1782,7.7865,-0.02138,0.013744,-0.0094684
0.13956,-1.9417,6.2174,7.7865,-0.040928,0.012217,0.009163
0.12088,-1.9221,6.2174,7.708,-0.027184,0.012217,0.0085521
0.10272,-1.9221,6.2763,7.6884,-0.020464,0.011301,0.0039706
0.085232,-1.8437,6.1782,7.7669,-0.027794,0.010079,0.0048869
0.068259,-1.7652,6.1782,7.8061,-0.036041,0.010996,0.0079412
0.051509,-2.0202,6.1978,7.8649,-0.037263,0.012828,0.0085521
0.034655,-2.0986,6.2174,7.8649,-0.029627,0.014355,0.0088575
0.01747,-1.8437,6.1782,7.708,-0.021075,0.016188,0.0094684
-8.9841e-05,-1.9417,6.1782,7.7473,-0.047647,0.015577,-0.00030543
-0.017811,-1.9221,6.2566,7.8061,-0.041233,0.018326,-0.0027489
-0.035209,-1.9221,6.1782,7.7865,-0.033292,0.016493,0.010385
-0.051584,-2.1575,6.1782,7.8649,-0.021686,0.016188,0.0094684
-0.066097,-1.9417,6.0997,7.8649,-0.014661,0.016188,0.0058032
-0.077863,-1.7848,6.1782,7.7669,-0.015882,0.014355,0.0079412
-0.086127,-1.9417,6.2174,7.7669,-0.027794,0.014661,0.009163
-0.090366,-1.9221,6.1782,7.7669,-0.043371,0.015882,0.0048869
-0.090411,-1.8437,6.1978,7.7865,-0.01741,0.013744,-0.00061087
-0.086489,-2.0594,6.0997,7.9042,-0.017715,0.0094684,0.00061087
-0.079246,-2.0594,6.1782,7.8061,-0.015882,0.011301,-0.0030543
-0.069687,-1.9221,6.1782,7.7865,-0.01741,0.011606,-0.00061087
-0.059077,-1.8044,6.2174,7.7865,-0.024129,0.012828,-0.0012217
-0.048789,-2.0202,6.2763,7.7865,-0.026573,0.014355,-0.0015272
-0.040145,-1.7848,6.1782,7.7669,-0.01741,0.014355,0.0015272
-0.03424,-1.9221,6.1782,7.7669,-0.015577,0.015577,0.0024435
-0.031793,-1.8437,6.1782,7.7865,-0.030543,0.015272,0.0033598
-0.033055,-2.0986,6.1586,7.8453,-0.038485,0.012828,0.0048869
-0.03776,-1.8044,6.0605,7.7669,-0.041539,0.014661,0.0009163
-0.045147,-1.8044,6.2566,7.7669,-0.042455,0.016799,0.0009163
-0.054078,-2.0594,6.2763,7.8061,-0.040623,0.014966,0.0009163
-0.063156,-1.9025,6.2174,7.7865,-0.033598,0.01405,0.0024435
-0.070932,-1.9221,6.1782,7.7865,-0.0281,0.013439,0.0054978
-0.076106,-1.7848,6.0605,7.9238,-0.022602,0.010996,0.0051924
-0.077704,-1.9417,6.1782,7.7865,-0.016799,0.011912,-0.0030543
-0.075232,-2.0202,6.1782,7.6884,-0.016188,0.014966,-0.002138
-0.068766,-1.9613,6.1978,7.7473,-0.025045,0.015272,0.0067195
-0.058945,-1.8437,6.2763,7.7669,-0.032987,0.014661,0.0054978
-0.046945,-1.9417,6.1978,7.7669,-0.032987,0.013439,0.0039706
-0.034267,-2.2163,6.2174,7.9042,-0.027794,0.013744,0.0015272
-0.022603,-1.7848,6.0997,7.7473,-0.023518,0.013744,-0.0018326
-0.013565,-1.7652,6.0213,7.7865,-0.022602,0.012828,-0.0030543
-0.0084623,-1.8437,6.2763,7.7865,-0.021991,0.011606,0
-0.0080794,-2.0202,6.2763,7.8649,-0.022907,0.0079412,0
-0.012553,-2.0006,6.1782,7.61,-0.023518,0.010079,-0.0027489
-0.021268,-1.8437,6.0605,7.7865,-0.024129,0.012523,-0.0030543
-0.032893,-1.9025,6.1782,7.6884,-0.026878,0.012217,-0.0012217
-0.045518,-2.079,6.1782,7.8453,-0.028711,0.012828,-0.0012217
-0.056801,-1.8044,6.0997,7.7865,-0.027184,0.013439,-0.0009163
-0.06429,-1.9417,6.2174,7.7865,-0.022907,0.012523,-0.0009163
-0.065686,-1.9417,6.1782,7.7865,-0.012523,0.01069,0.00030543
-0.059148,-1.9417,6.1782,7.7865,-0.0048869,0.0097738,-0.00030543
-0.043555,-1.8437,6.1978,7.7669,-0.0073304,0.0067195,-0.0012217
-0.018683,-1.8437,6.1782,7.7865,-0.013744,0.0058032,-0.00030543
0.014693,-1.7652,6.1586,7.7669,-0.019853,0.0058032,-0.0009163
0.054812,-2.0202,6.1782,7.8649,-0.025351,0.0088575,-0.0030543
0.099065,-1.9613,6.1193,7.8649,-0.029932,0.010996,-0.0018326
0.14421,-1.9417,6.1782,7.6884,-0.032376,0.011606,0.00061087
0.1867,-1.9221,6.2566,7.7669,-0.0088575,0.013134,-0.0009163
0.22297,-2.0202,6.1978,7.8061,-0.017104,0.012217,-0.002138
0.24987,-1.7652,6.1782,7.7669,-0.024435,0.011606,-0.0082467
0.2649,-1.9417,6.1978,7.7865,-0.028405,0.012523,-0.0094684
0.26656,-1.8437,6.1782,7.6884,-0.027794,0.014355,-0.0082467
0.2544,-1.9613,6.2174,7.6492,-0.030543,0.015577,-0.0073304
0.22915,-1.8437,6.1782,7.7865,-0.033598,0.014661,-0.0054978
0.1926,-2.0986,6.2566,7.8649,-0.029932,0.012828,-0.0027489
0.14745,-1.9221,6.1782,7.7473,-0.014661,0.011301,0.0018326
0.097005,-1.9221,6.1978,7.7865,-0.019548,0.011301,0.0015272
0.044897,-1.9417,6.2174,7.7865,-0.023824,0.010385,-0.0012217
-0.005277,-1.8044,6.1586,7.7669,-0.02474,0.0085521,0.0018326
-0.050304,-1.8437,6.1782,7.8649,-0.027184,0.0061087,0.0027489
-0.087595,-1.8437,6.0997,7.7865,-0.0281,0.0088575,0.0015272
-0.11541,-1.9025,6.2566,7.7865,-0.022907,0.011301,0.0009163
-0.13297,-2.0006,6.2763,7.8649,-0.016799,0.009163,0.0024435
-0.14043,-1.8437,6.1586,7.7865,-0.014966,0.0085521,-0.0058032
-0.13881,-1.8437,6.1193,7.7865,-0.01069,0.009163,-0.009163
-0.12982,-2.0594,6.1782,7.7865,-0.011606,0.0088575,0.002138
-0.1156,-2.0202,6.0605,7.8649,-0.015272,0.0088575,-0.0009163
-0.098505,-1.9417,6.2763,7.7865,-0.02138,0.011606,-0.0030543
-0.080815,-1.7848,6.0997,7.708,-0.023518,0.01405,-0.00061087
-0.064518,-2.2163,6.2763,7.8649,-0.026267,0.015882,-0.00030543
-0.051131,-1.8437,6.1782,7.7669,-0.020769,0.016799,-0.0033598
-0.041593,-2.0202,6.1782,7.8061,-0.016799,0.016188,-0.0076358
-0.036261,-1.9613,6.1586,7.8649,-0.019548,0.017715,-0.0076358
-0.034921,-1.7652,6.2174,7.7865,-0.013134,0.01405,-0.013439
-0.036893,-2.0202,6.2566,7.8649,-0.0058032,0.0097738,-0.014966
-0.041189,-1.9417,6.1978,7.7669,-0.0045815,0.011301,-0.013744
-0.046662,-1.9221,6.1978,7.7865,-0.0079412,0.014355,-0.013134
-0.052173,-1.7652,6.1193,7.6492,-0.013439,0.017715,-0.010385
-0.056728,-1.8437,6.0997,7.7669,-0.016188,0.019548,-0.0073304
-0.059579,-1.8437,6.2763,7.8649,-0.023213,0.012217,-0.0067195
-0.060289,-2.2555,6.1782,7.8649,-0.029627,0.015577,-0.0079412
-0.058731,-2.0006,6.1586,7.8061,-0.033903,0.014355,-0.0033598
-0.055052,-1.8437,6.2174,7.6884,-0.036346,0.013134,-0.0054978
-0.049617,-2.079,6.1782,7.7865,-0.032987,0.013439,-0.0054978
-0.04293,-1.8633,6.1782,7.7669,-0.029932,0.014661,-0.0039706
-0.035504,-1.7848,6.0605,7.7865,-0.030238,0.013744,-0.0045815
-0.027828,-1.8437,6.2174,7.7669,-0.024129,0.012523,-0.0045815
-0.020256,-2.0986,6.2763,7.8649,-0.013744,0.012523,-0.0039706
-0.013014,-2.0202,6.2763,7.61,-0.0079412,0.0079412,-0.0033598
-0.0061861,-1.8633,6.0997,7.7865,-0.0036652,0.0079412,-0.007025
0.00027197,-1.8044,6.0997,7.7473,-0.0058032,0.0094684,-0.0058032
0.0064781,-1.9417,6.1782,7.7669,-0.015577,0.011301,-0.0051924
0.012562,-2.0594,6.1782,7.7865,-0.029016,0.013134,-0.0048869
0.018613,-2.0202,6.2763,7.8453,-0.039095,0.014661,-0.0030543
0.024635,-1.8044,6.2174,7.7669,-0.044593,0.015882,-0.002138
0.030517,-2.1771,6.2174,7.8649,-0.040012,0.016188,-0.011606
0.03603,-1.7848,6.1978,7.7473,-0.024129,0.016188,-0.013134
0.040856,-2.079,6.2763,7.8061,-0.0097738,0.011912,-0.0061087
0.044633,-2.0986,6.1782,7.8649,-0.00061087,0.010385,-0.0067195
0.047004,-1.9613,6.1193,7.9238,0.0079412,0.010385,-0.0064141
0.047689,-2.079,6.1586,7.8649,0.015577,0.011912,-0.007025
0.04655,-1.8437,6.1782,7.7865,0.011912,0.013134,-0.0082467
0.043618,-1.8437,6.1782,7.7865,0.0030543,0.010385,-0.010385
0.039132,-2.0202,6.2566,7.6492,-0.025962,0.014966,-0.0061087
0.033512,-2.1575,6.2174,7.8061,-0.03146,0.013744,-0.0039706
0.02734,-1.8633,6.1782,7.7865,-0.036652,0.01405,-0.0067195
0.021288,-1.9025,6.0409,7.7669,-0.039706,0.015272,-0.0042761
0.016049,-2.0006,6.1782,7.6296,-0.036346,0.014355,-0.0045815
0.012256,-1.9221,6.3155,7.7473,-0.027184,0.012523,-0.0058032
0.010384,-2.079,6.3547,7.8061,-0.019242,0.011301,-0.0036652
0.01072,-2.0202,6.1782,7.8649,-0.018326,0.010996,-0.0042761
0.013307,-1.9221,6.1782,7.6884,-0.018021,0.011606,0.00061087
0.017921,-1.9613,6.1586,7.6884,-0.02474,0.0097738,-0.00061087
0.024111,-1.7848,6.1782,7.8061,-0.032987,0.012523,-0.002138
0.031257,-1.9025,6.2566,7.7865,-0.034819,0.014966,-0.0024435
0.038614,-1.8437,6.1782,7.708,-0.033292,0.013439,-0.0012217
0.045423,-1.9417,6.1978,7.7669,-0.029627,0.013439,0.00061087
0.050973,-2.0986,6.1978,7.8453,-0.018937,0.013439,0.00030543
0.0547,-1.9025,6.1978,7.708,-0.017715,0.011912,0.00030543
0.056227,-1.9417,6.2763,7.7669,-0.015272,0.0094684,0.0027489
0.055411,-1.9025,6.1782,7.7669,-0.023518,0.0061087,0.0033598
0.052328,-1.7848,6.0409,7.6884,-0.030849,0.0073304,-0.0012217
0.047256,-1.9417,6.1782,7.6884,-0.036346,0.013134,-0.00030543
0.040632,-1.7848,6.1782,7.7473,-0.034819,0.012523,0.0015272
0.032972,-1.9025,6.2763,7.7473,-0.031154,0.013134,0.0036652
0.024786,-2.0202,6.2566,7.6884,-0.021686,0.014661,0.00061087
0.016544,-2.0594,6.1782,7.7669,-0.013439,0.014661,0.00061087
0.0085925,-1.8437,6.1782,7.7473,-0.0085521,0.012217,-0.0033598
0.0011238,-2.0006,6.2174,7.7669,-0.013439,0.009163,-0.0036652
-0.0058257,-2.2163,6.2763,7.8061,-0.020159,0.012217,-0.0058032
-0.01238,-1.8633,6.1782,7.6884,-0.027184,0.015577,-0.0051924
-0.01875,-1.8044,6.1193,7.7865,-0.035125,0.016799,-0.0039706
-0.025212,-1.9025,6.1782,7.6884,-0.039095,0.016493,0
-0.032034,-1.7848,6.3155,7.7865,-0.033598,0.016493,0
-0.039391,-2.0202,6.2763,7.61,-0.024435,0.015882,-0.0027489
-0.047371,-1.8437,6.1586,7.7669,-0.016799,0.014966,-0.0018326
-0.055868,-2.0202,6.1782,7.6884,-0.011301,0.014355,-0.0015272
-0.064629,-1.8044,6.0605,7.7865,-0.012217,0.013439,-0.0042761
-0.073245,-2.0202,6.1782,7.6492,-0.013439,0.01405,-0.0042761
-0.081198,-1.8437,6.2174,7.7473,-0.017715,0.014661,-0.0051924
-0.087906,-1.8044,6.1782,7.8649,-0.021686,0.013744,-0.0039706
-0.092799,-1.8437,6.1586,7.708,-0.021686,0.012523,-0.0024435
-0.09538,-1.9417,6.2763,7.7669,-0.020769,0.012217,-0.0018326
-0.09529,-1.8044,6.2763,7.7473,-0.033903,0.011912,0.0024435
-0.092349,-2.0986,6.0409,7.8061,-0.033292,0.0094684,0.0033598
-0.08657,-1.9221,6.1782,7.7865,-0.029322,0.0097738,-0.00061087
-0.07818,-1.9417,6.1978,7.7865,-0.026878,0.012828,0
-0.067568,-1.8633,6.2174,7.7473,-0.0281,0.013439,-0.0009163
-0.055275,-1.8437,6.1978,7.708,-0.029016,0.013744,-0.0015272
-0.041909,-1.8437,6.0213,7.7473,-0.025962,0.012523,0
-0.028103,-1.8044,6.1782,7.708,-0.023213,0.012828,0.00061087
-0.014441,-1.8044,6.1782,7.8061,-0.014355,0.0076358,0.0027489
-0.001415,-1.8437,6.1978,7.7669,-0.025656,0.012217,0.0027489
0.0106,-2.0594,6.3155,7.6884,-0.036041,0.014661,-0.0054978
0.021381,-1.9417,6.3547,7.7473,-0.044593,0.014661,-0.0015272
0.030825,-1.8044,6.1193,7.7669,-0.045509,0.014355,-0.00030543
0.038958,-2.0202,6.0997,7.7865,-0.035125,0.012523,-0.0009163
0.045862,-2.0202,6.1782,7.6884,-0.025045,0.0085521,-0.00061087
0.051662,-1.9417,6.1782,7.7473,-0.016493,0.0073304,0.00061087
0.056476,-1.8437,6.2174,7.8061,-0.012828,0.0067195,0.0067195
0.060382,-1.8044,6.1782,7.7865,-0.016188,0.007025,0.0036652
0.063393,-1.8437,6.1978,7.7865,-0.025351,0.0082467,0.002138
0.065458,-2.0986,6.1782,7.7865,-0.030543,0.0097738,0.0030543
0.066473,-1.8437,6.2174,7.8061,-0.031765,0.009163,0.0024435
0.066302,-2.079,6.2763,7.7865,-0.033598,0.010996,0.0045815
0.064814,-2.2163,6.2174,7.7865,-0.034514,0.010079,0.0058032
0.061928,-1.8437,6.2174,7.7473,-0.032681,0.0094684,0.0082467
0.057631,-1.7848,6.1193,7.7473,-0.022602,0.013439,0.00030543
0.052032,-1.7848,6.1586,7.7865,-0.017715,0.016493,-0.0012217
0.045347,-2.0006,6.1782,7.7865,-0.015272,0.01405,0.0027489
0.037907,-1.9221,6.2763,7.7865,-0.015577,0.014355,0.0015272
0.030138,-1.8437,6.1782,7.7473,-0.022907,0.014966,0.0027489
0.022521,-1.8437,6.0997,7.7865,-0.026878,0.014661,0.0012217
0.015523,-2.2163,6.1978,7.7865,-0.026267,0.01405,-0.0012217
0.0095933,-2.0202,6.2566,7.7473,-0.029932,0.012217,-0.00030543
0.0050506,-2.0594,6.2763,7.6884,-0.029322,0.007025,0.0061087
0.0020941,-1.9417,6.1782,7.7473,-0.028711,0.0064141,0.0039706
0.00073981,-1.9221,6.2763,7.7473,-0.027489,0.0094684,-0.0085521
0.00085093,-2.0594,6.1193,7.8649,-0.028405,0.012217,-0.0048869
0.0021234,-2.079,6.2174,7.7865,-0.028405,0.012217,-0.0015272
0.0041227,-1.9025,6.1782,7.8061,-0.031765,0.011912,0.00030543
0.0063393,-1.8437,6.2763,7.6884,-0.030849,0.01069,0.0033598
0.0082563,-1.8044,6.2566,7.7669,-0.029016,0.010385,0.0067195
0.0093794,-2.0202,6.1193,7.7865,-0.025962,0.011912,0
0.0093302,-2.0594,6.2566,7.6884,-0.023518,0.011301,-0.0015272
0.0078585,-1.8633,6.2763,7.8061,-0.021991,0.011606,0.0012217
0.0048786,-1.8437,6.2763,7.7473,-0.022602,0.012828,0.0012217
0.0004783,-1.9221,6.2763,7.7669,-0.023518,0.013134,-0.00030543
-0.0050962,-1.8044,6.0605,7.6884,-0.025351,0.011912,0.00030543
-0.011488,-2.0202,6.1978,7.8649,-0.025962,0.010079,0.0012217
-0.018258,-1.8044,6.0997,7.7473,-0.022602,0.0085521,0
-0.02494,-1.9025,6.2174,7.7669,-0.039401,0.0085521,-0.0018326
-0.031099,-2.0202,6.2763,7.7865,-0.046731,0.0076358,-0.0061087
-0.036373,-1.7848,6.2763,7.7865,-0.047647,0.0082467,-0.002138
-0.040515,-1.9221,6.2763,7.7669,-0.040928,0.0094684,0
-0.043386,-1.7848,6.1586,7.7669,-0.030238,0.009163,0
-0.044979,-1.9221,6.1782,7.7669,-0.018021,0.009163,0.0015272
-0.045398,-1.8044,6.0997,7.7669,-0.022602,0.0088575,0.0009163
-0.044815,-2.1575,6.2763,7.8453,-0.027184,0.0094684,-0.00030543
-0.043451,-1.9025,6.3155,7.7473,-0.010996,0.0088575,-0.012523
-0.041519,-2.0202,6.3155,7.7865,-0.011912,0.009163,-0.011301
-0.039197,-2.0006,6.3351,7.6296,-0.013134,0.013439,-0.007025
-0.036607,-1.8437,6.2763,7.7473,-0.015577,0.015577,-0.0051924
-0.033791,-1.8437,6.1782,7.8061,-0.020769,0.014355,-0.0082467
-0.030713,-1.8437,6.0409,7.7473,-0.028711,0.012523,-0.0097738
-0.027288,-1.9417,6.2174,7.7669,-0.011301,0.009163,-0.010385
-0.023382,-2.0202,6.1978,7.8061,-0.010385,0.0061087,-0.012523
-0.018876,-1.9025,6.1782,7.7473,-0.010079,0.013134,-0.0067195
-0.013687,-2.0594,6.1586,7.9042,-0.01069,0.013134,-0.0067195
-0.0077882,-1.8044,6.1978,7.7865,-0.011912,0.013744,-0.0073304
-0.0012422,-1.9025,6.2566,7.7865,-0.015882,0.01405,-0.0079412
0.005779,-1.9417,6.2566,7.7669,-0.02138,0.010996,-0.0079412
0.013002,-2.0202,6.0997,7.8649,-0.021075,0.01069,-0.0082467
0.020089,-1.9613,6.1782,7.6492,-0.021075,0.013134,-0.0094684
0.026652,-1.9417,6.2763,7.7473,-0.022907,0.012523,-0.009163
0.032276,-1.7848,6.1782,7.6884,-0.019548,0.012828,-0.0039706
0.036603,-2.0006,6.1586,7.7865,-0.014661,0.01405,-0.0024435
0.039337,-1.9417,6.1782,7.7473,-0.011912,0.014355,-0.007025
0.040292,-1.8044,6.1978,7.7865,-0.012523,0.014355,-0.0058032
0.03941,-1.8437,6.2566,7.7865,-0.021686,0.014355,-0.0042761
0.036776,-1.9613,6.2566,7.7669,-0.032987,0.012828,-0.0024435
0.032584,-1.8633,6.2763,7.7865,-0.034819,0.012217,-0.0024435
0.02716,-1.8437,6.1586,7.6884,-0.029016,0.011912,-0.0033598
0.020884,-1.8437,6.2566,7.7473,-0.021686,0.011301,0.0027489
0.014189,-2.1575,6.2566,7.8061,-0.019242,0.014966,0.002138
0.0074932,-1.9417,6.2174,7.7473,-0.014661,0.012217,-0.0018326
0.0011751,-2.0006,6.3351,7.7865,-0.0079412,0.011606,-0.0024435
-0.0044482,-2.2163,6.2566,7.8061,-0.0088575,0.012523,-0.0015272
-0.0091637,-1.9613,6.1782,7.6884,-0.018631,0.014355,0.0015272
-0.012841,-2.0594,6.0605,7.8453,-0.027184,0.015577,0.0018326
-0.015442,-1.8633,6.2174,7.708,-0.031154,0.014661,0.0018326
-0.017011,-2.0006,6.2174,7.61,-0.031154,0.01405,-0.0079412
-0.017631,-2.1575,6.2763,7.7865,-0.029016,0.012523,-0.0061087
-0.01743,-2.0202,6.1782,7.7865,-0.021075,0.01069,0.0009163
-0.016522,-1.9025,6.1782,7.7669,-0.0088575,0.0094684,-0.00061087
-0.015012,-1.9025,6.1782,7.6884,-0.00061087,0.009163,-0.0024435
-0.012988,-1.8044,6.1782,7.7473,0.0024435,0.0085521,-0.0033598
-0.010485,-1.8437,6.1782,7.7865,0.013744,0.0088575,-0.0039706
-0.0075451,-1.8044,6.3155,7.7669,0.027794,0.0094684,-0.0045815
-0.0041569,-1.8044,6.1782,7.6492,-0.015272,0.017715,0
-0.0003542,-1.8437,6.1782,7.7865,-0.019242,0.014966,0.00061087
0.0038403,-1.7848,6.2174,7.7865,-0.021686,0.015577,-0.0027489
0.0083564,-2.0594,6.2174,7.8649,-0.024435,0.015882,-0.0024435
0.013072,-1.7652,6.2763,7.7473,-0.0281,0.01405,-0.0012217
0.017828,-1.8437,6.2566,7.7669,-0.029932,0.013439,0.00030543
0.022406,-2.0202,6.1978,7.6492,-0.03207,0.013744,0.0009163
0.026583,-1.9221,6.1782,7.7865,-0.030238,0.013744,0.0009163
0.030107,-1.9417,6.2763,7.7865,-0.014661,0.01405,-0.0033598
0.032751,-1.9417,6.2174,7.6884,-0.012523,0.014661,-0.0048869
0.034337,-2.079,6.1978,7.7865,-0.011912,0.012828,-0.0009163
0.034739,-1.9221,6.2763,7.7865,-0.012828,0.013134,-0.0027489
0.03391,-1.9221,6.2566,7.7473,-0.020769,0.013134,-0.0048869
0.031889,-1.8044,6.0997,7.7473,-0.029932,0.01405,-0.0054978
0.028785,-2.0202,6.0997,7.7865,-0.025656,0.015272,-0.0036652
0.024776,-2.0202,6.1782,7.6492,-0.019548,0.015272,-0.0033598
0.020079,-1.9025,6.3155,7.6884,-0.026878,0.015577,-0.0079412
0.014922,-1.7848,6.1586,7.708,-0.017104,0.013744,-0.0064141
0.009544,-2.1575,6.3155,7.7865,-0.015882,0.012828,-0.0061087
0.0041341,-2.0594,6.2174,7.8649,-0.01741,0.013439,-0.0097738
-0.0011694,-1.9809,6.1978,7.7669,-0.015577,0.012828,-0.01069
-0.0062725,-2.0986,6.1978,7.7865,-0.010996,0.011912,-0.0094684
-0.01116,-1.9025,6.1586,7.6884,-0.033903,0.012523,-0.009163
-0.015835,-1.8437,6.3155,7.7865,-0.033292,0.012828,-0.0079412
-0.020363,-2.0202,6.3155,7.6296,-0.029016,0.027794,-0.0058032
-0.024789,-1.7652,6.2174,7.7669,-0.029932,0.025045,-0.0033598
-0.029157,-1.8437,6.2566,7.6884,-0.0281,0.020769,-0.013439
-0.033456,-2.0202,6.1978,7.7865,-0.029932,0.017715,-0.011301
-0.037637,-2.2163,6.2763,7.8453,-0.02474,0.016188,-0.012523
-0.041568,-1.9417,6.2763,7.708,-0.015577,0.016188,-0.014355
-0.045071,-1.8633,6.2763,7.7473,-0.0085521,0.016493,-0.012828
-0.047913,-2.2163,6.3155,7.7865,-0.0085521,0.017104,-0.0079412
-0.049837,-1.9613,6.3547,7.7473,-0.034514,0.013134,0.002138
-0.050605,-2.0594,6.0997,7.7865,-0.04215,0.01405,0.0039706
-0.050026,-1.9417,6.2763,7.7865,-0.040928,0.015272,0.0018326
-0.047897,-1.9417,6.1782,7.7865,-0.033598,0.015272,0.002138
-0.044196,-2.0986,6.1782,7.7865,-0.026573,0.013134,0.0027489
-0.038965,-1.7848,6.2763,7.7669,-0.022297,0.011912,0.0033598
-0.032378,-1.9417,6.3547,7.6884,-0.020769,0.009163,0.0018326
-0.024703,-1.8044,6.3155,7.6884,-0.016493,0.0073304,0.00061087
-0.016281,-2.0202,6.2174,7.5511,-0.017104,0.0079412,-0.0030543
-0.0075223,-1.8437,6.0997,7.6884,-0.023518,0.010079,-0.0030543
0.0011558,-1.8044,6.1782,7.708,-0.029627,0.0094684,0.0045815
0.0093429,-1.8437,6.2763,7.7473,-0.032987,0.010385,0.0042761
0.016689,-2.1575,6.2763,7.7865,-0.031154,0.01405,0.0030543
0.022927,-2.0202,6.3351,7.6296,-0.022602,0.015882,0.0027489
0.027879,-2.0202,6.2566,7.6492,-0.01069,0.014966,-0.00030543
0.031473,-1.8044,6.1978,7.7473,-0.0045815,0.010079,-0.002138
0.033748,-1.9221,6.2174,7.7865,-0.0281,0.0054978,0.002138
0.034829,-2.0594,6.1978,7.61,-0.0045815,0.00061087,0.0027489
0.034902,-1.8633,6.2174,7.7473,-0.0082467,0.0054978,-0.002138
0.03419,-1.8437,6.2763,7.6884,-0.018326,0.013134,-0.002138
0.032936,-1.9613,6.1978,7.708,-0.029932,0.016188,-0.0009163
0.031356,-2.0594,6.2763,7.7865,-0.037263,0.017715,-0.00061087
0.029648,-1.9417,6.1978,7.8649,-0.03879,0.017104,-0.00061087
0.027931,-2.0202,6.1978,7.6296,-0.035736,0.015272,0.0015272
0.026296,-1.8437,6.2174,7.7669,-0.031765,0.012217,-0.0027489
0.024763,-2.2359,6.2763,7.7865,-0.026878,0.011606,0.0012217
0.023326,-2.0986,6.2763,7.8649,-0.021686,0.011301,-0.0009163
0.021935,-2.0986,6.3547,7.8649,-0.018631,0.011301,-0.002138
0.020546,-2.1771,6.3351,7.8453,-0.017715,0.010996,-0.0030543
0.019104,-1.9417,6.2174,7.6492,-0.015272,0.011606,-0.0024435
0.017582,-2.079,6.0605,7.7865,-0.017104,0.011606,-0.002138
0.015963,-1.9417,6.1782,7.7473,-0.024129,0.012523,-0.002138
0.014274,-1.9613,6.1782,7.61,-0.033598,0.011912,0
0.012542,-1.9417,6.2174,7.6884,-0.031154,0.014966,0.0015272
0.010802,-1.8437,6.3155,7.7669,-0.023518,0.01405,0.00061087
0.0090954,-2.1575,6.3155,7.8649,-0.01741,0.012828,0.0018326
0.0074637,-2.079,6.1978,7.6884,-0.013134,0.013744,0.002138
0.0059051,-2.0006,6.1782,7.6884,-0.010996,0.012523,-0.00030543
0.0044049,-1.8044,6.2763,7.7669,-0.014966,0.010079,-0.0012217
0.0029003,-1.9417,6.3547,7.6884,-0.022907,0.010385,-0.00061087
0.0013238,-2.0594,6.2763,7.61,-0.033903,0.012217,0.0054978
-0.00041205,-1.8437,6.1782,7.6884,-0.040623,0.014966,0.0067195
-0.0023944,-1.8044,6.1782,7.7865,-0.04215,0.016188,0.0027489
-0.0046718,-2.079,6.1978,7.7669,-0.037874,0.014355,0.0030543
-0.0072897,-2.0202,6.2174,7.6884,-0.034514,0.012828,0.0030543
-0.010235,-1.9025,6.3351,7.7669,-0.029016,0.011606,0.0027489
-0.013452,-1.9613,6.2174,7.6884,-0.014661,0.011301,0.0033598
-0.016822,-1.8633,6.1782,7.6884,-0.02474,0.01069,0.0045815
-0.020216,-1.8437,6.1782,7.7669,-0.025351,0.016799,-0.0036652
-0.023451,-1.8437,6.1782,7.6884,-0.025962,0.019242,-0.0042761
-0.026365,-2.0202,6.2174,7.61,-0.022907,0.018021,0.0012217
-0.028787,-1.8437,6.1782,7.6492,-0.018326,0.014661,-0.0012217
-0.030585,-1.8437,6.2763,7.7865,-0.0097738,0.012828,-0.0018326
-0.031679,-2.0986,6.2763,7.8061,-0.0051924,0.012523,-0.0039706
-0.032025,-2.0594,6.2763,7.7473,-0.007025,0.012523,-0.0064141
-0.031653,-2.2163,6.3155,7.7865,-0.015577,0.014355,-0.0054978
-0.030631,-1.8437,6.1978,7.6884,-0.03207,0.014661,-0.0015272
-0.029079,-1.8437,6.2566,7.7473,-0.03146,0.010385,-0.0018326
-0.027119,-2.0202,6.1782,7.7669,-0.027184,0.013744,-0.0039706
-0.024866,-2.0594,6.2566,7.61,-0.025045,0.015577,-0.0045815
-0.022436,-2.0594,6.2763,7.61,-0.020159,0.014355,-0.0048869
-0.019887,-1.8437,6.2763,7.708,-0.014966,0.010996,-0.0030543
-0.017243,-1.9221,6.2566,7.7473,-0.025656,0.009163,-0.0024435
-0.014474,-1.8633,6.2174,7.7865,-0.030543,0.010079,-0.002138
-0.011508,-1.9025,6.3547,7.7865,-0.012828,0.0079412,-0.0015272
-0.0082516,-2.1575,6.2763,7.8453,-0.0097738,0.0097738,-0.0042761
-0.0046058,-2.079,6.1978,7.8061,-0.013744,0.010079,-0.0033598
-0.0004807,-1.8633,6.2566,7.7473,-0.020464,0.0094684,-0.0033598
0.0041521,-1.8437,6.0997,7.6884,-0.027184,0.010079,-0.0036652
0.0092903,-1.8437,6.2566,7.8649,-0.026267,0.010996,-0.0036652
0.014826,-2.2163,6.3547,7.8453,-0.020769,0.010996,-0.0018326
0.020579,-2.0202,6.2566,7.6884,-0.014355,0.01069,-0.00030543
0.02631,-2.0202,6.2763,7.6492,-0.04215,0.015272,0.00061087
0.031714,-2.2163,6.2763,7.8649,-0.047037,0.017715,0.0012217
0.036458,-2.0202,6.3155,7.7473,-0.047342,0.016188,-0.0015272
0.040208,-1.9417,6.2763,7.61,-0.03879,0.013744,-0.00061087
0.042679,-1.9221,6.3155,7.6884,-0.029932,0.011606,-0.00061087
0.043651,-2.0202,6.1782,7.6296,-0.021991,0.0097738,0.00061087
0.042981,-1.9613,6.1782,7.708,-0.015577,0.0079412,0.0015272
0.040645,-1.8633,6.0997,7.6884,-0.013134,0.0082467,0.0015272
0.036747,-1.9613,6.2174,7.8453,-0.019853,0.0082467,0.002138
0.031488,-2.0594,6.3155,7.7865,-0.037874,0.0097738,0.00030543
0.025151,-1.8437,6.1193,7.6884,-0.051313,0.009163,0.0048869
0.018087,-1.9221,6.1193,7.6884,-0.051618,0.0094684,0.007025
0.010685,-2.0202,6.2174,7.8453,-0.044288,0.011301,0.007025
0.0033392,-1.8437,6.1978,7.6884,-0.033292,0.010079,0.0054978
-0.0036225,-1.7652,6.3155,7.7865,-0.020159,0.0085521,0.0061087
-0.0099085,-1.8437,6.2763,7.6884,-0.010385,0.009163,0.0042761
-0.015312,-1.8044,6.0605,7.7669,-0.0058032,0.0082467,-0.0030543
-0.019711,-1.8044,6.1782,7.7865,-0.0076358,0.0076358,-0.0036652
-0.023057,-1.8437,6.2763,7.7669,-0.02474,0.010079,-0.00061087
-0.025388,-2.0986,6.2763,7.8061,-0.043982,0.012828,0.0012217
-0.026765,-1.9025,6.2763,7.7865,-0.050702,0.015272,0.0012217
-0.02728,-2.079,6.1978,7.708,-0.047342,0.014355,0.0009163
-0.027034,-1.8044,6.1193,7.7669,-0.039401,0.011912,-0.00030543
-0.026095,-2.0006,6.1782,7.7473,-0.02474,0.0094684,-0.0018326
-0.024515,-2.0986,6.3351,7.8061,-0.018021,0.014966,-0.0030543
-0.022304,-1.9417,6.4135,7.7473,-0.026573,0.013134,-0.0051924
-0.019463,-1.8437,6.2566,7.6884,-0.037874,0.013744,0.00061087
-0.015961,-1.824,6.1782,7.708,-0.04215,0.015882,0.0012217
-0.011796,-1.8044,6.1586,7.7865,-0.036041,0.015272,0.00030543
-0.0069991,-1.9417,6.1978,7.7865,-0.021075,0.012523,-0.0009163
-0.0016452,-1.8044,6.3547,7.6884,-0.0082467,0.010079,-0.002138
0.0040929,-1.7848,6.2174,7.7669,0.0042761,0.0085521,-0.0018326
0.0099833,-1.7848,6.2174,7.7865,0.01405,0.0079412,-0.0051924
0.015701,-1.9417,6.2566,7.7865,0.01405,0.013439,-0.0061087
0.020885,-1.8437,6.2763,7.7669,0.010079,0.014355,-0.0033598
0.025129,-2.079,6.2763,7.8061,0.011912,0.01069,-0.0009163
0.028049,-1.7652,6.1586,7.7473,0.015882,0.010385,-0.0012217
0.029306,-1.9025,6.1782,7.6296,0.0048869,0.012217,-0.0048869
0.028659,-2.0202,6.1978,7.6296,-0.017104,0.013439,-0.0039706
0.025984,-1.8044,6.2174,7.7669,-0.032681,0.016188,-0.0015272
0.021321,-1.8437,6.2763,7.7865,-0.027489,0.016799,-0.0027489
0.014888,-1.9025,6.3155,7.6884,-0.021991,0.012828,-0.0027489
0.0070574,-2.079,6.4135,7.7865,-0.011912,0.0097738,-0.0054978
-0.0016559,-1.7848,6.4135,7.7473,-0.0076358,0.0097738,-0.0039706
-0.010642,-1.9221,6.3155,7.7473,-0.0048869,0.01069,-0.0045815
-0.019233,-1.8437,6.2763,7.6884,-0.0073304,0.0094684,-0.0033598
-0.02676,-1.8044,6.1978,7.7865,-0.035125,0.010996,-0.0036652
-0.032643,-1.8044,6.1978,7.6884,-0.028711,0.014661,-0.0036652
-0.03639,-1.9221,6.4135,7.7865,-0.032681,0.017104,-0.012217
-0.037714,-1.7848,6.2566,7.7473,-0.018326,0.021075,-0.01405
-0.036509,-1.8044,6.1978,7.6884,-0.0079412,0.016799,-0.0015272
-0.032878,-2.0594,6.3155,7.6884,-0.0048869,0.013439,-0.0024435
-0.027132,-1.9417,6.3351,7.6296,-0.00030543,0.01405,-0.0067195
-0.019736,-1.9417,6.3547,7.61,0.0051924,0.014661,-0.0058032
-0.011304,-1.9025,6.3351,7.6884,-0.020159,0.013134,-0.0051924
-0.0024957,-1.8044,6.2566,7.7669,-0.033292,0.011912,-0.0064141
0.0059986,-1.8437,6.0997,7.6884,-0.03146,0.016799,-0.01069
0.013535,-2.2163,6.1978,7.9042,-0.026267,0.018937,-0.01069
0.019601,-2.0594,6.2763,7.7865,-0.015882,0.017715,-0.0039706
0.023835,-2.0202,6.1978,7.7669,-0.010079,0.014966,-0.0051924
0.02604,-2.0986,6.2763,7.7865,-0.012523,0.013134,-0.0088575
0.026215,-1.8437,6.1586,7.6492,-0.021686,0.015577,-0.009163
0.024533,-1.9221,6.3351,7.708,-0.029932,0.015272,-0.010996
0.0213,-1.9417,6.3547,7.6884,-0.031765,0.015882,-0.012523
0.016965,-2.0202,6.3743,7.7669,-0.025351,0.01741,-0.009163
0.012012,-2.0202,6.2174,7.8061,-0.015577,0.016799,-0.010079
0.0069518,-1.9613,6.2763,7.61,-0.0030543,0.01741,-0.009163
0.0022447,-1.7848,6.3155,7.7669,0.0054978,0.017715,-0.0079412
-0.0017268,-1.9417,6.3155,7.7669,0.0048869,0.018326,-0.0094684
-0.0046814,-2.0202,6.3351,7.6884,-0.0033598,0.018631,-0.007025
-0.0064822,-1.9221,6.3547,7.6884,-0.011912,0.01741,-0.007025
-0.0071129,-1.9809,6.3547,7.708,-0.020159,0.018326,-0.009163
-0.0066793,-1.9417,6.3547,7.6296,-0.026267,0.016493,-0.0027489
-0.0053937,-1.7652,6.3547,7.708,-0.023213,0.012828,-0.0036652
-0.0035388,-2.1771,6.3155,7.8061,-0.01741,0.012523,-0.0094684
-0.0014097,-2.0986,6.2763,7.8061,-0.01741,0.013744,-0.0064141
0.00067618,-2.1182,6.3743,7.7865,-0.019548,0.015272,-0.0061087
0.002464,-1.8437,6.3547,7.7473,-0.020769,0.014661,-0.0054978
0.003745,-1.9417,6.4135,7.6492,-0.022602,0.014661,-0.0039706
0.0043957,-2.2359,6.2763,7.7865,-0.021075,0.015577,-0.0039706
0.004375,-1.7848,6.1782,7.6492,-0.021075,0.016188,-0.0064141
0.0037461,-1.8044,6.1782,7.6492,-0.019548,0.017715,-0.007025
0.0026296,-1.9025,6.2763,7.6884,-0.010996,0.014661,-0.0054978
0.001207,-1.8437,6.3351,7.6884,-0.0048869,0.014661,-0.0045815
-0.00030482,-1.7848,6.2763,7.7669,-0.0009163,0.014966,-0.002138
-0.0016836,-1.9221,6.1978,7.6884,0.00030543,0.014355,-0.0045815
-0.0027263,-1.8437,6.2763,7.6492,-0.0018326,0.015882,-0.0085521
-0.0032602,-1.8633,6.3547,7.6884,-0.0073304,0.016493,-0.0073304
-0.0031586,-2.0986,6.3743,7.7865,-0.025045,0.015577,0.0027489
-0.0023767,-1.9025,6.2763,7.6884,-0.027794,0.017715,0.0009163
-0.00091893,-1.9417,6.3547,7.6884,-0.025351,0.01405,-0.0048869
0.0011352,-1.8437,6.2763,7.6296,-0.021686,0.0094684,-0.0039706
0.0036549,-1.8437,6.2174,7.6884,-0.022602,0.0088575,-0.0027489
0.0064514,-1.8437,6.3351,7.6884,-0.025656,0.010079,-0.0012217
0.0093148,-1.8437,6.1782,7.6884,-0.029627,0.010385,-0.00061087
0.012015,-2.0202,6.3155,7.5511,-0.025656,0.012217,0.0024435
0.01432,-1.9025,6.1978,7.6492,-0.032681,0.014966,-0.00061087
0.016002,-2.0594,6.3351,7.61,-0.031765,0.013134,-0.0018326
0.016874,-1.8437,6.3743,7.6884,-0.024435,0.013134,0
0.016795,-2.0986,6.4135,7.7669,-0.013744,0.012828,-0.00061087
0.015659,-1.9613,6.3547,7.708,-0.010079,0.012217,-0.0012217
0.013409,-1.9221,6.2174,7.6492,-0.016799,0.013134,-0.00030543
0.010063,-2.0006,6.3155,7.708,-0.029627,0.013134,0.0009163
0.0056915,-2.0202,6.1782,7.708,-0.03207,0.012523,0
0.00042275,-2.079,6.3351,7.7473,-0.034514,0.012217,0.0027489
-0.005553,-1.7848,6.2959,7.6492,-0.039401,0.0097738,0.0018326
-0.012016,-2.2359,6.3547,7.7865,-0.044288,0.011301,-0.0027489
-0.018686,-2.0986,6.3351,7.7473,-0.040317,0.014966,-0.0015272
-0.025273,-2.2163,6.3155,7.7865,-0.0281,0.014355,0.00061087
-0.031472,-2.0986,6.2763,7.61,-0.015577,0.012828,0.0018326
-0.036956,-2.0202,6.3155,7.6492,-0.025656,0.012828,0.00061087
-0.041442,-1.9025,6.2763,7.7669,-0.030543,0.011301,0.00030543
-0.044669,-2.0202,6.2174,7.61,-0.025656,0.012828,-0.0048869
-0.046413,-1.9417,6.3547,7.6492,-0.013439,0.0097738,-0.0042761
-0.046525,-1.8633,6.3743,7.6296,-0.0058032,0.010079,-0.014355
-0.044903,-2.0986,6.3351,7.7473,-0.0058032,0.013744,-0.010996
-0.041549,-1.9417,6.3547,7.6884,-0.015272,0.015272,-0.0079412
-0.036508,-1.9417,6.3155,7.7865,-0.026267,0.017104,-0.0073304
-0.029918,-1.8633,6.2566,7.6296,-0.030849,0.017104,-0.0082467
-0.021984,-1.8044,6.2174,7.6884,-0.03207,0.014966,-0.0064141
-0.012966,-1.8437,6.3547,7.708,-0.021991,0.010996,-0.0024435
-0.0031776,-2.2163,6.2763,7.7865,-0.019548,0.0097738,-0.0036652
0.0070376,-2.2359,6.2763,7.7473,-0.020464,0.0094684,0.0009163
0.017325,-1.9417,6.2763,7.61,-0.023518,0.011301,0.0018326
0.027337,-1.8437,6.3547,7.7473,-0.0281,0.012828,0.0012217
0.036724,-1.9221,6.3743,7.6296,-0.031154,0.011606,0
0.045172,-2.079,6.2763,7.61,-0.033903,0.011606,-0.00030543
0.052394,-1.9221,6.2566,7.7473,-0.033903,0.013744,-0.0015272
0.058159,-1.8437,6.2763,7.6884,-0.027794,0.014355,-0.0033598
0.062287,-2.0202,6.1782,7.7473,-0.017715,0.011606,-0.0015272
0.064655,-2.0594,6.2763,7.6296,-0.009163,0.013439,-0.0048869
0.0652,-1.8437,6.2763,7.6884,-0.0058032,0.014966,-0.0033598
0.063894,-1.9417,6.3351,7.6492,-0.0094684,0.013134,-0.0039706
0.060786,-1.8437,6.1978,7.6492,-0.016188,0.011301,-0.0067195
0.055973,-2.079,6.1782,7.7669,-0.030543,0.011606,-0.0061087
0.049591,-2.0202,6.3351,7.6492,-0.039706,0.014661,-0.0048869
0.041827,-1.9221,6.3547,7.7669,-0.037263,0.013439,-0.0009163
0.032911,-2.2359,6.3547,7.708,-0.040928,0.010385,-0.00061087
0.023098,-1.9025,6.3547,7.6884,-0.04215,0.013439,0.0009163
0.01267,-2.0986,6.3155,7.7865,-0.040623,0.013744,0.002138
0.0019374,-2.0202,6.2959,7.7473,-0.032681,0.012523,0.0033598
-0.0087703,-2.1575,6.3547,7.7865,-0.02138,0.012217,0
-0.019123,-1.8437,6.2763,7.61,-0.012217,0.011606,-0.0018326
-0.028812,-2.079,6.3155,7.5903,-0.0085521,0.010996,0.00030543
-0.037533,-2.1575,6.3351,7.7473,-0.013134,0.012523,0
-0.045036,-2.0986,6.3351,7.61,-0.024129,0.014966,-0.00030543
-0.051105,-2.0006,6.3547,7.6492,-0.03543,0.013439,0.00061087
-0.055594,-2.0202,6.3547,7.5903,-0.037263,0.012217,-0.00061087
-0.058378,-1.8044,6.3547,7.7473,-0.034819,0.012828,-0.0015272
-0.059429,-2.0986,6.3155,7.7669,-0.034514,0.01069,0.0009163
-0.058775,-2.079,6.1586,7.7865,-0.033903,0.010079,0.00061087
-0.056523,-2.0986,6.3155,7.7865,-0.0281,0.010996,0
-0.052838,-1.8437,6.3547,7.6884,-0.030238,0.011606,-0.0009163
-0.047924,-2.2163,6.3547,7.7276,-0.034514,0.0085521,0
-0.04201,-2.0986,6.3547,7.7865,-0.033598,0.010079,-0.002138
-0.03538,-1.8437,6.1586,7.708,-0.028711,0.011912,0.0015272
-0.028291,-2.0202,6.2566,7.8649,-0.021991,0.012217,0.0024435
-0.021026,-2.0594,6.2763,7.6492,-0.01741,0.013439,-0.00061087
-0.013828,-1.9221,6.3351,7.61,-0.029322,0.01405,-0.002138
-0.0069304,-1.9613,6.3351,7.6296,-0.0281,0.013134,-0.002138
-0.00052167,-2.1771,6.3351,7.7865,-0.018631,0.013134,-0.00030543
0.0052701,-1.8437,6.2763,7.7473,-0.023213,0.015882,-0.0033598
0.010339,-2.079,6.3155,7.7865,-0.03207,0.012828,0.00061087
0.014638,-2.0202,6.3155,7.6884,-0.03879,0.010996,-0.00030543
0.018161,-1.9025,6.3547,7.6884,-0.038179,0.0094684,-0.00030543
0.020908,-2.0986,6.3743,7.7865,-0.036041,0.010079,0.00030543
0.022931,-1.9417,6.3351,7.7669,-0.031154,0.012217,0
0.024283,-1.9221,6.3155,7.6492,-0.02474,0.012217,0.0012217
0.025038,-2.0202,6.2763,7.5903,-0.018021,0.010079,-0.0015272
0.025284,-2.1182,6.3547,7.7865,-0.012217,0.0061087,-0.0015272
0.025079,-1.9417,6.3351,7.6492,-0.010385,0.0067195,-0.0027489
0.024517,-2.079,6.3155,7.7865,-0.010079,0.0082467,-0.0039706
0.023655,-2.1771,6.3547,7.8061,-0.012523,0.0088575,-0.0045815
0.022559,-1.8633,6.2566,7.6884,-0.01405,0.01069,-0.0042761
0.021286,-2.0202,6.3547,7.6884,-0.015882,0.012828,-0.0048869
0.019901,-1.8437,6.2763,7.6884,-0.020159,0.012828,-0.0039706
0.018447,-1.9417,6.2763,7.6884,-0.031765,0.013134,-0.0018326
0.016972,-2.0594,6.3547,7.7865,-0.030543,0.016799,-0.0045815
0.015523,-1.8044,6.1782,7.6492,-0.027489,0.014355,-0.0012217
0.014132,-1.8437,6.3155,7.7669,-0.029016,0.010385,-0.00061087
0.012844,-2.0006,6.2763,7.6296,-0.034514,0.010385,-0.002138
0.011687,-1.9025,6.2174,7.6884,-0.034819,0.011301,-0.002138
0.01069,-1.8437,6.2763,7.7473,-0.021686,0.012523,-0.00030543
0.0098655,-1.9025,6.3547,7.6884,-0.027184,0.012217,0
0.0092151,-1.9613,6.3547,7.7473,-0.016188,0.014355,-0.0073304
0.0087057,-2.0986,6.1782,7.7473,-0.011301,0.012523,-0.0051924
0.0083092,-1.8437,6.2763,7.61,-0.012217,0.01069,-0.0073304
0.0080105,-2.079,6.3547,7.7865,-0.01405,0.0097738,-0.0079412
0.0077339,-1.8633,6.3155,7.7669,-0.016493,0.0097738,-0.0058032
0.0073825,-2.0202,6.3155,7.6492,-0.019242,0.01069,-0.0064141
0.0068793,-1.8044,6.3351,7.7865,-0.025351,0.011301,-0.0058032
0.0061398,-1.8437,6.2174,7.708,-0.027489,0.012523,-0.0054978
0.0050932,-1.8437,6.2174,7.6492,-0.015577,0.014355,0
0.003674,-2.0986,6.3547,7.7865,-0.012523,0.0088575,0.002138
0.0018346,-1.9221,6.2763,7.6296,-0.016493,0.0097738,-0.012828
-0.00045258,-1.8437,6.3155,7.6296,-0.024435,0.014661,-0.009163
-0.0031749,-1.8437,6.3547,7.7865,-0.03146,0.016799,-0.007025
-0.0063142,-1.8044,6.3351,7.7669,-0.032681,0.016188,-0.0039706
-0.0097882,-1.9417,6.3351,7.6884,-0.030238,0.014966,-0.0030543
-0.013509,-2.0202,6.2763,7.61,-0.025656,0.01405,-0.0012217
-0.017356,-1.8437,6.1782,7.7865,-0.014661,0.012828,0.0024435
-0.021186,-2.0202,6.2174,7.7865,-0.010079,0.012523,0.0018326
-0.024836,-1.8437,6.1782,7.6884,-0.013744,0.0094684,0.002138
-0.028152,-1.8044,6.3351,7.7473,-0.01741,0.0076358,0.00061087
-0.030972,-2.0398,6.3547,7.7473,-0.022602,0.0085521,0.00061087
-0.033156,-2.1575,6.3155,7.7865,-0.0281,0.0097738,0.00061087
-0.034578,-1.9221,6.3547,7.7473,-0.027794,0.011912,0.00030543
-0.035158,-2.0986,6.3155,7.7865,-0.028405,0.014355,0.0009163
-0.034832,-1.7652,6.3547,7.6884,-0.027794,0.014966,-0.0027489
-0.03358,-1.8044,6.3155,7.7473,-0.026878,0.017104,-0.0045815
-0.031434,-1.9221,6.3547,7.61,-0.02138,0.016493,0.0009163
-0.028436,-1.9221,6.3351,7.7669,-0.016188,0.014355,-0.00030543
-0.024682,-1.9417,6.3155,7.61,-0.013744,0.013744,-0.0009163
-0.020284,-1.7652,6.3547,7.7669,-0.016188,0.013744,-0.0018326
-0.015363,-1.9613,6.3155,7.5903,-0.021991,0.014661,-0.0030543
-0.010056,-1.9221,6.2763,7.6884,-0.021991,0.014661,-0.0027489
-0.0045178,-1.9613,6.3155,7.6884,-0.0024435,0.009163,-0.0015272
0.0011052,-2.0006,6.3155,7.61,-0.0036652,0.0079412,-0.0030543
0.0066754,-1.9221,6.3351,7.6296,-0.010996,0.010385,-0.0082467
0.012089,-1.8437,6.3351,7.7669,-0.025962,0.013134,-0.0064141
0.017226,-1.9025,6.3547,7.7865,-0.038179,0.014966,-0.0045815
0.021998,-1.9417,6.1978,7.6296,-0.039706,0.016493,-0.0067195
0.026316,-1.8437,6.2763,7.6884,-0.037874,0.017104,-0.0067195
0.030107,-1.7848,6.3743,7.6884,-0.032376,0.01405,-0.0027489
0.033303,-2.1575,6.3547,7.7473,-0.024129,0.01069,-0.0030543
0.035845,-2.079,6.2763,7.6492,-0.016188,0.0076358,-0.0039706
0.037685,-1.7848,6.1782,7.6884,-0.010996,0.0061087,-0.0030543
0.038772,-1.9613,6.2763,7.7669,-0.0097738,0.0067195,-0.0036652
0.039072,-2.079,6.3547,7.6296,-0.017715,0.0085521,-0.0033598
0.038554,-1.9025,6.2174,7.6884,-0.027794,0.011912,-0.0045815
0.037227,-1.9417,6.3547,7.6884,-0.036346,0.014355,-0.0030543
0.035078,-1.8437,6.3547,7.7473,-0.039095,0.012828,-0.0018326
0.03216,-1.9221,6.3155,7.6884,-0.016799,0.013439,-0.009163
0.028497,-1.9221,6.2763,7.61,-0.011301,0.017104,-0.010385
0.024191,-1.8437,6.3547,7.6296,-0.0073304,0.013134,-0.0039706
0.01934,-2.0202,6.2763,7.7473,-0.0067195,0.01069,-0.0036652
0.014054,-2.0986,6.3351,7.7473,-0.01069,0.010385,-0.0048869
0.0084668,-2.0986,6.3155,7.7669,-0.018631,0.010996,-0.0073304
0.0027374,-1.9613,6.3547,7.708,-0.032987,0.011606,-0.0088575
-0.002987,-1.8633,6.3547,7.6884,-0.024435,0.013134,-0.0076358
-0.0085467,-1.8437,6.3547,7.7865,-0.024435,0.013744,-0.0064141
-0.013801,-1.9417,6.3743,7.6884,-0.019242,0.0085521,-0.0064141
-0.018609,-1.8437,6.2763,7.6884,-0.016188,0.010385,-0.010385
-0.022866,-1.8044,6.2763,7.7669,-0.01741,0.011912,-0.011301
-0.026463,-1.8437,6.3351,7.7669,-0.021991,0.011912,-0.0094684
-0.029336,-2.0986,6.3743,7.7669,-0.025045,0.011912,-0.0079412
-0.031431,-1.8633,6.2763,7.6884,-0.026573,0.012828,-0.0073304
-0.032704,-2.0202,6.2763,7.61,-0.027489,0.013439,-0.0061087
-0.033155,-1.9221,6.1782,7.6884,-0.018937,0.012828,-0.00061087
-0.03279,-2.2555,6.3351,7.7669,-0.021686,0.0088575,0.0012217
-0.031631,-1.8633,6.2763,7.6296,-0.026573,0.01069,-0.0058032
-0.029727,-2.0202,6.3155,7.61,-0.031154,0.014661,-0.0030543
-0.02713,-1.8633,6.2763,7.6884,-0.029322,0.01405,-0.0024435
-0.023913,-2.2359,6.3155,7.7865,-0.023824,0.013439,-0.002138
-0.020177,-2.0594,6.3155,7.61,-0.014966,0.014355,-0.0033598
-0.016025,-1.9417,6.3547,7.6884,-0.011301,0.014355,-0.0027489
-0.011587,-2.2163,6.3547,7.7865,-0.015882,0.015272,-0.002138
-0.0070049,-1.9025,6.3547,7.7473,-0.021991,0.017715,-0.0015272
-0.0024274,-2.0986,6.3351,7.7473,-0.027489,0.016493,0.00030543
0.0019708,-1.9613,6.3547,7.6884,-0.029016,0.013744,-0.0009163
0.0060476,-1.9025,6.3351,7.7473,-0.027184,0.013134,-0.0027489
0.0096557,-2.0202,6.3351,7.5511,-0.025656,0.012828,-0.0042761
0.012657,-1.9025,6.2763,7.6296,-0.021991,0.011606,-0.0024435
0.014953,-2.079,6.3547,7.5903,-0.019548,0.011606,-0.0015272
0.016476,-1.8437,6.3155,7.6884,-0.021686,0.013744,0
0.017217,-2.0594,6.3155,7.61,-0.024129,0.015577,-0.0009163
0.01719,-1.8633,6.0997,7.6492,-0.02138,0.014661,-0.0012217
0.016471,-2.0594,6.2763,7.8061,-0.016493,0.013439,0
0.015188,-2.0986,6.3547,7.61,-0.01405,0.010385,0.00030543
0.013477,-2.079,6.3351,7.61,-0.014966,0.0088575,-0.0009163
0.011527,-1.8437,6.1782,7.6492,-0.022907,0.0094684,-0.0009163
0.0095287,-2.0594,6.2763,7.61,-0.032987,0.011606,0.00061087
0.0076647,-1.8633,6.3547,7.6884,-0.021075,0.013134,-0.0039706
0.0060979,-1.9417,6.2763,7.6492,-0.012828,0.015577,-0.0064141
0.0049692,-1.9417,6.3547,7.6492,-0.011606,0.015882,-0.0018326
0.0043489,-1.9025,6.3351,7.6492,-0.011606,0.013439,-0.002138
0.0042802,-1.8437,6.3155,7.6884,-0.011912,0.014355,-0.0039706
0.0047282,-2.0986,6.2763,7.6884,-0.019853,0.016799,-0.0039706
0.0056258,-2.0986,6.2763,7.7669,-0.021991,0.016493,-0.0030543
0.0068528,-1.9417,6.3547,7.6884,-0.019548,0.01405,-0.0036652
0.0082448,-1.9025,6.2763,7.61,-0.027794,0.012217,0.0048869
0.0096188,-1.9025,6.3155,7.7473,-0.033903,0.010079,0.0036652
0.010813,-2.2359,6.3547,7.7669,-0.034819,0.013134,-0.0033598
0.01165,-2.0986,6.3351,7.708,-0.032987,0.016188,-0.0024435
0.012014,-2.0202,6.2763,7.6884,-0.030238,0.015882,0.00061087
0.011804,-2.1575,6.3547,7.7669,-0.023518,0.014661,0.0030543
0.010972,-1.9221,6.3155,7.61,-0.021991,0.013744,0.0039706
0.0095321,-1.8437,6.3547,7.6492,-0.022907,0.013744,0.0039706
0.0075227,-1.8044,6.1978,7.61,-0.023213,0.011301,0.0045815
0.0050468,-2.0594,6.3547,7.6884,-0.029627,0.0085521,0.0033598
0.0022199,-1.9417,6.3547,7.6884,-0.033903,0.009163,0.0036652
-0.00081944,-1.8829,6.1782,7.6884,-0.036957,0.010079,0.0045815
-0.0039368,-2.2163,6.3547,7.708,-0.032987,0.011912,0.0058032
-0.0069867,-2.1182,6.3155,7.7669,-0.026267,0.011301,0.0085521
-0.0098691,-1.9613,6.3351,7.6884,-0.019853,0.012217,0.0079412
-0.012503,-2.079,6.3743,7.7473,-0.019548,0.011606,0.007025
-0.014826,-1.8437,6.4135,7.7865,-0.0058032,0.011301,0.0018326
-0.016823,-2.2359,6.3743,7.708,-0.0012217,0.011912,0.0027489
-0.018497,-1.9025,6.3547,7.6296,-0.0061087,0.011912,0.0030543
-0.019868,-2.2555,6.3351,7.7473,-0.016799,0.011606,0.0030543
-0.020953,-2.0202,6.2763,7.6884,-0.027184,0.012828,0.0015272
-0.021785,-1.8437,6.2763,7.6296,-0.033903,0.015577,0.0015272
-0.022384,-1.8044,6.3351,7.6884,-0.019853,0.014966,0.0039706
-0.022739,-2.0202,6.3351,7.61,-0.014355,0.013744,0.0030543
-0.02283,-1.8437,6.3351,7.6884,-0.007025,0.0088575,-0.009163
-0.022623,-2.2359,6.3743,7.7669,-0.0045815,0.010079,-0.0058032
-0.022047,-1.9613,6.3547,7.6884,-0.0067195,0.013439,-0.0024435
-0.021042,-1.9613,6.2763,7.7473,-0.017104,0.016493,-0.0036652
-0.019543,-2.0202,6.3155,7.61,-0.027794,0.018021,-0.0027489
-0.017484,-1.8437,6.3547,7.7473,-0.029627,0.016799,-0.002138
-0.014827,-1.8044,6.3743,7.6884,-0.024129,0.015577,-0.0054978
-0.011565,-1.8044,6.3547,7.61,-0.02138,0.012828,-0.0085521
-0.0077043,-1.8044,6.3155,7.6884,-0.020464,0.011301,-0.0018326
-0.0033213,-2.079,6.2763,7.8061,-0.020464,0.01069,0.0009163
0.0014886,-2.0594,6.3547,7.6296,-0.020159,0.0097738,0.00061087
0.0066031,-1.8437,6.3547,7.7865,-0.022602,0.011606,0.0012217
0.011859,-1.7848,6.3743,7.708,-0.019853,0.011912,0.0015272
0.01709,-1.9613,6.3351,7.61,-0.011301,0.01069,0.0015272
0.022118,-1.9221,6.3351,7.61,-0.0076358,0.01069,-0.00061087
0.026756,-2.0202,6.3351,7.6884,-0.010385,0.012828,-0.0024435
0.030851,-1.9025,6.2763,7.61,-0.018937,0.012217,-0.0012217
0.034258,-1.9417,6.3351,7.61,-0.029016,0.012523,-0.00061087
0.036853,-1.9417,6.3743,7.6884,-0.034514,0.014355,-0.0009163
0.038573,-1.8437,6.3547,7.7473,-0.034514,0.013744,-0.0030543
0.039367,-1.9221,6.3743,7.6884,-0.029932,0.012217,-0.0024435
0.039209,-1.9417,6.3351,7.6492,-0.020769,0.011606,-0.0024435
0.038119,-1.8044,6.1782,7.6296,-0.013134,0.011301,-0.0033598
0.036127,-2.0202,6.3351,7.61,-0.0094684,0.01069,-0.0027489
0.03328,-1.8437,6.2763,7.6884,-0.022907,0.0076358,-0.0018326
0.029648,-1.9613,6.3351,7.5511,-0.019853,0.0088575,-0.00061087
0.025296,-1.9613,6.2763,7.61,-0.016799,0.0088575,-0.00061087
0.020318,-1.8044,6.3155,7.6884,-0.013439,0.0097738,-0.0030543
0.014794,-1.8437,6.1978,7.6492,-0.011606,0.012828,-0.0048869
0.0088268,-1.9417,6.4135,7.6884,-0.012523,0.014355,-0.0027489
0.0025225,-1.9417,6.3155,7.7669,-0.016799,0.014966,-0.00030543
-0.0040008,-1.8633,6.3351,7.7669,-0.024129,0.014355,-0.00061087
-0.01061,-1.8044,6.3351,7.6492,-0.030543,0.012217,-0.0027489
-0.017157,-1.9221,6.4135,7.6492,-0.031154,0.0079412,0
-0.023466,-1.8437,6.3547,7.6492,-0.033292,0.0094684,0.0009163
-0.029371,-1.7848,6.2763,7.6884,-0.028405,0.011912,0.0009163
-0.03468,-1.8044,6.2763,7.6884,-0.01741,0.011912,0
-0.039217,-2.0986,6.3547,7.7473,-0.011606,0.010996,0
-0.04279,-2.0202,6.3351,7.61,-0.010996,0.010996,0
-0.045242,-1.9221,6.3547,7.6884,-0.014966,0.011301,-0.0027489
-0.046435,-2.079,6.3547,7.7473,-0.029932,0.015577,-0.0067195
-0.046275,-1.8633,6.3351,7.6884,-0.032376,0.018021,-0.0076358
-0.04471,-2.2359,6.4135,7.7865,-0.034819,0.017715,-0.0097738
-0.04174,-1.8437,6.3155,7.6884,-0.032681,0.014661,-0.0097738
-0.037434,-2.0594,6.3547,7.7865,-0.028405,0.012217,-0.007025
-0.031906,-1.8633,6.3155,7.6884,-0.018937,0.01069,-0.007025
-0.02535,-1.9613,6.3351,7.6884,-0.026573,0.011301,-0.0073304
-0.017999,-1.8437,6.3155,7.7669,-0.033292,0.0097738,-0.0073304
-0.010139,-2.1771,6.3743,7.7865,-0.014355,0.012523,-0.0009163
-0.0020971,-2.0202,6.3547,7.6884,-0.017715,0.012217,-0.0033598
0.0057985,-1.9221,6.3155,7.6492,-0.018326,0.012217,0.0012217
0.013211,-1.9417,6.3547,7.6884,-0.017104,0.012828,0.0015272
0.019826,-1.8437,6.3351,7.6884,-0.01741,0.014355,0.00030543
0.025362,-1.8437,6.1978,7.6884,-0.023518,0.016188,0.00030543
0.029577,-2.0006,6.3547,7.5903,-0.030543,0.017104,0.0012217
0.032311,-1.9613,6.3351,7.6884,-0.029322,0.015272,0.00061087
0.033477,-2.0202,6.3155,7.61,-0.010079,0.013439,-0.0030543
0.03307,-1.8437,6.1586,7.6884,-0.012217,0.013134,-0.0018326
0.031164,-2.1575,6.4135,7.7473,-0.024435,0.010079,-0.0051924
0.027939,-2.0202,6.3743,7.6296,-0.033598,0.0097738,-0.0061087
0.023622,-1.9417,6.3547,7.6884,-0.038179,0.012828,-0.0042761
0.018523,-1.8437,6.2566,7.6492,-0.035736,0.014661,-0.002138
0.012988,-2.0594,6.2763,7.6492,-0.022602,0.014966,-0.0033598
0.0073809,-2.0986,6.3547,7.7473,-0.018021,0.013744,-0.0045815
0.0020736,-1.8437,6.2763,7.6296,-0.020769,0.01405,-0.011301
-0.0025921,-1.9417,6.3351,7.61,-0.012523,0.013439,-0.0085521
-0.0063193,-1.9417,6.3547,7.6492,-0.0064141,0.012217,-0.0015272
-0.0088819,-1.8437,6.1782,7.6296,-0.0067195,0.011301,-0.0033598
-0.01013,-1.9221,6.3351,7.6492,-0.0097738,0.011301,-0.007025
-0.010015,-1.8437,6.3155,7.6884,-0.015882,0.011606,-0.009163
-0.0085713,-1.8044,6.3547,7.6884,-0.031154,0.010996,-0.0085521
-0.0059404,-1.8437,6.3547,7.6884,-0.027489,0.013439,-0.010079
-0.0023446,-1.9221,6.3547,7.6492,-0.022602,0.010996,-0.0051924
0.0019273,-2.079,6.2763,7.7865,-0.01069,0.0097738,-0.0039706
0.0065357,-1.9221,6.3155,7.6296,-0.019242,0.011606,-0.00030543
0.011131,-1.8437,6.3743,7.6492,-0.023824,0.015577,-0.0033598
0.015349,-2.2359,6.3743,7.7865,-0.029932,0.01741,-0.0045815
0.018866,-2.0986,6.3547,7.7865,-0.030543,0.018937,-0.0036652
0.021411,-2.0202,6.2763,7.708,-0.026573,0.017104,-0.0054978
0.02273,-1.9025,6.3155,7.7473,-0.023518,0.015272,-0.0058032
0.022732,-2.0006,6.3351,7.61,-0.016493,0.016493,-0.0076358
0.021353,-2.079,6.3351,7.5511,-0.020159,0.021991,-0.0097738
0.01865,-1.9613,6.2763,7.7669,-0.021686,0.021075,-0.0051924
0.014745,-2.0594,6.3351,7.6296,-0.021686,0.01741,-0.0064141
0.0098429,-2.0202,6.3351,7.5511,-0.017715,0.016188,-0.0079412
0.004203,-1.9025,6.3351,7.7473,-0.015882,0.013439,-0.009163
-0.0018866,-1.8044,6.2763,7.6492,-0.015272,0.010996,-0.0094684
-0.008106,-1.8437,6.3547,7.7669,-0.014355,0.013134,-0.0088575
-0.014162,-2.0594,6.3547,7.6296,-0.019242,0.014355,-0.0058032
-0.019759,-1.8437,6.3155,7.6884,-0.023213,0.011606,-0.0064141
-0.024667,-2.0594,6.3547,7.61,-0.018937,0.013439,-0.009163
-0.028678,-1.9221,6.2566,7.6492,-0.013439,0.01405,-0.010079
-0.031665,-1.8437,6.3547,7.7473,-0.0088575,0.014355,-0.013744
-0.033549,-1.9613,6.3547,7.6296,-0.007025,0.012523,-0.013134
-0.034295,-1.9613,6.3743,7.6884,-0.010385,0.013439,-0.010996
-0.03395,-2.0202,6.3547,7.6296,-0.021991,0.017104,-0.0079412
-0.032573,-1.8437,6.1782,7.6492,-0.029322,0.017104,-0.0061087
-0.030283,-2.2359,6.3547,7.7865,-0.028405,0.018631,-0.0024435
-0.027211,-2.0202,6.3155,7.61,-0.02474,0.016799,-0.0082467
-0.023504,-1.9417,6.3351,7.6492,-0.026878,0.014661,-0.0061087
-0.019317,-2.2359,6.3351,7.7669,-0.029322,0.012828,-0.0024435
-0.014809,-1.8633,6.3351,7.6884,-0.026267,0.01405,-0.0015272
-0.01011,-1.9417,6.2174,7.6492,-0.019853,0.013134,-0.002138
-0.0053592,-1.9613,6.3547,7.5511,-0.011912,0.010079,-0.0045815
-0.00065851,-2.079,6.3547,7.6296,-0.022907,0.013744,-0.0012217
0.0038723,-1.8633,6.3351,7.61,-0.025962,0.016799,-0.00061087
0.0081576,-1.8437,6.2174,7.61,-0.026573,0.016799,-0.0042761
0.012134,-2.0594,6.3351,7.6884,-0.027489,0.01405,-0.0048869
0.015741,-2.0986,6.3547,7.7473,-0.024435,0.011606,-0.0048869
0.018938,-2.0986,6.3351,7.6296,-0.016799,0.011912,-0.0058032
0.021686,-2.2359,6.4135,7.7473,-0.011912,0.011912,-0.0051924
0.023959,-2.079,6.4724,7.7473,-0.015577,0.011912,-0.0024435
0.025734,-2.079,6.3547,7.4923,-0.027794,0.011606,0.0033598
0.026989,-1.8437,6.2763,7.61,-0.026573,0.011606,0.0036652
0.027719,-1.9025,6.3547,7.6296,-0.026573,0.014355,0.00030543
0.02792,-1.9417,6.3743,7.61,-0.028711,0.013744,0.0015272
0.027579,-2.0986,6.3547,7.61,-0.031765,0.013134,0.00061087
0.02671,-2.079,6.2763,7.7473,-0.033903,0.012217,0.00061087
0.025313,-2.0986,6.4135,7.61,-0.023824,0.011606,0.0024435
0.023413,-1.8437,6.3547,7.6884,-0.027489,0.013134,0.0039706
0.021024,-1.9613,6.3547,7.6884,-0.025656,0.012523,-0.0024435
0.01819,-1.9417,6.3547,7.6884,-0.023824,0.0094684,-0.00030543
0.014947,-1.8437,6.3351,7.708,-0.01741,0.010385,0.0042761
0.011356,-2.079,6.3155,7.5903,-0.013744,0.011606,0.0036652
0.0074835,-2.0986,6.3547,7.7473,-0.012523,0.012523,0.002138
0.003419,-1.9613,6.3351,7.61,-0.014661,0.012523,-0.00030543
-0.00075035,-1.9025,6.3547,7.6296,-0.030238,0.01069,0
-0.0049191,-1.8437,6.3547,7.6492,-0.026573,0.010996,-0.0018326
-0.0089799,-1.9221,6.3547,7.6884,-0.035125,0.012828,-0.0054978
-0.012814,-1.9025,6.3547,7.7473,-0.034514,0.019242,-0.0042761
-0.01631,-1.8437,6.2763,7.6884,-0.030543,0.01741,0.002138
-0.01936,-1.9025,6.3547,7.708,-0.025656,0.014966,0.00061087
-0.021884,-2.0986,6.3743,7.708,-0.014966,0.015272,-0.0018326
-0.023791,-2.0986,6.1978,7.7669,-0.0039706,0.012217,-0.0024435
-0.02503,-1.8437,6.1978,7.5903,-0.022602,0.0094684,-0.002138
-0.025562,-1.8633,6.3547,7.61,-0.03146,0.0094684,-0.0039706
-0.025391,-2.2163,6.4332,7.6884,-0.028405,0.011301,0.0015272
-0.024526,-2.0986,6.3743,7.8061,-0.031154,0.013439,-0.0009163
-0.023016,-2.079,6.3743,7.5511,-0.032376,0.013439,0.00061087
-0.020914,-1.9025,6.1978,7.61,-0.03146,0.013439,0.0009163
-0.018302,-2.0986,6.3155,7.61,-0.027184,0.016188,0.0027489
-0.015268,-1.9025,6.2174,7.6296,-0.025351,0.016188,0.0030543
-0.011917,-2.2359,6.3743,7.7865,-0.02138,0.01405,0.0030543
-0.0083596,-1.9613,6.3743,7.6296,-0.014661,0.013439,0.0024435
-0.0047103,-2.0986,6.3547,7.6884,-0.013134,0.01069,0.0024435
-0.0010805,-2.2359,6.3155,7.7669,-0.013134,0.0094684,0.00061087
0.0024336,-2.0594,6.2174,7.6884,-0.016188,0.0094684,-0.0030543
0.0057202,-2.0986,6.4135,7.7473,-0.023213,0.010385,-0.0030543
0.0086866,-1.9417,6.3743,7.6492,-0.030543,0.012217,-0.0042761
0.011263,-1.8437,6.3547,7.7473,-0.03207,0.013134,-0.002138
0.013358,-1.8633,6.2566,7.6492,-0.029627,0.013744,-0.0009163
0.014917,-1.8437,6.2763,7.61,-0.025351,0.014355,0.00061087
0.015894,-1.8437,6.3547,7.61,-0.02138,0.012217,0.0033598
0.016258,-1.9417,6.3547,7.61,-0.021991,0.011606,0.0036652
0.016008,-1.9417,6.4135,7.6492,-0.025962,0.01069,0.00030543
0.015156,-1.9613,6.3547,7.6884,-0.029016,0.0094684,0.0015272
0.013754,-1.9221,6.3743,7.6296,-0.029016,0.0094684,0.00061087
0.011881,-2.079,6.3547,7.6884,-0.028711,0.0097738,0.00061087
0.0096283,-2.0202,6.2763,7.6884,-0.024435,0.010385,0.00061087
0.007134,-2.0202,6.3351,7.6296,-0.022297,0.01069,-0.00030543
0.0045359,-1.8633,6.2763,7.6884,-0.023824,0.013439,0.00061087
0.0019917,-2.2359,6.3547,7.7669,-0.029322,0.011606,0
-0.00033997,-1.9417,6.3743,7.6884,-0.033292,0.013744,0.0045815
-0.0023203,-1.9025,6.2174,7.6296,-0.030238,0.015577,0.0036652
-0.0038074,-1.9417,6.3547,7.6492,-0.024435,0.014661,0.0012217
-0.0047121,-2.0986,6.3547,7.7865,-0.014661,0.012828,0.0012217
-0.0049662,-1.8044,6.4135,7.6296,-0.010996,0.010996,0.00030543
-0.0045556,-1.9417,6.3547,7.6492,-0.018631,0.011301,-0.00030543
-0.0035123,-2.0594,6.3547,7.61,-0.018937,0.012523,0.0015272
-0.0019116,-2.079,6.3547,7.708,-0.020159,0.011606,0.0015272
0.00012845,-2.0202,6.2566,7.6884,-0.022907,0.010996,-0.00061087
0.0024703,-2.0986,6.3351,7.6884,-0.028405,0.010996,0.002138
0.0049322,-2.2163,6.3547,7.708,-0.030543,0.011301,0.0027489
0.0073555,-1.7652,6.3155,7.6884,-0.031154,0.0094684,0.0009163
0.0095455,-2.0202,6.3743,7.6884,-0.025351,0.0079412,0.0018326
0.011348,-1.9613,6.3743,7.6296,-0.019548,0.0079412,0.0012217
0.012625,-2.0594,6.3547,7.6296,-0.01741,0.0079412,0.0012217
0.013275,-1.9417,6.3351,7.61,-0.018937,0.0082467,0.0012217
0.013229,-2.0594,6.3351,7.5511,-0.020159,0.011912,0.0009163
0.01246,-1.7848,6.3547,7.7473,-0.020159,0.01405,0.0024435
0.010979,-2.0986,6.3743,7.7669,-0.01741,0.015272,0.0012217
0.0088208,-2.0594,6.1978,7.6884,-0.016799,0.015272,0.0009163
0.0060801,-2.0986,6.3743,7.7473,-0.028711,0.015577,-0.00030543
0.0028252,-1.9221,6.3547,7.7669,-0.019853,0.013744,-0.0015272
-0.00081521,-2.0986,6.3547,7.7473,-0.026573,0.013744,-0.0042761
-0.0047331,-1.9613,6.4332,7.6492,-0.029016,0.011912,-0.0064141
-0.0087986,-1.8044,6.1782,7.61,-0.028405,0.011912,-0.0030543
-0.012869,-2.0202,6.2174,7.61,-0.025045,0.012828,-0.0024435
-0.016821,-1.8437,6.2763,7.6492,-0.017715,0.010385,-0.0027489
-0.020505,-1.9221,6.4135,7.6884,-0.011912,0.01069,-0.002138
-0.023784,-1.9025,6.3155,7.5903,-0.0094684,0.011301,-0.0015272
-0.026526,-1.8044,6.3155,7.6296,-0.009163,0.014966,-0.0018326
-0.028603,-2.2359,6.3547,7.7865,-0.01741,0.017715,0.0033598
-0.029878,-1.9417,6.3547,7.6492,-0.028405,0.018937,0.0018326
-0.030258,-2.0986,6.3743,7.7865,-0.038485,0.014355,-0.0088575
-0.029651,-1.9417,6.4135,7.6492,-0.040928,0.0094684,-0.010079
-0.028017,-1.8633,6.3547,7.6492,-0.038485,0.009163,-0.0085521
-0.025354,-1.8437,6.4135,7.6884,-0.033292,0.0097738,-0.0042761
-0.021698,-1.8437,6.4135,7.61,-0.010385,0.010996,-0.0009163
-0.017151,-1.7848,6.3547,7.6884,-0.010996,0.012523,0.0015272
-0.01186,-1.8437,6.3547,7.6492,-0.027489,0.012828,-0.0015272
-0.0060256,-2.0986,6.3547,7.7669,-0.020769,0.009163,-0.00061087
0.00012863,-1.8437,6.3743,7.7473,-0.013744,0.011301,-0.00030543
0.0063473,-2.0202,6.3547,7.6296,-0.0064141,0.013134,-0.0027489
0.012362,-1.9221,6.3547,7.6884,-0.0036652,0.011606,-0.0042761
0.017933,-2.0594,6.3547,7.6296,-0.0036652,0.011606,-0.0048869
0.022833,-1.8633,6.2174,7.6296,-0.0073304,0.012217,-0.0045815
0.026885,-1.8633,6.3547,7.6884,-0.016799,0.013134,-0.002138
0.029969,-2.079,6.2763,7.61,-0.027794,0.014355,0.00030543
0.032046,-1.9417,6.3547,7.6884,-0.036041,0.015882,0.0009163
0.033123,-2.0594,6.3547,7.61,-0.033598,0.014661,-0.0012217
0.033283,-1.9025,6.3547,7.7473,-0.026878,0.012828,-0.0033598
0.032642,-1.9417,6.3547,7.6884,-0.025351,0.011912,-0.0027489
0.031354,-1.9221,6.3547,7.6884,-0.026573,0.011912,-0.0015272
0.029585,-1.8044,6.3155,7.6492,-0.0281,0.012217,-0.0018326
0.027482,-2.0594,6.3547,7.61,-0.031154,0.01405,-0.0012217
0.025175,-2.0986,6.3743,7.7473,-0.027184,0.012523,0.00030543
0.022749,-1.9417,6.3547,7.6492,-0.02138,0.012828,-0.0015272
0.020234,-1.9025,6.3155,7.6492,-0.02138,0.013439,-0.0015272
0.017609,-1.7848,6.3547,7.6492,-0.026573,0.014355,0.0015272
0.014814,-2.2163,6.3547,7.6884,-0.029627,0.014966,0.002138
0.011756,-2.079,6.3743,7.6884,-0.03146,0.014966,0
0.0083345,-1.9417,6.3351,7.6296,-0.030543,0.013439,0
0.0044565,-1.7848,6.1586,7.61,-0.025045,0.014661,0.0015272
6.7422e-05,-2.2163,6.3547,7.708,-0.020464,0.014355,-0.0018326
-0.004843,-2.079,6.3547,7.7669,-0.019242,0.015577,-0.0015272
-0.01022,-1.8437,6.3547,7.6492,-0.019548,0.014355,-0.0030543
-0.015912,-1.9417,6.3547,7.61,-0.019548,0.012828,-0.0030543
-0.021732,-2.0594,6.3351,7.5903,-0.020159,0.013439,-0.002138
-0.027417,-1.8437,6.2174,7.61,-0.025962,0.013744,-0.002138
-0.032659,-1.9221,6.4135,7.6884,-0.030238,0.013134,-0.0015272
-0.037141,-2.0006,6.3155,7.61,-0.032376,0.01405,-0.00061087
-0.040557,-1.8044,6.2174,7.61,-0.035736,0.01405,-0.010079
-0.042651,-1.8044,6.3547,7.7473,-0.035125,0.01405,-0.010385
-0.043224,-2.079,6.4135,7.7473,-0.030238,0.014355,-0.0045815
-0.042173,-2.0986,6.4135,7.7669,-0.025045,0.013134,-0.0051924
-0.039479,-1.8437,6.3547,7.708,-0.017715,0.013134,-0.0067195
-0.035253,-1.9221,6.3547,7.6492,-0.010079,0.012828,-0.0073304
-0.029694,-2.0202,6.2763,7.61,-0.027489,0.010996,-0.0073304
-0.02309,-1.8437,6.3351,7.7473,-0.031154,0.011912,-0.007025
-0.015783,-1.9417,6.3547,7.7473,-0.017715,0.010385,-0.0073304
-0.008154,-1.8633,6.4135,7.6296,-0.0088575,0.0054978,-0.009163
-0.00059559,-2.0986,6.3547,7.6884,-0.0033598,0.0058032,-0.0076358
0.0065322,-2.079,6.3547,7.7669,-0.0076358,0.0082467,-0.0085521
0.012933,-1.9613,6.3155,7.6884,-0.017104,0.009163,-0.0079412
0.018341,-1.9221,6.3547,7.708,-0.023213,0.0097738,-0.0073304
0.022604,-1.8437,6.3743,7.7669,-0.024129,0.011301,-0.0058032
0.025631,-1.8633,6.2763,7.5903,-0.02474,0.012523,-0.0058032
0.027426,-2.0202,6.3547,7.5511,-0.029932,0.011912,-0.0027489
0.028042,-1.9417,6.3547,7.61,-0.025351,0.011606,-0.0045815
0.02761,-1.9025,6.3547,7.6296,-0.024129,0.010996,-0.0097738
0.026279,-1.8437,6.3743,7.61,-0.024129,0.012523,-0.0082467
0.024223,-2.0986,6.3743,7.7865,-0.026267,0.011912,-0.007025
0.021633,-1.8437,6.3155,7.6296,-0.029932,0.011301,-0.0048869
0.018687,-2.0986,6.4135,7.708,-0.026573,0.010996,-0.0042761
0.015552,-1.8437,6.3547,7.6296,-0.029932,0.013439,-0.0030543
0.012366,-2.1575,6.3743,7.7473,-0.024129,0.013744,-0.0067195
0.0092751,-2.0986,6.4135,7.7473,-0.020159,0.013744,-0.0054978
0.006373,-2.0986,6.2763,7.7473,-0.017104,0.013134,-0.0067195
0.0037718,-2.0202,6.3547,7.6884,-0.016188,0.012217,-0.0067195
0.0015644,-1.9025,6.3547,7.6296,-0.019242,0.012217,-0.009163
-0.00018561,-1.8437,6.3351,7.7473,-0.02474,0.011301,-0.010079
-0.001412,-1.9613,6.3547,7.61,-0.030238,0.011301,-0.0082467
-0.0020709,-2.1575,6.3547,7.7865,-0.028405,0.011912,-0.0073304
-0.0021374,-1.9025,6.4135,7.6492,-0.02138,0.013439,-0.0064141
-0.0016361,-2.0986,6.3547,7.7865,-0.017715,0.012217,-0.0058032
-0.00060308,-1.8633,6.3547,7.6884,-0.012217,0.014661,-0.0064141
0.00085987,-1.8437,6.2763,7.61,-0.0082467,0.018021,-0.0076358
0.0026204,-1.8437,6.3547,7.6884,-0.0082467,0.019242,-0.0088575
0.00451,-1.8437,6.2174,7.5903,-0.01405,0.019548,-0.0067195
0.0063222,-2.0202,6.3547,7.6492,-0.024435,0.018937,-0.0067195
0.0078278,-1.9417,6.3547,7.6492,-0.031765,0.017104,-0.0076358
0.0088105,-1.9025,6.2174,7.6296,-0.028405,0.014966,-0.012828
0.0090775,-1.8437,6.3547,7.6492,-0.016799,0.012523,-0.011912
0.0084742,-2.0202,6.3547,7.61,-0.011606,0.010385,-0.0073304
0.0069019,-1.9417,6.3547,7.6884,-0.015272,0.012217,-0.0054978
0.0043623,-2.1182,6.3351,7.6492,-0.018326,0.014661,-0.0051924
0.0009341,-1.8044,6.3351,7.61,-0.016799,0.014355,-0.007025
-0.0032462,-2.0986,6.3155,7.7865,-0.014355,0.013744,-0.011912
-0.007931,-2.0202,6.4135,7.6296,-0.015882,0.012217,-0.01405
-0.012842,-2.079,6.2763,7.4531,-0.017715,0.012217,-0.0036652
-0.017655,-1.9613,6.2763,7.6296,-0.024435,0.017715,-0.0048869
-0.022045,-2.1575,6.4135,7.708,-0.029627,0.018631,-0.010079
-0.025706,-1.8437,6.3547,7.6884,-0.030238,0.016799,-0.0079412
-0.028397,-1.9613,6.3743,7.7473,-0.026267,0.015882,-0.0061087
-0.02994,-2.0202,6.3547,7.61,-0.017104,0.01405,-0.0054978
-0.030242,-2.0986,6.3351,7.6884,-0.010385,0.010996,-0.0058032
-0.029313,-1.9417,6.3351,7.6296,-0.01069,0.0082467,-0.0039706
-0.027247,-2.0986,6.3547,7.6884,-0.014966,0.0064141,-0.0015272
-0.024237,-2.1575,6.4724,7.708,-0.020769,0.0054978,-0.0015272
-0.020488,-2.0202,6.3547,7.61,-0.029322,0.009163,-0.0042761
-0.016265,-2.2359,6.3547,7.7865,-0.032376,0.012828,-0.0027489
-0.011836,-2.1182,6.3351,7.6492,-0.032681,0.012523,-0.0027489
-0.0074336,-2.1182,6.3155,7.5511,-0.029016,0.01069,-0.0018326
-0.0032539,-1.9417,6.3743,7.61,-0.02138,0.011606,-0.00061087
0.00058701,-1.8437,6.4332,7.6884,-0.015272,0.012828,-0.0012217
0.0040317,-2.0398,6.3547,7.6884,-0.026573,0.011912,0.002138
0.0070816,-2.0986,6.3547,7.5903,-0.022602,0.0085521,0.002138
0.0098082,-1.9025,6.2174,7.6492,-0.021991,0.010996,-0.0048869
0.012325,-1.9025,6.3547,7.7473,-0.022907,0.011301,-0.0027489
0.014734,-1.9417,6.4135,7.6296,-0.023518,0.01069,-0.00030543
0.017163,-1.8437,6.4135,7.6884,-0.022297,0.012523,-0.0018326
0.019683,-1.9221,6.3743,7.6296,-0.019548,0.012217,-0.0012217
0.022324,-2.0594,6.3547,7.61,-0.014661,0.013439,0.00030543
0.025045,-1.9221,6.3351,7.6884,-0.025351,0.014355,-0.0024435
0.027754,-2.0006,6.3547,7.61,-0.03543,0.014966,0.0009163
0.030297,-2.2359,6.3547,7.708,-0.039095,0.014355,0.0012217
0.032479,-1.9417,6.3547,7.7669,-0.038179,0.012217,0.0012217
0.034052,-1.9417,6.3547,7.6492,-0.035736,0.013439,0.0009163
0.034832,-2.0986,6.4135,7.5315,-0.027489,0.013744,0.002138
0.034611,-2.0594,6.3547,7.5903,-0.014355,0.013744,0.002138
0.033253,-2.0202,6.4135,7.61,-0.016799,0.012523,-0.00061087
0.030684,-2.0594,6.3547,7.5511,-0.020464,0.010385,0.0027489
0.026913,-2.079,6.2763,7.6884,-0.026573,0.010996,0
0.022029,-1.8437,6.3547,7.6492,-0.032987,0.011912,0.002138
0.016198,-1.9025,6.2763,7.6296,-0.031154,0.013134,0.002138
0.0096667,-1.9025,6.4135,7.6884,-0.025656,0.013134,0.0024435
0.0026958,-2.1182,6.4135,7.7473,-0.020464,0.012217,0.0024435
-0.0044164,-1.9025,6.3155,7.708,-0.018937,0.010385,0.002138
-0.011345,-2.0202,6.3351,7.6296,-0.018937,0.010079,0.0039706
-0.01783,-1.9025,6.1978,7.61,-0.018021,0.011301,-0.0015272
-0.023626,-1.9221,6.3743,7.6884,-0.018326,0.0097738,-0.0027489
-0.028577,-1.9417,6.3743,7.61,-0.019548,0.012828,-0.0012217
-0.032562,-1.9417,6.3547,7.6492,-0.02138,0.015882,-0.0018326
-0.035525,-2.079,6.3351,7.61,-0.019853,0.015577,-0.0051924
-0.037481,-1.8633,6.3547,7.708,-0.018631,0.013134,-0.0082467
-0.03847,-2.0202,6.4135,7.6296,-0.019548,0.010385,-0.010385
-0.038575,-1.9417,6.3743,7.61,-0.018937,0.009163,-0.009163
-0.037886,-1.8044,6.2763,7.61,-0.0073304,0.010996,-0.0024435
-0.036509,-2.2359,6.3351,7.708,-0.0064141,0.0088575,-0.00061087
-0.03452,-2.2163,6.3155,7.7473,-0.014966,0.0094684,-0.0033598
-0.031985,-1.8633,6.2566,7.61,-0.02474,0.01069,-0.0048869
-0.028949,-1.9025,6.3547,7.6884,-0.030543,0.01405,-0.0054978
-0.025441,-2.1771,6.3743,7.708,-0.034208,0.015882,-0.0042761
-0.021491,-1.8633,6.3547,7.6884,-0.034514,0.016799,-0.0033598
-0.017133,-1.8437,6.2566,7.61,-0.035736,0.014966,-0.0045815
-0.012386,-1.8437,6.3547,7.7669,-0.033292,0.011301,0.00030543
-0.0073259,-2.0986,6.4135,7.6884,-0.026267,0.012217,0.00030543
-0.0020219,-2.079,6.3351,7.7669,-0.018326,0.009163,0.0012217
0.0034001,-2.0202,6.3547,7.5903,-0.013134,0.0058032,0.00030543
0.0088028,-1.8437,6.3547,7.6296,-0.013134,0.0064141,-0.00030543
0.014027,-1.9417,6.4135,7.61,-0.023518,0.0094684,-0.00061087
0.018862,-1.9417,6.3547,7.61,-0.032376,0.012828,0.00061087
0.023154,-2.0202,6.2763,7.7669,-0.034819,0.013439,0
0.026715,-2.0594,6.3547,7.6296,-0.033903,0.013744,0.00061087
0.029413,-1.9025,6.2763,7.61,-0.033903,0.010079,0.0009163
0.031136,-1.9417,6.4135,7.6884,-0.030238,0.01069,0.0018326
0.031839,-1.8044,6.3155,7.61,-0.024435,0.011606,0.0036652
0.031524,-2.0202,6.3547,7.5903,-0.018326,0.012828,0.0036652
0.030253,-2.2359,6.3351,7.7473,-0.014966,0.013134,0.0009163
0.028147,-1.9221,6.3547,7.6296,-0.018631,0.013134,-0.00030543
0.025353,-1.8437,6.2763,7.6884,-0.027794,0.013744,-0.00061087
0.022088,-1.9613,6.4135,7.6884,-0.021686,0.011301,-0.0018326
0.018555,-2.0986,6.4135,7.7473,-0.026573,0.014355,-0.0027489
0.014975,-2.0202,6.3351,7.7669,-0.029322,0.01405,-0.00061087
0.011561,-1.8437,6.3547,7.7669,-0.032987,0.013439,-0.00061087
0.0084833,-1.9417,6.3547,7.6492,-0.034514,0.014966,-0.002138
0.0058893,-2.0202,6.3547,7.5511,-0.032681,0.015577,-0.00030543
0.0038667,-2.0202,6.2763,7.6884,-0.025351,0.014355,0.00061087
0.0024514,-2.0986,6.3547,7.6884,-0.015882,0.012828,0
0.0016383,-1.9025,6.2763,7.6296,-0.013134,0.010996,-0.0030543
0.0013578,-1.9417,6.3155,7.61,-0.016188,0.012828,-0.0018326
0.0015072,-2.079,6.4135,7.61,-0.017715,0.01069,-0.0015272
0.0019402,-2.0202,6.3547,7.5511,-0.015882,0.0082467,-0.0015272
0.0025026,-1.9417,6.3547,7.6296,-0.011606,0.009163,-0.00061087
0.0030131,-1.8633,6.1978,7.6296,-0.011301,0.011606,0
0.0033116,-1.9417,6.4135,7.6296,-0.013439,0.015272,-0.002138
0.003238,-1.9025,6.3743,7.6492,-0.01405,0.016799,-0.0039706
0.0026687,-1.9221,6.4135,7.6296,-0.010996,0.015577,-0.0039706
0.0015135,-1.9025,6.3547,7.5903,-0.012217,0.017104,-0.0033598
-0.00026462,-1.9221,6.3547,7.6884,-0.016188,0.015882,-0.0024435
-0.0026653,-2.2359,6.3547,7.7669,-0.022907,0.013439,-0.002138
-0.00563,-2.0986,6.3155,7.6884,-0.026267,0.014355,-0.0015272
-0.0090561,-2.0202,6.3547,7.6492,-0.026267,0.014966,-0.0012217
-0.01281,-1.9221,6.492,7.7669,-0.011301,0.015272,-0.00061087
-0.016701,-1.8437,6.4135,7.61,-0.010385,0.015882,-0.00061087
-0.020545,-2.0202,6.3547,7.5511,-0.0079412,0.012217,-0.0094684
-0.024148,-1.9417,6.3547,7.61,0.0012217,0.014661,-0.0076358
-0.027301,-1.8437,6.2763,7.708,0.0024435,0.015882,-0.0033598
-0.02984,-1.8437,6.2566,7.6492,-0.0051924,0.015577,-0.0051924
-0.031635,-1.9417,6.3743,7.61,-0.014355,0.016799,-0.0058032
-0.032576,-2.079,6.4135,7.5903,-0.022602,0.015272,-0.0048869
-0.03262,-1.9221,6.2174,7.61,-0.026878,0.012828,-0.0067195
-0.031763,-1.8633,6.2763,7.5903,-0.025656,0.012828,-0.0094684
-0.030052,-1.8437,6.1978,7.61,-0.012217,0.013744,-0.0030543
-0.027575,-1.8437,6.3547,7.6884,-0.0036652,0.01069,-0.0015272
-0.024444,-2.0202,6.4135,7.61,0.0036652,0.012217,-0.0061087
-0.020797,-1.9025,6.492,7.6296,0.0033598,0.012828,-0.0067195
-0.016788,-2.0202,6.3743,7.5511,-0.0015272,0.010996,-0.0051924
-0.012532,-2.079,6.4135,7.6492,-0.0079412,0.012523,-0.0058032
-0.0081477,-2.0594,6.3547,7.61,-0.022907,0.013134,-0.0033598
-0.0037397,-2.1771,6.4135,7.7473,-0.018631,0.012217,-0.0018326
0.00063625,-1.9025,6.3351,7.5903,-0.03207,0.013134,-0.0036652
0.0049313,-2.2359,6.4135,7.7669,-0.029627,0.013134,-0.0033598
0.0091405,-1.8633,6.4135,7.6884,-0.027489,0.0097738,-0.0073304
0.013265,-2.0202,6.3547,7.61,-0.026267,0.0097738,-0.0079412
0.0173,-2.079,6.2763,7.6884,-0.026267,0.011606,-0.007025
0.021254,-1.9417,6.3743,7.5511,-0.030238,0.012523,-0.0039706
0.025099,-1.8437,6.4724,7.61,-0.034514,0.012523,-0.002138
0.028777,-1.9417,6.3547,7.61,-0.03543,0.011606,-0.0030543
0.032226,-1.8437,6.3743,7.6492,-0.015577,0.013134,-0.0015272
0.035312,-1.7848,6.2763,7.61,-0.029627,0.015577,-0.0009163
0.037923,-1.9417,6.3743,7.61,-0.037263,0.015272,-0.0012217
0.039901,-1.8633,6.3743,7.61,-0.034208,0.01405,-0.0015272
0.04108,-1.8437,6.3547,7.6492,-0.029627,0.013744,-0.0015272
0.041322,-2.1575,6.3547,7.6884,-0.025962,0.012523,-0.0015272
0.040529,-1.9613,6.4135,7.6296,-0.023824,0.013134,-0.00061087
0.038626,-1.9417,6.4135,7.6884,-0.025045,0.01405,-0.0012217
0.035602,-1.8437,6.4135,7.61,-0.030543,0.013439,0
0.031506,-1.9417,6.3547,7.7473,-0.035125,0.013134,-0.00061087
0.026458,-2.0202,6.3547,7.5511,-0.036346,0.013744,-0.00030543
0.020623,-1.8437,6.3351,7.6492,-0.037874,0.013744,0.0012217
0.014228,-1.9221,6.4135,7.6296,-0.037263,0.01405,0.0012217
0.0075224,-2.0594,6.4135,7.61,-0.03543,0.01405,0.0033598
0.00076677,-1.8437,6.3547,7.6492,-0.03207,0.014966,0.0039706
-0.0057811,-1.9417,6.4332,7.5903,-0.02474,0.016188,0.002138
-0.01189,-1.9417,6.3547,7.61,-0.019548,0.015272,-0.0051924
-0.017369,-1.8437,6.3547,7.7473,-0.015272,0.010996,-0.0058032
-0.022082,-2.2359,6.4135,7.708,-0.015272,0.013439,-0.00030543
-0.025946,-2.0202,6.4135,7.61,-0.018631,0.01741,-0.00030543
-0.028936,-2.0986,6.3743,7.7669,-0.021686,0.016799,-0.0015272
-0.031078,-1.9417,6.3547,7.61,-0.025656,0.016493,-0.0018326
-0.032432,-2.1771,6.3743,7.6296,-0.027489,0.014661,-0.0012217
-0.033088,-1.8437,6.3743,7.6884,-0.029932,0.01405,-0.0027489
-0.033151,-1.8437,6.4135,7.6884,-0.018021,0.013134,-0.0061087
-0.032705,-1.8437,6.4332,7.708,-0.023824,0.013744,-0.0076358
-0.031822,-1.8633,6.3155,7.61,-0.020769,0.014355,-0.010385
-0.030563,-1.9221,6.3547,7.6492,-0.019242,0.014661,-0.0067195
-0.028962,-1.9613,6.3547,7.6492,-0.014966,0.012828,-0.0054978
-0.027014,-2.079,6.3351,7.6884,-0.011301,0.013134,-0.0064141
-0.02472,-1.9417,6.4135,7.61,-0.012828,0.014355,-0.007025
-0.02206,-1.8437,6.3547,7.61,-0.015882,0.013744,-0.0054978
-0.019041,-1.8633,6.3547,7.6884,-0.022297,0.016799,-0.0079412
-0.015667,-2.0986,6.3547,7.6492,-0.018631,0.01741,-0.0088575
-0.011993,-2.0986,6.2763,7.7865,-0.017104,0.015882,-0.010996
-0.0080832,-2.079,6.4135,7.61,-0.018937,0.015882,-0.009163
-0.0040503,-1.8437,6.3743,7.6884,-0.020464,0.018631,-0.0058032
-3.677e-05,-2.2359,6.4135,7.6492,-0.021686,0.019242,-0.0039706
0.0038111,-1.9613,6.3743,7.61,-0.02474,0.018021,-0.0061087
0.0073251,-2.0202,6.3155,7.61,-0.022602,0.017104,-0.0073304
0.010342,-2.0202,6.3547,7.7865,-0.0088575,0.015882,-0.010996
0.012739,-1.9221,6.3547,7.6492,-0.0094684,0.01069,-0.011606
0.01442,-1.9025,6.3743,7.6884,-0.015272,0.011912,-0.0094684
0.015352,-1.9417,6.3351,7.61,-0.02138,0.014355,-0.011606
0.015546,-1.9025,6.3547,7.61,-0.022907,0.01405,-0.010385
0.015071,-1.8633,6.3743,7.61,-0.019853,0.016493,-0.010996
0.014063,-2.0006,6.3547,7.5315,-0.017104,0.016799,-0.01069
0.012679,-1.9613,6.3743,7.61,-0.013134,0.016188,-0.0094684
0.011115,-1.9025,6.2763,7.61,-0.0048869,0.015577,-0.0082467
0.0095806,-2.0006,6.4135,7.61,-0.0064141,0.01405,-0.01069
0.0082528,-2.0006,6.4724,7.61,-0.014355,0.01405,-0.0097738
0.0073091,-1.9221,6.1978,7.61,-0.021686,0.014966,-0.0094684
0.006873,-1.9221,6.3743,7.6296,-0.0281,0.014966,-0.010079
0.0070132,-1.9417,6.3547,7.6884,-0.029322,0.013134,-0.0097738
0.0077411,-1.9221,6.2763,7.61,-0.013744,0.013439,-0.009163
0.0090257,-1.9417,6.3547,7.5903,-0.0085521,0.013439,-0.0085521
0.010763,-2.1575,6.4135,7.6492,-0.023213,0.016493,-0.0018326
0.012819,-2.1575,6.3351,7.6884,-0.020464,0.018631,-0.0036652
0.015027,-1.9221,6.4135,7.61,-0.019853,0.01741,-0.009163
0.017219,-2.0986,6.3743,7.6884,-0.021991,0.011606,-0.0079412
0.019218,-1.9417,6.492,7.61,-0.020769,0.0073304,-0.0079412
0.020847,-2.079,6.3547,7.5511,-0.018937,0.009163,-0.010079
0.021962,-1.9025,6.3743,7.6296,-0.022297,0.012523,-0.0088575
0.022444,-1.9221,6.4135,7.61,-0.026573,0.013744,-0.0042761
0.02221,-1.9025,6.3743,7.61,-0.029932,0.015272,0.0033598
0.021204,-2.0202,6.3547,7.4923,-0.032376,0.014661,0.0042761
0.019409,-2.0986,6.3547,7.6884,-0.03207,0.014661,-0.002138
0.016843,-1.9417,6.3547,7.5903,-0.029016,0.013134,0.0009163
0.013547,-2.0986,6.3155,7.6492,-0.022907,0.01069,0.0024435
0.0095894,-1.9613,6.4724,7.61,-0.019548,0.0079412,0.0012217
0.005057,-1.9417,6.3547,7.6296,-0.02138,0.0073304,0.0024435
6.6361e-05,-2.2359,6.4724,7.6884,-0.025962,0.01069,0.0033598
-0.0052581,-2.0986,6.4135,7.708,-0.029627,0.011912,-0.00061087
-0.010759,-2.079,6.2763,7.6296,-0.030238,0.011912,-0.0015272
-0.016293,-2.0986,6.3547,7.6492,-0.031154,0.012828,0.0018326
-0.021661,-1.8437,6.3351,7.61,-0.027489,0.01405,0.0024435
-0.026698,-2.0986,6.3547,7.6492,-0.021075,0.013744,0.0033598
-0.031203,-1.9417,6.4724,7.61,-0.016799,0.013134,0.0033598
-0.035004,-1.9025,6.2566,7.61,-0.011912,0.012523,0.0030543
-0.037932,-2.0202,6.3743,7.6296,-0.011606,0.010385,0.0012217
-0.039853,-1.9025,6.4135,7.6296,-0.012828,0.011606,0
-0.040657,-1.9613,6.3547,7.6296,-0.016188,0.018021,-0.0030543
-0.040295,-1.9417,6.4135,7.61,-0.023518,0.01741,-0.00030543
-0.038747,-1.9025,6.3547,7.61,-0.029016,0.013744,-0.00061087
-0.036064,-2.0006,6.3547,7.6492,-0.029322,0.011606,-0.0042761
-0.032349,-2.0986,6.4135,7.6492,-0.028711,0.012828,-0.0054978
-0.027748,-2.1575,6.3743,7.7473,-0.028405,0.012523,-0.0045815
-0.02245,-2.0986,6.3547,7.7473,-0.025962,0.012523,-0.002138
-0.016686,-1.9417,6.4135,7.5903,-0.020464,0.012828,0
-0.010665,-1.9025,6.4135,7.6884,-0.025045,0.014966,-0.0018326
-0.0046359,-2.2359,6.3547,7.708,-0.025656,0.014355,-0.00030543
0.0012131,-2.1182,6.3547,7.6884,-0.0281,0.011606,0.00061087
0.0066814,-2.0986,6.3743,7.4531,-0.029627,0.012217,0
0.011638,-1.9417,6.4135,7.61,-0.03207,0.01405,-0.0015272
0.015979,-1.9417,6.3547,7.61,-0.021991,0.013744,-0.0009163
0.019649,-1.9221,6.4724,7.6492,-0.016799,0.011912,0.0009163
0.02263,-2.0986,6.3547,7.61,-0.031765,0.012217,-0.00030543
0.024946,-1.9025,6.2763,7.61,-0.026573,0.0097738,-0.0009163
0.026631,-1.8633,6.3547,7.6492,-0.024129,0.010996,0.0009163
0.027751,-2.0202,6.4135,7.5511,-0.025656,0.013134,0.0039706
0.028361,-1.9221,6.3743,7.6296,-0.025045,0.011912,0.0039706
0.028521,-2.0986,6.4135,7.5511,-0.023213,0.010385,0.0018326
0.028272,-1.9025,6.3547,7.6884,-0.033598,0.010996,0.0012217
0.027656,-2.0986,6.3547,7.5315,-0.032987,0.011606,-0.00030543
0.026681,-1.9417,6.3547,7.6296,-0.013439,0.013744,-0.0042761
0.025343,-1.9221,6.4135,7.6296,-0.012828,0.016799,-0.0027489
0.02366,-1.8437,6.2763,7.61,-0.013439,0.015272,-0.0030543
0.021636,-2.0202,6.4135,7.61,-0.016799,0.012828,-0.0054978
0.019285,-2.2359,6.4135,7.6884,-0.02474,0.012217,-0.0064141
0.01663,-1.9025,6.3547,7.6492,-0.032987,0.013134,-0.0076358
0.013724,-1.9221,6.4135,7.6296,-0.019242,0.014966,-0.0082467
0.010638,-1.9221,6.3351,7.61,-0.013744,0.016493,-0.0054978
0.0074449,-2.0202,6.4135,7.5511,-0.022907,0.012523,0.002138
0.0042396,-2.079,6.3743,7.61,-0.024435,0.011912,0.00030543
0.0011127,-2.0202,6.4724,7.6884,-0.028711,0.011606,-0.0012217
-0.0018421,-1.8437,6.3547,7.5903,-0.032376,0.012217,0.0009163
-0.0045511,-1.8437,6.3547,7.6492,-0.030849,0.011301,0.002138
-0.0069679,-2.0986,6.3547,7.7473,-0.025962,0.012523,0.0009163
-0.0090583,-2.1575,6.4135,7.7473,-0.025656,0.013744,0.00061087
-0.010827,-1.8437,6.1978,7.61,-0.026878,0.012828,0.0018326
-0.012296,-2.2163,6.4724,7.6296,-0.036346,0.013134,0.0009163
-0.013502,-2.0986,6.3547,7.6884,-0.034819,0.010996,0.002138
-0.014506,-2.0594,6.3743,7.5511,-0.031154,0.010996,0.0012217
-0.015356,-1.9221,6.3351,7.6492,-0.025045,0.012828,-0.00030543
-0.0161,-1.9417,6.3547,7.7473,-0.019242,0.012523,0.00030543
-0.016756,-2.0594,6.3547,7.6296,-0.012523,0.01069,0.00030543
-0.017344,-2.2163,6.492,7.6884,-0.013439,0.010996,0
-0.017845,-1.9417,6.4135,7.5511,-0.022602,0.012828,0
-0.018225,-1.8437,6.2174,7.5903,-0.029322,0.011606,0.00061087
-0.018423,-1.8437,6.3547,7.6296,-0.025962,0.0094684,0.0024435
-0.018367,-1.8437,6.3547,7.6884,-0.02474,0.012523,0.002138
-0.018006,-1.8437,6.3155,7.6296,-0.023213,0.01405,0.0018326
-0.01728,-1.8437,6.3547,7.61,-0.015882,0.012217,0.00061087
-0.016154,-1.8633,6.4135,7.6296,-0.0085521,0.012217,-0.0009163
-0.014621,-1.9221,6.2763,7.61,-0.0051924,0.011912,0.0009163
-0.012706,-2.079,6.3547,7.61,-0.0088575,0.01069,0.0033598
-0.010482,-2.0006,6.3743,7.61,-0.018326,0.012217,0.0042761
-0.0080272,-1.9613,6.4135,7.5315,-0.030543,0.017104,0.0036652
-0.0054683,-1.9025,6.4135,7.61,-0.038485,0.016493,0.0024435
-0.00292,-2.079,6.2763,7.6492,-0.036957,0.015577,0.00030543
-0.00051504,-2.079,6.3547,7.5903,-0.030238,0.015577,-0.00030543
0.001645,-2.0594,6.3743,7.6492,-0.025045,0.014661,0.00061087
0.0034809,-2.0986,6.3547,7.4727,-0.020159,0.012828,0.0012217
0.0049327,-1.9417,6.3743,7.61,-0.015882,0.009163,-0.0018326
0.0059987,-2.079,6.4135,7.6884,-0.022602,0.01405,-0.00030543
0.0067133,-2.079,6.2763,7.7473,-0.011606,0.012217,0
0.0071523,-1.9417,6.3351,7.6296,-0.0082467,0.01069,-0.0027489
0.0074151,-1.8437,6.3155,7.61,-0.010079,0.01069,-0.0027489
0.0076123,-1.9221,6.492,7.61,-0.014661,0.012217,-0.0036652
0.0078716,-2.0202,6.4135,7.5903,-0.020769,0.01405,-0.0048869
0.0083094,-2.0986,6.4135,7.6492,-0.029322,0.013439,-0.002138
0.009007,-1.9417,6.3547,7.6296,-0.035736,0.013134,-0.0009163
0.010027,-2.0986,6.4135,7.708,-0.018326,0.0094684,-0.0042761
0.011366,-2.0006,6.4135,7.6492,-0.011606,0.0064141,-0.0033598
0.013011,-2.0202,6.3547,7.6884,-0.0088575,0.010385,0.00061087
0.014882,-1.9417,6.3743,7.61,-0.0094684,0.012217,0
0.016877,-1.8437,6.2763,7.61,-0.014966,0.012523,-0.002138
0.01886,-1.9613,6.4135,7.61,-0.026267,0.01069,-0.0033598
0.020679,-2.0986,6.3743,7.6884,-0.011912,0.010079,-0.0048869
0.022184,-2.2359,6.3743,7.6884,-0.01741,0.010996,-0.0048869
0.023206,-1.8437,6.3351,7.5903,-0.03207,0.01405,-0.0042761
0.023638,-1.8044,6.3743,7.6492,-0.022907,0.018021,-0.0079412
0.023356,-2.079,6.3743,7.7669,-0.01405,0.016188,-0.002138
0.022295,-1.9417,6.5116,7.6296,-0.012828,0.013744,-0.0012217
0.020423,-1.9221,6.4135,7.6296,-0.01069,0.01405,-0.0018326
0.017734,-1.9025,6.3547,7.5903,-0.010079,0.012828,-0.0027489
0.014273,-2.2555,6.3743,7.6492,-0.034208,0.012523,-0.0033598
0.010107,-2.0986,6.3351,7.6884,-0.035736,0.012523,-0.0033598
0.0053421,-2.0986,6.3547,7.708,-0.029016,0.016188,0.0018326
0.00010542,-1.9025,6.4332,7.6296,-0.027184,0.014355,0.0024435
-0.0054599,-2.079,6.3547,7.6884,-0.027184,0.013134,-0.0012217
-0.011188,-2.079,6.3547,7.61,-0.022602,0.014661,0.00061087
-0.016891,-2.2359,6.4135,7.7473,-0.015882,0.014661,0.00061087
-0.022381,-1.9417,6.3351,7.61,-0.013744,0.011912,0.0033598
-0.027461,-1.8437,6.2566,7.61,-0.019853,0.011912,0.0027489
-0.031938,-2.0594,6.4135,7.61,-0.028405,0.011301,0.0018326
-0.035636,-1.8437,6.3547,7.6492,-0.027184,0.0097738,-0.0009163
-0.038374,-2.0202,6.3743,7.4727,-0.02474,0.0097738,-0.0012217
-0.04003,-1.9025,6.3547,7.5903,-0.025351,0.011301,0.0033598
-0.040485,-2.0594,6.4135,7.6492,-0.0281,0.013134,0.0033598
-0.039686,-1.9025,6.3743,7.6884,-0.023213,0.015577,0.0018326
-0.037618,-1.9417,6.4135,7.61,-0.014966,0.015882,0.00061087
-0.034344,-2.079,6.3743,7.5315,-0.031154,0.015272,0.0012217
-0.029961,-2.0594,6.3547,7.6884,-0.029932,0.013134,0.00030543
-0.024638,-1.9417,6.3743,7.5903,-0.028711,0.012828,-0.015577
-0.018577,-2.0986,6.3547,7.7669,-0.026267,0.010996,-0.011606
-0.012034,-1.9417,6.4332,7.61,-0.025962,0.013744,-0.0094684
-0.0052714,-2.0986,6.3155,7.6296,-0.021075,0.016799,-0.0088575
0.0014382,-1.8437,6.3547,7.5903,-0.012523,0.016799,-0.0097738
0.0078347,-2.0006,6.4135,7.6492,-0.0085521,0.014661,-0.009163
0.013694,-1.7848,6.3743,7.6296,-0.0073304,0.012828,-0.011606
0.018826,-2.2359,6.4135,7.7473,-0.0094684,0.012523,-0.014966
0.023096,-2.079,6.4135,7.6884,-0.023213,0.013439,-0.0079412
0.026439,-2.079,6.2763,7.6884,-0.025962,0.009163,-0.0054978
0.028841,-2.0202,6.3547,7.61,-0.024129,0.01069,-0.0082467
0.03035,-1.8633,6.4135,7.6884,-0.021075,0.011912,-0.0085521
0.031059,-1.9417,6.4135,7.5903,-0.019548,0.010996,-0.010385
0.031077,-2.0594,6.3547,7.4923,-0.018937,0.012828,-0.0097738
0.030545,-1.8437,6.3547,7.61,-0.021686,0.013134,-0.0088575
0.0296,-1.9221,6.4135,7.6492,-0.02474,0.013744,-0.0094684
0.028345,-1.8437,6.4135,7.6492,-0.023518,0.014966,-0.0088575
0.026866,-2.079,6.4135,7.4923,-0.019548,0.016493,-0.0082467
0.025211,-1.9025,6.3547,7.61,-0.017104,0.014661,-0.0073304
0.023394,-1.8633,6.492,7.61,-0.019853,0.014355,-0.0088575
0.021386,-1.9613,6.4135,7.61,-0.027184,0.014355,-0.0088575
0.019141,-2.0594,6.3743,7.6884,-0.03146,0.014355,-0.009163
0.016602,-1.9417,6.3743,7.6492,-0.029322,0.01405,-0.009163
0.013717,-1.9221,6.3547,7.61,-0.023213,0.012828,-0.009163
0.010443,-1.8437,6.4135,7.6296,-0.01741,0.012523,-0.0073304
0.0067624,-1.9417,6.4724,7.61,-0.014355,0.012523,-0.010385
0.0027114,-2.0986,6.4135,7.6492,-0.012523,0.011912,-0.0079412
-0.0016477,-1.9025,6.3547,7.61,-0.013439,0.013439,-0.0067195
-0.0061953,-2.2359,6.4724,7.708,-0.01405,0.013439,-0.0067195
-0.010797,-1.9025,6.3743,7.61,-0.013134,0.014966,-0.0058032
-0.015264,-2.0594,6.4332,7.61,-0.018021,0.016188,-0.0082467
-0.019421,-1.9417,6.4135,7.61,-0.025962,0.013744,-0.0079412
-0.023082,-2.0594,6.3155,7.5511,-0.020464,0.016799,-0.0067195
-0.026089,-2.0986,6.3547,7.6884,-0.025351,0.018631,-0.007025
-0.028311,-2.1575,6.4135,7.61,-0.030543,0.02138,-0.0085521
-0.029664,-2.2163,6.4135,7.6492,-0.029932,0.018937,-0.009163
-0.030105,-1.9221,6.4724,7.6884,-0.020159,0.015272,-0.0088575
-0.029647,-1.9417,6.4332,7.6296,-0.012523,0.016188,-0.0076358
-0.028347,-2.3144,6.4135,7.7669,-0.01069,0.01741,-0.0064141
-0.026321,-2.079,6.3547,7.5903,-0.015272,0.017104,-0.0061087
-0.023699,-2.0006,6.4135,7.61,-0.019548,0.016493,-0.011301
-0.02062,-1.9417,6.4135,7.61,-0.017104,0.013439,-0.009163
-0.017252,-2.0986,6.3743,7.7473,-0.015577,0.012523,-0.010079
-0.013743,-2.1182,6.4724,7.6492,-0.018631,0.012523,-0.011912
-0.010232,-1.9221,6.4135,7.61,-0.022602,0.014661,-0.010385
-0.0068322,-1.8633,6.4135,7.61,-0.022602,0.015882,-0.009163
-0.0036316,-1.8437,6.3743,7.6884,-0.02138,0.015882,-0.011301
-0.00070242,-2.2751,6.5116,7.6884,-0.018021,0.014355,-0.012523
0.0019017,-1.9025,6.3547,7.5511,-0.017104,0.014355,-0.007025
0.0041592,-1.8633,6.3743,7.6296,-0.017104,0.017715,-0.0058032
0.0060484,-2.079,6.3351,7.6884,-0.015577,0.015272,-0.0073304
0.0075702,-1.9613,6.3743,7.5903,-0.019853,0.012828,-0.0076358
0.0087324,-1.9613,6.4528,7.6492,-0.02138,0.012523,-0.0082467
0.0095422,-1.9221,6.3155,7.5903,-0.023213,0.011912,-0.0082467
0.01002,-1.9025,6.4135,7.61,-0.015577,0.012828,-0.0079412
0.010207,-2.1575,6.4135,7.6492,-0.017104,0.012217,-0.0073304
0.01015,-2.2359,6.4135,7.708,-0.022297,0.011606,0.00061087
0.0099125,-1.9417,6.3547,7.61,-0.028711,0.0088575,0.0018326
0.0095827,-1.9417,6.4135,7.61,-0.029322,0.011912,-0.0058032
0.0092465,-2.0986,6.3743,7.61,-0.024435,0.013439,-0.0048869
