-0.029419,1.5298,-3.8638,7.9434,-0.0082467,0.033292,-0.0085521
-0.034912,1.4318,-4.0207,8.0807,-0.01069,0.01741,-0.0048869
-0.032593,1.5102,-4.0207,7.8649,-0.035736,0.021686,-0.009163
-0.029724,1.6867,-3.9423,7.9434,-0.045815,0.0036652,-0.0067195
-0.037567,1.5102,-3.9423,8.0807,-0.051313,0.0042761,-0.016493
-0.033264,1.5495,-3.9815,7.9434,-0.035736,0.0051924,-0.015577
-0.035553,1.6867,-4.1972,7.963,-0.026573,0.0015272,-0.021075
-0.035126,1.5298,-4.0207,8.0022,-0.025351,0.0045815,-0.017104
-0.021271,1.5495,-3.9227,8.0022,-0.043371,-0.0061087,-0.0027489
-0.020752,1.6867,-4.0403,8.0022,-0.073304,-0.01405,-0.0048869
-0.018799,1.3729,-3.9815,8.0807,-0.092546,-0.025962,0.00030543
-0.023712,1.6867,-4.0207,7.963,-0.0956,-0.030849,0.00030543
-0.023376,1.4318,-4.0796,8.2768,-0.077274,-0.025962,0.0042761
-0.024963,1.7064,-4.0207,8.0807,-0.047647,-0.017104,0.0042761
-0.02478,1.4514,-3.6873,7.9238,-0.0085521,-0.0030543,0
-0.015747,1.5298,-3.7265,7.9042,0.022907,0.0088575,-0.002138
-0.00012207,1.2749,-4.0403,7.963,0.029016,0.012523,0.0012217
0.022064,1.4318,-4.0796,8.0807,0.014355,0.011912,0.002138
0.064575,1.5887,-3.8638,7.9434,-0.0085521,0.0030543,-0.0054978
0.09375,1.6867,-3.7658,7.8649,-0.03543,-0.0073304,-0.0018326
0.15088,1.824,-4.1776,7.9238,-0.057727,-0.014355,-0.0009163
0.20593,1.5298,-4.2561,8.0807,-0.062614,-0.016799,0.00030543
0.25012,1.5495,-4.158,8.0022,-0.049786,-0.014355,0.0024435
0.29105,1.4318,-3.8834,8.0611,-0.0281,-0.0079412,0.0024435
0.33099,1.3533,-3.7265,8.0022,-0.009163,-0.00061087,-0.0036652
0.3588,1.4318,-3.9815,8.0022,0.00030543,0.0076358,-0.0054978
0.38559,1.5298,-4.158,8.0022,0.0076358,0.011301,0.0039706
0.40982,1.6475,-4.1776,7.9434,0.0058032,0.01069,0.0030543
0.44589,1.5298,-3.9227,7.963,-0.0036652,0.0085521,0.00061087
0.45737,1.6083,-3.9423,7.9434,-0.011606,0.009163,0.0015272
0.47922,1.7456,-4.1384,7.9434,-0.016188,0.011301,0.0015272
0.49246,1.7456,-3.9423,7.963,-0.018631,0.014966,-0.0015272
0.51013,1.7064,-3.9227,8.0807,0.019242,0.045815,-0.028711
0.53375,1.4514,-3.9423,8.0022,0.018326,0.061392,-0.023824
0.55533,1.5298,-3.9815,7.8061,0.012217,0.072998,-0.012523
0.57233,1.5495,-3.9619,8.0022,-0.00061087,0.07758,-0.017104
0.57959,1.824,-4.2365,8.0022,-0.015577,0.074526,-0.023213
0.57584,1.6867,-4.0207,7.9238,-0.026573,0.07025,-0.029627
0.57947,1.4318,-4.0207,8.0022,-0.017104,0.065668,-0.034514
0.57361,1.1964,-4.0011,8.0807,0.0088575,0.059559,-0.034208
0.5701,1.3925,-4.0403,7.9434,-0.033598,0.052534,0.00030543
0.55634,1.5298,-3.8638,7.8649,-0.033292,0.045815,0.0036652
0.54919,1.3533,-3.8638,7.9434,-0.030849,0.03543,-0.021075
0.54437,1.3925,-3.9423,7.9238,-0.018937,0.026573,-0.018021
0.51953,1.5298,-4.0403,8.0022,-0.0054978,0.016799,-0.017104
0.50958,1.5887,-3.9423,7.9434,0.0015272,0.0097738,-0.016493
0.47992,1.8044,-3.9815,7.9434,-0.032376,0.009163,-0.012217
0.47668,1.8633,-4.0403,7.9434,-0.033598,0.0079412,-0.0051924
0.46298,1.824,-4.1776,8.0022,-0.015882,0.0039706,0.0067195
0.44907,1.8437,-4.1384,8.0022,-0.018326,-0.0039706,0.0039706
0.43323,1.5298,-4.0796,7.9042,-0.0094684,-0.0061087,0.0079412
0.42725,1.5495,-3.8638,8.0611,-0.0033598,-0.0048869,0.0097738
0.41885,1.5298,-3.8638,7.9434,-0.0027489,-0.0048869,0.011301
0.38358,1.5298,-3.8834,7.9042,-0.012217,-0.0009163,0.011912
0.3606,1.3729,-3.9423,7.963,0.00030543,0.0027489,0.0085521
0.34744,1.5298,-4.158,8.0022,-0.0064141,-0.0030543,0.0054978
0.33344,1.6671,-4.0796,7.8649,-0.047342,-0.037568,0.002138
0.31897,1.6867,-4.0011,7.8649,-0.047037,-0.033598,-0.0064141
0.31836,1.6671,-3.9423,7.9434,-0.041539,-0.0281,0.024435
0.33087,1.5495,-4.0207,7.9238,-0.044593,-0.018937,0.028405
0.34125,1.6671,-4.158,8.1003,-0.061392,-0.012523,0.03207
0.35526,1.5495,-4.0207,8.0807,-0.079107,-0.010079,0.03207
0.37015,1.6083,-3.8638,8.0022,-0.07758,0,0.020769
0.37589,1.5298,-3.8638,7.9434,-0.052534,0.021991,0.009163
0.35489,1.5298,-4.0796,7.9042,0.17562,0.055283,-0.14691
0.27109,1.6083,-5.0406,7.5315,0.13286,0.048869,-0.23915
0.13486,2.079,-4.766,7.9434,0.070555,0.038485,-0.062919
-0.022858,1.6867,-4.0796,8.8456,-0.0036652,0.028711,-0.065057
-0.19028,1.4514,-3.3931,8.8848,-0.0562,0.015577,-0.068111
-0.34305,1.3533,-2.6086,8.2768,-0.038179,-0.007025,-0.071471
-0.47519,1.2945,-2.4124,7.61,0.11637,-0.037874,-0.078802
-0.56992,1.5102,-2.3732,7.3746,0.4609,-0.059865,-0.09896
-0.62366,1.0395,-3.197,7.7865,0.956,-0.03543,-0.42699
-0.61832,1.5102,-4.5111,8.218,1.5369,0.080329,-0.70066
-0.5654,1.8044,-5.5113,7.8061,2.087,0.30757,-0.36285
-0.49231,2.2948,-5.0406,7.9434,2.398,0.54734,-0.44715
-0.40805,1.9613,-4.0207,8.218,2.3918,0.70372,-0.40561
-0.34317,1.6083,-3.3146,8.5514,1.8399,0.77274,-0.29413
-0.25873,1.3533,-3.4519,8.2376,0.66951,0.63377,-0.21655
-0.19739,1.5102,-4.0011,7.7865,-0.34422,0.18112,-0.21625
-0.14642,1.5298,-4.2953,7.6296,0.082772,0.093157,-0.028711
-0.096924,1.6867,-4.4914,7.7473,0.19395,0.1237,-0.018021
-0.050812,1.5495,-4.3934,8.0218,0.19548,0.12156,0.0097738
-0.0078125,1.5102,-4.4522,8.0022,0.093462,0.080023,0.0024435
0.061859,1.5298,-4.2561,8.0807,-0.071471,0.014661,-0.00030543
0.15436,1.5298,-4.0403,8.1199,-0.21961,-0.044288,0.002138
0.25656,1.7652,-3.8638,7.8649,-0.3149,-0.078496,-0.002138
0.36249,1.824,-4.158,7.7865,-0.35247,-0.074526,-0.02138
0.46509,1.824,-5.5506,7.5511,-0.31062,-0.050091,-0.043982
0.56631,2.1575,-7.3158,7.0019,-0.23579,-0.029932,-0.057421
0.6571,3.0989,-6.1978,6.8647,-0.12339,-0.010079,-0.0039706
0.75372,2.0006,-3.0793,7.8649,-0.002138,0.03207,0.0045815
0.81497,1.1768,-1.824,10.317,0.091324,0.065973,-0.0085521
0.81967,1.6083,-2.9028,9.5125,0.15608,0.076969,-0.023213
0.80142,2.7851,-4.8837,8.4337,0.19303,0.076358,-0.020464
0.76736,3.0597,-5.0798,7.2373,0.19487,0.061392,-0.022907
0.72699,3.0204,-4.3345,7.0804,-0.42272,0.11087,-0.26786
0.70245,2.7851,-3.6285,7.6296,-0.47159,0.10934,-0.29474
0.69946,2.4713,-3.2362,8.2572,-0.56536,0.095295,-0.38912
0.72113,2.5497,-3.3931,8.2376,-0.68203,0.072693,-0.31185
0.77463,2.9224,-3.3539,7.4923,-0.77885,0.047953,-0.26909
0.85757,3.2558,-3.3539,7.0019,-0.80512,0.0015272,-0.24832
0.95447,3.1185,-4.0207,6.4332,-0.50549,-0.059254,-0.23763
1,3.4127,-4.3345,6.2959,-0.4331,-0.10201,-0.24312
1,3.2754,-4.158,6.747,0.094073,-0.11057,-0.16616
1,3.2166,-3.7658,7.1196,-0.72174,-0.082772,-0.15149
1,3.0597,-3.6873,7.61,-0.56933,-0.025962,-0.29963
1,3.2166,-3.7658,7.61,-0.37507,0.037263,-0.28711
1,3.2166,-3.8638,7.5511,-0.18662,0.09896,-0.26817
1,2.8047,-3.5696,7.6296,-0.044288,0.15088,-0.24099
1,2.4713,-3.6677,7.9434,0.039706,0.19212,-0.20739
1,2.5301,-3.5696,8.2572,0.080023,0.22877,-0.17929
1,2.0202,-3.7658,8.7279,-0.39492,1.2593,-1.0458
1,1.824,-3.6873,8.6299,-0.38882,1.2275,-1.0003
0.97186,1.5495,-3.55,8.5514,-0.36133,1.186,-1.2535
0.81415,1.3337,-3.4716,8.8652,-0.33292,1.1423,-1.226
0.67801,1.2356,-3.4519,9.689,-0.31276,1.1032,-1.211
0.56778,1.3533,-3.3146,9.434,-0.2923,1.0638,-1.1781
0.50607,1.0395,-3.3931,9.1986,-0.27458,1.0192,-1.1304
0.53406,1.2945,-3.9423,8.7083,-0.25107,0.95936,-1.0861
0.61627,1.3533,-4.2561,8.4141,-0.37599,0.87232,-0.56474
0.73755,1.3729,-3.8638,8.1003,-0.53054,0.76175,-0.48075
0.88116,1.3729,-3.7658,7.9434,-0.6634,0.6466,-0.95081
1,1.3337,-4.2953,7.7473,-0.7251,0.5287,-0.90133
1,1.5102,-4.7856,7.2765,-0.70494,0.39462,-0.84849
1,1.4318,-4.8641,6.9823,-0.61728,0.27184,-0.78007
1,1.1964,-4.413,6.7666,-0.23335,0.17898,-0.70647
1,1.1768,-3.8246,6.3743,-0.26573,0.12492,-0.6411
1,1.0787,-3.6873,6.1782,-0.22388,0.13134,-0.24038
1,0.74531,-4.0796,6.0801,-0.1014,0.1857,-0.24374
1,0.86299,-4.1384,6.1193,0.0073304,0.22571,-0.23427
1,0.5884,-4.8837,5.7467,0.089797,0.25259,-0.24038
1,0.72569,-5.4133,5.7271,0.12737,0.26848,-0.2419
1,0.41188,-5.9232,6.1782,0.1347,0.27367,-0.24801
1,0.43149,-6.4528,6.3547,0.13378,0.26145,-0.24832
1,0.50995,-5.9624,6.5116,0.13806,0.24038,-0.24221
1,0.49033,-5.5898,6.9627,-0.29871,0.97494,0.15088
1,0.72569,-4.9622,6.9823,-0.075442,0.57452,0.15882
1,0.41188,-4.2953,7.0019,0.029016,0.069944,-0.2923
1,0.2942,-3.8246,7.1589,0.72479,0.084605,-0.29688
1,0.41188,-3.5696,7.0216,1.7269,0.36041,-0.42577
1,0.56879,-4.2561,6.747,1.8387,0.58887,-0.30299
1,-3.0597,-8.7279,20.045,1.1579,0.44502,-0.033292
1,1.4906,-7.9434,7.6492,0.11576,0.050396,0.1182
1,1.6083,-1.9809,8.2768,-1.6099,-0.39004,0.030238
1,-1.7652,1.6083,10.101,-2.2477,-0.76908,0.019853
1,-1.216,-0.21575,9.3163,-2.5394,-0.98349,0.15516
1,0.33343,-3.6873,7.9042,-2.5192,-1.0424,0.1237
1,1.4514,-6.5312,6.3939,-2.2437,-0.98624,0.086437
1,1.8437,-7.6296,5.7467,-1.8176,-0.84635,0.055589
1,1.9809,-6.845,5.7271,-1.3497,-0.66096,0.041539
1,1.3533,-5.884,6.4528,-0.91752,-0.45448,0.04215
1,1.2945,-5.2564,6.8254,-0.62614,-0.26725,-0.19059
1,1.5298,-5.7467,6.6097,-0.50213,-0.13592,-0.21594
1,1.5298,-6.139,6.3547,-0.48228,-0.067501,0.018326
1,1.5887,-6.139,6.4332,-0.51832,-0.045204,0.0042761
0.95108,1.3337,-5.9624,6.5901,-0.55344,-0.029322,-0.035125
0.7514,1.5298,-5.5898,6.8058,-0.53634,-0.0051924,-0.087048
0.52902,1.3337,-5.4525,6.845,-0.46426,0.028405,-0.12981
0.30972,1.2749,-5.4133,6.8254,-0.35155,0.076053,-0.16249
0.10504,0.86299,-5.1975,7.0216,0.77183,0.14142,-0.04948
-0.081848,1.3533,-5.5506,6.747,0.82436,0.1799,-0.043677
-0.25027,1.2749,-5.3937,6.747,0.86071,0.20525,-0.074526
-0.40607,1.2945,-5.6682,6.6097,0.8656,0.22846,-0.087354
-0.53107,1.4906,-5.6094,6.6489,0.83933,0.24374,-0.096822
-0.65103,1.5298,-5.7075,6.6685,0.76938,0.23549,-0.087048
-0.7247,1.4318,-5.8252,6.5508,0.64049,0.20128,-0.069333
-0.80518,1.6083,-6.0801,6.3351,0.46181,0.14905,-0.058643
-0.90198,1.5298,-6.3743,6.2174,0.25717,0.095295,-0.0281
-0.97733,1.6475,-5.9232,6.6685,0.084299,0.042761,-0.0281
-0.99997,1.6671,-5.2564,6.9235,-0.01069,0.0094684,-0.049175
-0.99997,1.7456,-5.5113,6.8254,-0.063225,0.0088575,-0.064141
-0.99997,1.8633,-5.3544,7.0019,-0.081245,0.014661,-0.065363
-0.99997,1.7456,-5.1387,7.1589,-0.04215,0.012828,-0.05681
-0.99997,1.5298,-4.668,7.4334,0.0054978,0.0036652,-0.054062
-0.99997,1.3533,-4.0796,7.7865,0.051007,0.010079,-0.040623
-0.99997,1.4318,-3.8638,7.963,0.17043,0.039401,0.039401
-0.99997,1.6475,-4.0796,7.7473,0.1799,0.065973,0.040012
-0.99997,1.6867,-4.8249,7.6296,0.16096,0.075747,-0.019548
-0.99997,1.5298,-4.9229,7.3354,0.094379,0.069639,0.0058032
-0.99997,1.5298,-4.9426,7.2177,-0.0073304,0.052229,0.018021
-0.99997,1.5495,-5.021,7.0608,-0.094073,0.025351,0.020159
-0.99997,1.1964,-4.8641,7.3158,0.10171,-0.011606,0.030543
-0.99997,1.0787,-4.4522,7.4727,0.14416,-0.04215,0.039706
-0.99997,1.3337,-4.158,7.7473,-0.15302,-0.057116,0.05681
-0.99997,1.5102,-4.4914,7.5511,-0.13744,-0.060781,0.053756
-0.99997,1.7064,-4.7072,7.3746,-0.14661,-0.059559,0.048869
-0.99997,1.6475,-4.7072,7.4923,-0.18112,-0.060476,0.058032
-0.99997,1.5102,-4.5111,7.4727,-0.2251,-0.066584,0.062308
-0.99997,1.4514,-4.6091,7.4727,-0.26481,-0.075442,0.066279
-0.99997,1.4514,-5.0798,7.3746,-0.14447,-0.082161,0.068111
-0.99997,1.3533,-5.2564,7.0608,-0.16157,-0.087659,0.061697
-0.99997,1.4318,-5.1191,7.1785,-0.028711,0.0018326,-0.01069
-0.99997,1.118,-5.1779,7.3746,-0.039706,0.00061087,-0.019548
-0.99997,1.5298,-4.6091,7.4531,-0.055589,-0.0018326,-0.0039706
-0.99997,1.3533,-4.7072,7.3354,-0.069333,-0.0082467,-0.0033598
-0.99997,1.5102,-4.9426,7.3354,-0.082161,-0.014355,-0.0033598
-0.99997,1.6083,-4.9426,7.4334,-0.097128,-0.018326,-0.0073304
-0.99997,1.6083,-4.9426,7.3158,-0.10201,-0.019548,-0.0085521
-0.99997,1.6083,-4.8837,7.3354,-0.089797,-0.014661,-0.0076358
-0.99997,1.3729,-4.9426,7.3746,-0.045204,-0.0039706,-0.016493
-0.99997,1.4318,-4.9426,7.3158,-0.027794,0.0082467,-0.020464
-0.99997,1.5887,-5.0995,7.3158,-0.027794,0.014661,-0.022602
-0.99997,1.5298,-4.9426,7.3158,-0.046731,0.0097738,-0.01405
-0.99997,1.5102,-5.0798,7.1589,-0.069028,0,-0.0088575
-0.99997,1.4514,-5.1191,7.1196,-0.078802,-0.0088575,-0.0094684
-0.99997,1.6867,-4.9818,7.1589,-0.071777,-0.019242,-0.0097738
-0.99997,1.5298,-4.9426,7.2765,-0.063835,-0.026267,-0.012217
-0.99997,1.6083,-4.8837,7.3158,-0.057116,-0.026878,-0.01405
-0.99997,1.4318,-4.9426,7.2177,-0.040317,-0.018937,-0.012217
-0.99997,1.2945,-4.9818,7.3746,-0.023824,-0.011301,-0.020464
-0.99997,1.5102,-5.2368,7.0804,-0.018021,-0.0045815,-0.020769
-0.99997,1.5495,-5.2368,7.1589,-0.02474,0,-0.021991
-0.99997,1.4318,-4.9426,7.2373,-0.040012,-0.0054978,-0.02138
-0.99997,1.6083,-5.021,7.2373,-0.061087,-0.01069,-0.015577
-0.99997,1.3925,-4.9818,7.1785,-0.082467,-0.014355,-0.013744
-0.99997,1.5298,-5.1191,7.1589,-0.12156,-0.031765,-0.0079412
-0.99997,1.6671,-5.1387,7.1392,-0.11515,-0.033903,-0.0036652
-0.99997,1.6083,-5.0406,7.2765,-0.0956,-0.030849,0.016188
-0.99997,1.6083,-4.9622,7.3158,-0.07758,-0.02138,0.0073304
-0.99997,1.6671,-4.9229,7.3158,-0.062308,-0.017104,-0.0012217
-0.98422,1.6671,-5.021,7.1392,-0.043371,-0.014661,0.0033598
-0.96997,1.4906,-5.1191,7.1589,-0.030238,-0.0088575,0.00030543
-0.94519,1.5298,-5.0995,7.1589,-0.02474,-0.0027489,-0.0082467
-0.92865,1.4514,-4.9426,7.1589,-0.23885,-0.0027489,-0.044288
-0.89474,1.6671,-4.9818,7.2961,-0.24465,-0.012828,0.0082467
-0.85687,1.6867,-4.9818,7.2373,-0.22327,-0.024435,-0.038179
-0.81912,1.5495,-5.2564,7.0019,-0.18692,-0.040623,-0.019853
-0.79666,1.5495,-5.4133,7.0608,-0.13439,-0.057727,-0.0088575
-0.75964,1.5495,-5.3348,7.0608,-0.083689,-0.050702,-0.022602
-0.74808,1.5495,-5.1975,7.1196,-0.16005,-0.018937,-0.050091
-0.74667,1.4318,-4.8837,7.3354,-0.21197,0.015882,-0.071777
-0.72189,1.4514,-4.4718,7.3746,-0.23396,0.01741,-0.01405
-0.70819,1.3533,-4.5699,7.4727,-0.30116,-0.007025,-0.020464
-0.71124,1.6475,-5.1191,7.2373,-0.36408,-0.032376,0.017104
-0.70242,1.6475,-5.276,6.9235,-0.3882,-0.048869,-0.0018326
-0.67261,1.9613,-5.5898,6.8254,-0.34789,-0.06353,-0.0076358
-0.62131,1.824,-5.5898,6.8254,-0.28222,-0.076664,0.00030543
-0.58893,1.8437,-5.4133,7.0019,-0.091324,-0.086437,0.0027489
-0.5751,1.4514,-4.9426,7.3158,-0.15913,-0.07758,-0.0024435
-0.60107,1.7064,-4.4914,7.5511,-0.0045815,-0.032376,-0.014966
-0.64246,1.2945,-4.3345,7.61,0.011912,0.029322,-0.016493
-0.6871,1.4318,-4.5699,7.4531,-0.012217,0.063835,-0.011912
-0.74625,1.6083,-4.8837,7.4531,-0.047037,0.066279,-0.0027489
-0.80063,1.5102,-4.9426,7.1589,-0.073304,0.050091,0.0042761
-0.86847,1.7456,-5.3937,7.0019,-0.082772,0.032376,0.0085521
-0.91702,1.7456,-5.1387,7.0216,-0.19242,0.015882,0.002138
-0.95044,1.3729,-4.766,7.2961,-0.081856,0.0027489,-0.0082467
-0.95685,1.6083,-4.7856,7.3354,0.25351,0.088575,-0.037263
-0.95013,1.5495,-4.9426,7.2961,0.29719,0.1182,-0.046426
-0.93509,1.6867,-5.4133,7.1196,0.31368,0.12737,-0.040623
-0.88922,1.824,-5.7271,6.7666,0.30635,0.11759,-0.037263
-0.84167,1.5298,-5.5506,6.9039,0.25168,0.091019,-0.032987
-0.80035,1.5102,-5.0406,7.0019,0.146,0.051313,-0.036346
-0.76581,1.6475,-4.9622,7.0608,0.021686,0.01741,-0.033292
-0.70465,1.4318,-5.1387,7.1196,-0.082161,0.0045815,-0.025962
-0.69452,1.8044,-5.3544,7.0019,-0.057421,0.023824,-0.025045
-0.65277,1.6867,-5.7075,7.0019,-0.071471,0.021686,-0.022602
-0.62149,1.6867,-5.2956,7.0019,-0.093462,0.01741,-0.0058032
-0.59171,1.8044,-5.3937,6.9627,-0.11209,0.0082467,-0.0061087
-0.58685,1.6867,-5.1975,7.0019,-0.1127,-0.0073304,-0.0061087
-0.55795,1.6083,-5.1975,6.9235,-0.09896,-0.017715,-0.0082467
-0.56055,1.5495,-5.276,7.0608,-0.081856,-0.013744,-0.014966
-0.55743,1.824,-5.4329,7.0019,-0.061697,-0.0051924,-0.022907
-0.54205,1.824,-5.1975,7.1589,-0.036346,0.0061087,-0.014355
-0.52295,1.5495,-5.1387,7.0608,-0.012523,0.020159,-0.013134
-0.51425,1.6867,-5.276,6.9235,0.0012217,0.027489,-0.024129
-0.49289,1.8044,-5.4133,7.0019,0.0024435,0.028405,-0.023518
-0.47116,1.6475,-5.3348,6.9235,-0.011606,0.024129,-0.019242
-0.45657,1.5495,-5.2956,6.9235,-0.033292,0.0085521,-0.017104
-0.41544,1.7652,-5.1387,7.0019,-0.052229,-0.0054978,-0.014661
-0.39957,1.7652,-5.2368,7.0019,-0.062308,-0.0042761,-0.014355
-0.38113,1.5298,-5.2564,7.0019,-0.067806,0.010996,-0.0015272
-0.35391,1.8044,-5.4329,6.9627,-0.07025,0.0097738,0.00061087
-0.35709,1.8044,-5.4133,6.845,-0.079107,0.0076358,0.0015272
-0.33923,1.6867,-5.4329,6.9235,-0.090103,0.0045815,-0.0015272
-0.31897,1.824,-5.5898,6.8058,-0.10476,0.0015272,-0.00061087
-0.33157,1.6475,-5.5113,6.8254,-0.11912,-0.0036652,-0.0012217
-0.33017,1.6867,-5.3544,6.9235,-0.12339,-0.0048869,-0.0012217
-0.31741,1.6867,-5.4329,6.9235,-0.12187,-0.0009163,-0.0015272
-0.33441,1.5102,-5.3348,6.9627,-0.12278,0.002138,-0.01069
-0.32855,1.6671,-5.5506,6.8254,-0.12065,0.0033598,-0.0051924
-0.35065,1.7456,-5.5898,6.7077,-0.11087,-0.00061087,0.0018326
-0.33252,1.7456,-5.4329,6.8058,-0.10079,0,-0.0027489
-0.3244,1.6867,-5.3348,6.9235,-0.090408,0.0027489,-0.0088575
-0.3353,1.5298,-5.276,6.8254,-0.083078,0.0051924,-0.01069
-0.32761,1.8437,-5.4329,6.845,-0.070555,0.010079,-0.014661
-0.32404,1.6867,-5.4329,6.8254,-0.058338,0.018326,-0.016493
-0.30048,1.824,-5.5506,6.8254,-0.0045815,0.022602,-0.0024435
-0.28708,1.6083,-5.5702,6.9235,-0.025962,0.024129,-0.0097738
-0.26465,1.6671,-5.4525,6.7077,-0.033598,0.015577,-0.0009163
-0.23911,1.6867,-5.5113,6.8647,-0.034819,0.0082467,0.0012217
-0.22955,1.824,-5.4329,6.8254,-0.036957,0.0048869,0.0018326
-0.20108,1.8044,-5.4133,6.845,-0.040012,0.0042761,-0.0042761
-0.17065,1.5887,-5.2956,6.8254,0.0024435,0.0015272,-0.007025
-0.11804,1.6867,-5.4133,6.8254,0.014355,-0.0033598,-0.0027489
-0.049316,1.824,-5.6486,6.6881,0.072693,0.021991,-0.026267
0.012604,1.824,-5.6486,6.8254,0.08827,0.021686,-0.027489
0.080597,1.8633,-5.4329,6.8058,0.094379,0.023518,-0.019548
0.16394,1.824,-5.4329,6.8647,0.08491,0.024435,-0.026267
0.20364,1.5298,-5.4133,6.9823,0.058643,0.019548,-0.024435
0.21738,1.6083,-5.2564,6.8647,0.009163,0.011606,-0.015577
0.16556,1.5298,-5.1779,7.0608,-0.044288,0.0033598,-0.013134
0.094757,1.6083,-5.2564,6.8254,-0.082772,0.0045815,-0.018326
-0.014435,1.8437,-5.2564,6.8254,-0.099571,0.014661,-0.013744
-0.098297,1.9221,-5.3937,6.9235,-0.10263,0.025045,-0.017715
-0.23856,1.7456,-5.3348,6.845,-0.10537,0.028711,-0.027184
-0.35095,1.5495,-5.5506,6.6685,-0.11515,0.027794,-0.021686
-0.44717,1.6867,-5.5702,6.8647,-0.12309,0.023518,-0.012828
-0.50888,1.6867,-5.0406,7.0019,-0.11362,0.017104,-0.010385
-0.52383,1.6083,-5.1779,6.8647,-0.082467,0.01405,-0.011606
-0.54956,1.6867,-5.8252,6.6881,-0.056505,0.018021,-0.014355
-0.55194,1.9221,-5.7467,6.5508,-0.11545,0.016799,-0.015272
-0.55597,1.8437,-5.4133,6.747,-0.16799,0.0082467,-0.007025
-0.54681,1.7064,-5.3348,6.8254,-0.18418,-0.011606,-0.017715
-0.52643,1.8633,-5.5702,6.7077,-0.15974,-0.043371,0.0024435
-0.49988,1.7456,-5.4133,6.8058,-0.11026,-0.061392,0.016188
-0.49966,1.6867,-5.5702,6.8254,-0.047037,-0.05284,0.0051924
-0.48935,1.6867,-5.6094,6.6097,-0.053451,-0.026573,-0.012828
-0.45612,1.824,-5.4329,6.747,-0.069333,0.0042761,-0.018326
-0.43875,1.8044,-5.4133,6.8254,0.020159,0.022602,0.0097738
-0.4173,1.6671,-5.8252,6.9235,0.011606,0.011606,0.013439
-0.39041,1.824,-5.4133,6.8058,-0.036652,0.016493,0.0079412
-0.35938,1.7456,-5.5898,6.6097,-0.020769,0.025656,0.0085521
-0.34586,1.7064,-5.5113,6.6685,0.0009163,0.033292,0.0058032
-0.33142,1.8044,-5.5898,6.6685,0.020464,0.040623,0.0015272
-0.30438,1.8437,-5.6486,6.6881,0.03207,0.045509,0.0015272
-0.29385,1.6867,-5.5506,6.6097,0.025045,0.043982,0.0024435
-0.28568,1.6867,-5.5113,6.8254,-0.044899,0.01069,0.010079
-0.27475,1.6867,-5.4917,6.7077,-0.054978,0.0048869,0.0064141
-0.26285,1.8044,-5.4133,6.8058,-0.060476,0.00061087,0.01405
-0.2518,1.5298,-5.4133,6.8254,-0.054062,0.0030543,0.015577
-0.2316,1.824,-5.4133,6.747,-0.037568,0.013744,0.014966
-0.22055,1.6475,-5.5113,6.6685,-0.020464,0.023518,0.012217
-0.21674,1.6083,-5.3937,6.9235,-0.01405,0.024435,0.010385
-0.1749,1.7456,-5.4133,6.8254,-0.018326,0.020769,0.012217
-0.16208,1.5298,-5.5506,6.7666,-0.032987,0.018021,0.0030543
-0.12506,1.7456,-5.6486,6.747,-0.034819,0.018631,0.0030543
-0.1232,1.5887,-5.4133,6.7666,-0.037568,0.01741,0.0042761
-0.071045,1.824,-5.5702,6.8254,-0.040623,0.013439,0.0036652
-0.023102,1.6671,-5.5113,6.6685,-0.042455,0.0042761,0.0030543
0.034546,1.824,-5.4133,6.9039,-0.038485,-0.0045815,0.007025
0.079376,1.6475,-5.4133,6.8254,-0.026267,-0.007025,0.0076358
0.12405,1.6671,-5.5898,6.6881,-0.0058032,0.0009163,0.0048869
0.18253,1.6083,-5.5702,6.6685,0.013744,0.013439,0.0027489
0.23456,1.6867,-5.4525,6.8254,0.025351,0.024435,0.0018326
0.27097,1.7456,-5.3937,6.9039,0.024435,0.03146,0.0082467
0.31067,1.9221,-5.6486,6.8058,0.0097738,0.030238,0.010079
0.34579,1.6475,-5.6094,6.7666,-0.016188,0.022907,0.0061087
0.38086,1.9221,-5.8252,6.6685,-0.046731,0.010996,0.0036652
0.41354,1.6671,-5.7075,6.6097,-0.066279,-0.0012217,0.0054978
0.43411,1.6083,-5.4329,6.747,-0.067195,-0.0045815,0.0051924
0.48218,1.6867,-5.4133,6.845,-0.078802,0.097128,-0.014966
0.51147,1.824,-5.4133,6.845,-0.086132,0.11118,0.023213
0.54926,1.7064,-5.5898,6.747,-0.086437,0.12675,0.078496
0.55884,2.0006,-5.884,6.6489,-0.05284,0.11881,0.065057
0.5892,1.7456,-5.5898,6.6685,0.018937,0.086132,0.04948
0.60654,1.7456,-5.5506,6.7077,0.11606,0.04948,0.055589
0.61826,1.7456,-5.5506,6.8647,0.22174,0.048869,0.044288
0.65527,1.4318,-5.4329,6.8647,0.24587,0.062614,-0.0009163
0.66263,1.824,-5.4329,6.6685,-0.2981,-0.016188,-0.49999
0.71194,1.7456,-5.5898,6.8058,-0.33842,-0.18448,-0.50977
0.74335,1.5887,-5.5898,6.9235,-0.23793,-0.3769,-0.029932
0.77252,1.9221,-5.5702,6.8058,-0.13958,-0.54795,-0.19823
0.80801,1.7456,-5.5506,6.9235,-0.026878,-0.62278,-0.35155
0.87057,1.8044,-5.7467,7.0019,0.060476,-0.64171,-0.4273
0.93585,1.9809,-5.8252,7.1785,0.13042,-0.64752,-0.46731
1,1.7064,-5.8252,7.3746,-0.09163,-0.66401,-0.50213
1,1.2945,-6.2959,7.7669,0.14936,-0.68967,-0.27917
1,1.3337,-6.3351,7.61,0.12462,-0.71685,-0.22663
1,0.56879,-6.1978,8.9044,0.095906,-0.74862,-0.52321
1,0.66685,-6.7666,9.2183,0.07086,-0.79107,-0.50091
1,1.7456,-7.1785,8.5318,0.047953,-0.8436,-0.45021
1,2.1575,-6.492,7.2373,0.019242,-0.89125,-0.39248
1,2.0594,-5.5113,6.8254,0.12278,-0.91538,-0.34728
1,2.2948,-4.4522,6.9235,0.15669,-0.91844,-0.31796
1,2.0006,-4.0796,6.9235,-0.030543,-0.91508,-0.038179
1,2.0006,-4.2561,6.845,-0.0039706,-0.90347,-0.022602
1,2.4713,-4.2953,6.492,0.022907,-0.87354,-0.19273
1,2.5497,-4.4914,6.0409,0.044593,-0.82253,-0.18784
1,3.0597,-4.6484,5.4917,0.041539,-0.76511,-0.17349
1,3.0989,-4.3934,5.5898,0.0067195,-0.71227,-0.13134
1,3.2558,-4.4914,5.5702,-0.015882,-0.66096,-0.086743
1,3.5304,-4.6287,5.5702,-0.039095,-0.61087,-0.058338
1,3.6481,-4.9622,5.5702,0.38729,-0.32223,1.0776
1,4.0011,-5.5898,5.5898,0.57482,-0.24893,1.0553
1,4.0403,-5.2564,5.6682,0.81153,-0.13073,0.72326
1,4.1188,-5.4525,5.9232,1.007,0.010996,0.77946
1,4.158,-5.7075,6.237,1.0971,0.13378,0.87384
1,4.3345,-5.6486,6.6685,1.0745,0.20433,0.98441
1,4.0207,-5.3937,7.0019,0.95539,0.2306,1.0785
1,3.805,-5.1387,7.0216,0.84147,0.22602,1.1063
1,3.8638,-4.7856,6.8254,0.82497,0.21197,0.97341
1,3.805,-4.4718,6.8647,0.90408,0.22663,0.95539
1,3.5304,-4.5111,7.0216,1.0525,0.29169,1.0412
0.99026,3.6285,-4.8837,6.6881,1.2168,0.39798,1.0119
0.87274,3.805,-5.021,6.6097,1.3375,0.53023,0.99815
0.74203,3.9423,-4.3934,6.8254,1.3857,0.64568,1.0146
0.58578,3.5696,-3.9423,7.3746,1.3323,0.72265,1.0198
0.39911,3.4912,-3.8246,7.3158,1.1894,0.77305,0.99785
0.21854,3.8638,-4.3345,6.8058,1.0214,0.77794,0.74739
0.017792,4.3542,-4.5699,5.8252,0.905,0.73793,0.71746
-0.18039,4.6484,-3.8638,5.3544,0.88545,0.71288,0.90897
-0.36111,3.8638,-3.3539,5.7663,0.95784,0.73976,0.81764
-0.51877,3.6285,-4.0796,6.237,1.0452,0.81276,0.73029
-0.6593,3.1185,-5.0798,6.5312,1.0644,0.89156,0.70158
-0.77899,2.942,-5.8252,6.1782,0.96792,0.93401,0.72021
-0.88068,2.942,-5.5113,5.7271,0.74251,0.91935,0.7422
-0.96478,2.0594,-4.3542,5.8055,0.58735,-0.31673,0.72418
-0.99997,1.6671,-3.7658,6.5312,0.79718,-0.24679,0.71685
-0.99997,1.1964,-4.4914,6.8254,0.93218,-0.19059,0.33872
-0.99997,1.0395,-4.9818,6.8254,0.95875,-0.1744,0.45357
-0.99997,0.76492,-4.5699,7.0608,0.85552,-0.19823,0.56352
-0.99997,0.17652,-3.6873,7.9238,0.66218,-0.24038,0.63958
-0.99997,-0.74531,-3.5696,8.6299,0.46609,-0.28894,0.67867
-0.99997,-0.50995,-3.9423,8.7475,0.33537,-0.33048,0.70708
-0.99997,-0.35304,-4.5111,8.4141,-0.47617,-0.11881,0.084299
-0.99997,0.17652,-4.3345,8.8064,-0.63591,-0.18601,0.054978
-0.99997,-0.19613,-3.7658,9.689,-0.73976,-0.25381,0.050702
-0.99997,-0.50995,-3.3931,9.9832,-0.77855,-0.29505,0.064752
-0.99997,-0.66685,-3.3931,10.062,-0.74739,-0.30788,0.069028
-0.99997,-0.54917,-3.55,10.199,-0.72724,-0.30024,0.074831
-0.99997,-0.27459,-4.2561,9.6497,-0.1347,-0.26237,0.071166
-0.99997,-0.019613,-4.158,8.8848,-0.28741,-0.21838,0.069028
-0.99997,0.17652,-4.2561,8.1787,-0.37354,-0.19975,-0.029016
-0.99997,0.54917,-4.1972,7.4727,-0.15058,-0.16554,-0.021991
-0.99997,0.86299,-4.2365,7.61,0.098044,-0.12065,0.0015272
-0.99997,0.96105,-3.55,7.6296,0.32926,-0.060781,-0.044899
-0.99997,0.8826,-2.8832,7.9434,0.43433,0.0058032,-0.089797
-0.99997,0.72569,-1.824,8.4141,0.39615,0.072082,-0.11973
-0.99997,0.76492,-1.5691,8.4729,-0.68295,0.09896,-0.11881
-0.99997,0.98067,-2.2751,8.1787,-0.55467,0.072388,-0.071166
-0.99997,1.0787,-3.0989,8.0807,0.4386,0.073915,-0.15088
-0.9686,1.4318,-3.8834,8.4926,0.53359,0.13592,-0.14294
-0.8931,0.98067,-3.7658,8.9044,0.56413,0.17379,-0.30024
-0.83035,0.60801,-3.2558,9.1202,0.49999,0.1854,-0.26939
-0.76202,0.70608,-2.8243,9.1006,0.33292,0.17104,-0.23396
-0.71884,0.76492,-3.0401,8.7868,0.080634,0.12523,-0.19059
-0.68002,0.90221,-3.7069,8.218,-0.22266,0.06017,-0.16157
-0.65491,1.1376,-4.1384,7.9238,-0.52076,-0.011301,-0.15547
-0.64273,0.98067,-4.4914,7.708,-0.73334,-0.063225,-0.0045815
-0.62222,0.80415,-5.0798,7.6884,-0.80451,-0.083689,0.021686
-0.61572,1.0199,-5.1975,7.8453,-0.74159,-0.081245,-0.1405
-0.60538,1.2945,-3.8442,8.0022,-0.56474,-0.049175,-0.12981
-0.59891,0.74531,-2.4517,8.9044,-0.354,-0.0009163,-0.12248
-0.59375,0.70608,-2.7851,8.5514,-0.18601,0.01069,-0.10568
-0.60312,0.74531,-3.2166,8.1199,-0.083689,-0.017715,-0.059865
-0.59796,1.118,-3.2362,8.0022,-0.06353,-0.064141,-0.023213
-0.60785,1.0395,-3.4519,8.0218,0.20678,-0.048564,-0.19823
-0.62067,1.0199,-4.413,8.0022,0.2306,-0.025045,-0.2135
-0.61227,1.0787,-4.5699,7.7669,0.21716,-0.0030543,-0.16066
-0.62668,1.118,-3.903,8.0022,0.17165,0.011912,-0.17013
-0.65115,1.118,-3.4519,8.0807,0.10812,0.0051924,-0.1628
-0.67221,1.1964,-3.55,7.7473,0.05284,-0.014966,-0.15882
-0.69333,1.118,-3.6873,7.8649,0.029016,-0.041539,-0.16432
-0.68146,1.118,-3.3539,8.2572,0.035736,-0.058643,-0.17654
-0.67401,1.2945,-3.1381,8.4141,0.17135,-0.054672,-0.21014
-0.6489,1.3337,-3.6873,8.218,0.047647,-0.032681,-0.22297
-0.61887,1.4906,-3.7658,8.1199,0.071471,-0.007025,-0.20769
-0.5918,1.6475,-3.4127,8.4729,0.061392,-0.010996,-0.19242
-0.56689,1.6475,-3.3146,8.4337,0.030849,-0.029932,-0.18448
-0.55707,1.7064,-3.6088,8.2572,0.025962,-0.03146,-0.18662
-0.5394,1.3925,-3.6873,8.316,0.062308,-0.016799,-0.19578
-0.53406,1.5102,-3.6873,8.4141,0.12034,0.0058032,-0.20159
-0.5267,1.3533,-3.55,8.2768,-0.068111,-0.10537,-0.13011
-0.50592,1.4906,-3.3931,8.2572,-0.056505,-0.097433,-0.12309
-0.48926,1.3533,-3.4519,8.2572,-0.048869,-0.084299,-0.10934
-0.48355,1.5887,-3.4716,8.1003,-0.043371,-0.084299,-0.11606
-0.4729,1.7064,-3.3931,8.2572,-0.035736,-0.097128,-0.12126
-0.44696,1.3729,-3.8442,8.1199,-0.033292,-0.10476,-0.13164
-0.44519,1.4514,-3.8638,8.218,-0.045509,-0.1011,-0.13806
-0.43365,1.6083,-3.903,8.2376,-0.067195,-0.10324,-0.13744
-0.40979,1.824,-3.5696,8.3945,-0.10293,-0.11057,-0.13806
-0.4165,1.5495,-3.3146,8.5514,-0.10324,-0.1237,-0.14355
-0.41721,1.5495,-3.3146,8.5514,-0.082467,-0.12553,-0.12431
-0.43481,1.3533,-3.4716,8.4141,-0.059559,-0.11454,-0.1295
-0.45184,1.6475,-3.3735,8.0807,-0.036346,-0.11423,-0.11729
-0.46585,1.5298,-3.4519,8.1003,0.0064141,-0.11118,-0.10446
-0.47894,1.118,-3.6677,8.0807,0.073304,-0.0956,-0.12248
-0.48511,1.3925,-3.9423,7.9434,0.14783,-0.072998,-0.13897
-0.50195,1.7064,-3.5304,7.963,0.25595,0.036346,-0.098655
-0.4906,1.7064,-3.2362,8.2376,0.23457,0.064752,-0.11087
-0.48056,1.7456,-3.2362,8.3357,0.21655,0.080634,0.009163
-0.47849,1.9809,-3.1577,8.2572,0.22083,0.07758,-0.021686
-0.4718,1.6867,-3.197,8.6495,0.22724,0.071166,-0.050396
-0.47137,1.7456,-3.4519,8.6299,0.21197,0.072388,-0.07086
-0.48117,1.9025,-3.2362,8.8064,0.18784,0.079412,-0.092852
-0.50302,2.1182,-3.197,8.7083,0.24374,0.067806,-0.10568
-0.48959,2.0202,-3.2362,8.7083,0.14966,0.024435,-0.13592
-0.52255,1.5298,-3.4716,8.3945,0.14905,0.031765,-0.12309
-0.52994,1.8437,-3.8638,8.0022,0.13439,0.036652,-0.17807
-0.53586,1.8044,-3.6285,8.0807,0.098044,0.035736,-0.16952
-0.53995,2.0594,-3.4127,8.1787,0.053451,0.025962,-0.15485
-0.55389,1.8633,-3.2362,8.1787,0.009163,0.0024435,-0.146
-0.54413,2.0006,-3.2166,8.218,-0.0281,-0.02138,-0.13256
-0.526,1.9221,-2.942,8.1591,-0.057421,-0.033598,-0.13225
-0.51474,1.9613,-2.9224,8.3945,-0.13256,-0.040012,0.0067195
-0.48929,2.0006,-2.9224,8.2572,-0.13195,-0.044899,0.02474
-0.46869,2.0594,-3.1381,8.2572,-0.089797,-0.040317,-0.1069
-0.43738,1.9221,-3.5304,8.0807,-0.03207,-0.020769,-0.093462
-0.40302,1.9221,-3.6677,8.0807,0.011301,0.012828,-0.084605
-0.36258,1.8437,-3.197,8.3749,0.021991,0.034514,-0.082161
-0.30988,1.7064,-2.8243,8.7083,-0.085216,0.032681,-0.051618
-0.28336,2.0006,-3.1577,8.4926,-0.11026,0.017104,-0.0067195
-0.24643,2.1378,-3.4519,7.9434,-0.10843,-0.009163,0.047342
-0.23145,2.0594,-3.5696,7.9042,-0.15547,-0.043982,0.028711
-0.22577,2.1575,-3.6285,8.1787,-0.16066,-0.081551,0.060781
-0.24216,2.1771,-3.6088,8.3749,-0.11301,-0.10965,0.07422
-0.26968,2.2948,-3.5108,8.6299,-0.020159,-0.10507,0.065363
-0.29688,2.3732,-3.3146,8.6299,0.090103,-0.07758,0.053756
-0.32169,1.8633,-3.197,9.0417,0.0012217,-0.038485,0.054672
-0.34714,1.9809,-3.0793,8.7083,-0.04948,-0.00030543,0.056505
-0.36343,2.1575,-3.0793,8.4926,-0.2532,-0.045509,-0.015577
-0.36792,2.1378,-3.1381,8.4926,-0.27061,-0.038179,-0.022907
-0.36246,2.2163,-3.0793,8.4141,-0.23152,-0.020769,-0.012217
-0.35336,2.4517,-3.0793,8.4337,-0.16371,0.0042761,-0.012523
-0.36081,2.1575,-3.197,8.4141,-0.10049,0.029016,-0.018631
-0.33871,2.1575,-2.9224,8.5514,-0.068111,0.055283,-0.02474
-0.33899,1.9221,-2.687,8.8848,-0.074526,0.075747,-0.02138
-0.32852,1.5495,-3.2362,8.9437,-0.099571,0.081245,-0.015272
-0.32227,1.4318,-3.3146,8.2572,-0.10079,0.086132,-0.02138
-0.32306,1.3533,-2.4713,8.218,-0.054062,0.099876,-0.026878
-0.32199,1.2945,-2.2751,8.3749,0.029016,0.12248,-0.029016
-0.31897,1.1964,-2.4713,8.4141,0.10629,0.13378,-0.026878
-0.31512,1.4906,-2.9028,8.0022,0.13928,0.12767,-0.01405
-0.30356,1.8044,-2.9224,8.0611,0.11851,0.097738,-0.00030543
-0.28604,1.9025,-3.0008,8.0807,0.057727,0.060781,-0.0033598
-0.2731,2.2948,-2.9028,8.316,-0.016188,0.035125,-0.016799
-0.25436,2.4517,-3.4127,8.3945,-0.060781,0.023824,-0.10049
-0.25131,2.589,-3.3735,8.5514,-0.027794,0.024435,-0.10782
-0.24225,2.2751,-3.0793,8.9437,0.0281,0.034819,-0.040623
-0.2417,2.2359,-2.942,8.9437,0.072693,0.047342,-0.057727
-0.23517,2.432,-3.0008,8.7868,0.09499,0.052229,-0.069944
-0.24167,2.4517,-3.295,8.3749,0.093157,0.048869,-0.07758
-0.21173,2.1378,-3.197,8.4926,0.079107,0.040928,-0.081245
-0.19455,2.2163,-3.0597,8.6887,0.069028,0.040928,-0.087659
-0.16415,2.3732,-3.2362,8.4141,0.062919,0.049786,-0.047037
-0.15335,2.1378,-3.0008,8.1003,0.064446,0.066279,-0.047342
-0.13739,1.8633,-2.8243,8.1787,0.065668,0.076358,-0.10629
-0.12543,1.3533,-2.687,8.5514,0.051007,0.075747,-0.097738
-0.10846,1.3533,-2.6282,8.2572,0.012828,0.068417,-0.082161
-0.10883,1.2945,-2.7262,8.1787,-0.042761,0.051007,-0.072388
-0.10278,1.5298,-2.942,8.1199,-0.10232,0.033292,-0.064446
-0.086975,1.2749,-2.7851,8.4926,-0.14569,0.019548,-0.052534
-0.081116,1.6867,-3.0989,8.8064,0.14325,0.042455,0.048258
-0.05423,1.6083,-3.1577,8.7083,0.15241,0.051618,0.048564
-0.030304,1.8044,-3.1577,8.8064,0.13378,0.04948,0.089797
-0.010376,1.4906,-2.9028,8.8652,0.12095,0.052534,0.079412
0.0085144,1.5298,-2.8439,8.8652,0.11698,0.070555,0.064446
0.018738,1.6671,-3.0401,8.8064,0.12004,0.09499,0.058948
0.037872,1.8633,-2.4713,8.8652,0.13897,0.12431,0.05681
0.067383,1.6867,-2.2555,9.2575,0.17471,0.15882,0.051313
0.08783,1.6867,-2.5105,9.0417,0.28314,0.18876,0.034208
0.11661,1.9613,-3.0793,8.6887,0.27886,0.21655,-0.015882
0.13757,2.2948,-3.3146,8.2376,0.27061,0.23121,0.043677
0.15668,2.2948,-3.1381,8.1787,0.34575,0.208,0.052534
0.16907,2.2948,-3.0401,8.0218,0.50977,0.16554,0.075747
0.15775,2.2751,-2.7851,7.963,0.5116,0.16554,0.10232
0.14752,2.4517,-3.0008,7.8649,0.21747,0.23549,0.0956
0.14069,2.5105,-3.0793,8.1199,0.2587,0.19945,0.067501
0.13007,2.2948,-3.2166,8.2572,0.17776,0.12248,-0.12614
0.11877,2.2359,-3.0989,8.1003,-0.24893,0.017715,-0.1628
0.11108,2.2359,-3.3931,7.8649,-0.59162,-0.12767,-0.013744
0.082886,2.0594,-3.6285,7.9434,-0.73182,-0.27519,-0.021075
0.049194,1.9221,-3.197,8.8456,-0.68845,-0.36438,-0.055283
-0.02359,1.5298,-2.8832,9.5125,-0.51618,-0.37415,-0.04948
-0.1225,2.4909,-3.0793,7.0019,0.53542,-0.34392,-0.030543
-0.25558,1.5495,-3.3931,9.9832,0.48319,-0.27306,-0.063225
-0.35794,1.2945,-2.6086,11.258,-0.018326,-0.13806,0.059559
-0.44943,2.0594,-1.3337,10.454,0.050091,-0.094684,0.076969
-0.50925,2.2751,-1.118,7.61,0.18204,0.091324,-0.14966
-0.53485,1.8044,-2.5105,6.5312,0.28283,0.15577,-0.11301
-0.5336,2.3732,-3.6285,7.1589,0.24862,0.15516,-0.075442
-0.49893,2.432,-3.5304,8.0022,0.13408,0.11332,-0.062614
-0.43463,1.8044,-3.0401,8.8848,-0.026573,0.056505,-0.082772
-0.36002,1.824,-2.4713,8.8064,-0.17654,-0.0054978,-0.1014
-0.28882,1.7456,-2.3732,8.7475,-0.007025,-0.0012217,-0.019853
-0.20663,2.0594,-2.9028,8.5514,-0.0045815,-0.0073304,-0.010996
-0.13651,2.1575,-2.6282,8.2376,-0.047037,-0.023518,-0.0094684
-0.089691,2.1771,-2.7459,8.218,-0.10873,-0.051007,-0.0051924
-0.070679,2.2359,-2.687,8.2572,-0.15302,-0.087048,-0.0048869
-0.054535,2.0202,-2.8243,8.5318,-0.14752,-0.11545,-0.012217
-0.044312,2.079,-3.197,8.7475,-0.10873,-0.12217,-0.022602
-0.029694,2.1182,-3.3735,9.0613,-0.075747,-0.1182,-0.027794
-0.0081177,2.1182,-3.3146,9.1202,-0.074526,-0.11942,-0.060476
0.0060425,2.1378,-3.0008,8.8652,-0.087048,-0.12553,-0.07422
0.021576,1.7456,-2.7262,8.6299,-0.087048,-0.13256,-0.009163
0.013214,1.824,-2.8439,8.4337,-0.062919,-0.13256,-0.0079412
0.014435,1.824,-2.8243,8.5318,-0.024435,-0.11881,-0.0015272
0.0029297,1.6867,-2.6086,8.6299,0.016493,-0.093768,-0.0088575
-0.0030212,1.824,-2.4713,8.6887,0.051618,-0.06017,-0.025656
-0.023499,1.7652,-2.5693,8.5514,0.099266,-0.032987,-0.044593
-0.02948,1.7456,-2.8832,8.4337,0.18692,-0.0018326,-0.10385
-0.039398,1.6671,-3.2166,8.4337,0.27367,0.038179,-0.11484
-0.042053,1.6867,-3.2362,8.8456,0.32926,0.058948,-0.087048
-0.040283,1.9025,-3.0793,8.9437,0.34422,0.055894,-0.083078
-0.040131,1.9221,-3.0008,8.8456,0.32651,0.026878,-0.076358
-0.038055,2.0594,-3.0008,8.7279,0.30727,-0.023213,-0.077274
-0.03833,1.9613,-2.8243,8.8064,0.29016,-0.063225,-0.077885
-0.050049,2.0594,-2.8243,8.7868,0.28588,-0.090103,-0.085827
-0.057404,2.2948,-3.0401,8.4141,0.069333,0.016188,-0.0079412
-0.077271,2.4517,-3.2362,8.4141,0.035125,0.013134,-0.010996
-0.10318,2.432,-3.4519,8.4141,-0.029627,0.00030543,-0.0030543
-0.14355,2.1575,-3.2558,8.2572,-0.11118,-0.018937,0.018937
-0.19031,2.0594,-2.687,8.3945,-0.17898,-0.031154,0.0281
-0.25827,1.6083,-2.6086,8.8652,-0.19823,-0.029016,0.027794
-0.30063,1.8633,-2.9028,8.7279,-0.16218,-0.016799,0.023518
-0.33228,2.1378,-3.2166,8.5514,-0.099266,-0.0051924,0.0079412
-0.37338,2.1771,-3.0401,8.4337,-0.19059,-0.048869,0.007025
-0.39993,2.2163,-2.1575,8.316,-0.25992,-0.038485,0.00061087
-0.42371,2.1378,-1.9809,8.2768,-0.32895,-0.039095,-0.012523
-0.44223,2.2948,-2.3732,7.8061,-0.37568,-0.055283,0.0064141
-0.45526,2.1575,-2.432,7.9238,-0.39095,-0.075442,0.015882
-0.47198,2.2948,-2.2751,8.1787,-0.36805,-0.09163,0.012217
-0.4903,2.1771,-1.9025,8.4141,-0.12828,-0.095906,0.0085521
-0.51599,2.4517,-1.7456,8.4141,-0.14111,-0.097128,0.0088575
-0.53534,2.589,-2.2751,8.6299,-0.13806,-0.086437,0.029322
-0.54114,1.8437,-3.0401,9.5713,-0.12401,-0.057116,0.03207
-0.53079,2.0006,-3.0008,10.375,-0.13958,-0.022602,-0.0036652
-0.48193,2.4909,-1.9613,10.277,-0.14997,-0.0097738,0.017104
-0.42944,2.3928,-1.1964,8.9044,-0.14386,-0.024129,0.044288
-0.36905,1.9613,-1.2553,7.6492,-0.13317,-0.044288,0.044288
-0.30621,2.0594,-1.9613,7.8061,-0.29963,-0.052229,0.028711
-0.23444,2.687,-2.432,8.1003,-0.20678,-0.050702,0.023213
-0.16089,2.2948,-3.0597,8.8652,-0.42241,-0.18601,0.010079
-0.093964,2.2359,-2.9028,9.2183,-0.47831,-0.17226,-0.0051924
-0.024841,1.9809,-2.5105,9.2771,-0.44043,-0.14172,-0.014661
0.029663,2.1182,-2.6086,9.0613,-0.36957,-0.12034,-0.0064141
0.049713,2.0594,-2.687,8.6299,-0.27642,-0.070555,-0.015577
0.085449,2.2948,-2.6282,8.7083,-0.15363,0.0094684,-0.036346
0.11417,2.4517,-2.432,8.7279,-0.045815,0.069639,-0.025045
0.11264,2.2751,-2.2751,8.7083,0.0079412,0.091019,0.0079412
0.12787,2.2359,-2.4517,8.4141,-0.021686,0.087965,-0.022602
0.12622,1.9809,-2.942,8.0807,-0.078191,0.079718,-0.022602
0.12396,2.2359,-3.0793,8.2572,-0.13928,0.063835,-0.01741
0.13107,1.9025,-2.9028,8.4926,-0.17715,0.031154,-0.018937
0.12704,2.0594,-3.0793,8.4926,-0.17135,-0.011606,-0.0061087
0.12561,1.9613,-3.0401,8.6887,-0.14447,-0.047037,-0.00030543
0.11212,2.1575,-3.0597,8.5514,0.018326,-0.064446,-0.0094684
0.099274,2.2751,-2.9224,8.4141,0.01069,-0.061392,-0.020769
0.090271,2.1575,-2.7851,8.0807,-0.037874,0.072082,-0.033598
0.091217,2.1575,-3.0597,8.4141,-0.067806,0.057727,-0.021991
0.094513,2.2948,-2.7262,8.316,-0.027184,0.059559,-0.012523
0.08606,2.3928,-2.7459,8.4926,0.061392,0.083689,-0.032376
0.039581,2.2948,-2.7459,8.6299,0.13958,0.12339,-0.058643
0.05481,2.3732,-2.8243,8.6299,0.17471,0.1576,-0.066279
0.043701,2.0594,-2.9028,8.8064,0.15577,0.1744,-0.06017
0.051697,1.9613,-2.8832,9.1202,0.078496,0.17135,-0.04948
0.045288,2.0594,-2.9224,8.9044,0.077274,0.032681,0.009163
0.040649,2.1378,-2.4124,8.7083,0.030238,0.019853,0.0088575
0.035248,2.1575,-2.0594,8.6887,0.054367,0.027489,0.016493
0.025879,2.4517,-2.2948,8.5906,0.12645,0.051313,0.010385
0.021362,2.589,-2.7851,8.5318,0.19853,0.07025,0.011301
0.0081787,2.6086,-3.0793,8.6495,0.24221,0.083383,0.0015272
0.00036621,2.3928,-2.9028,8.6887,0.25015,0.086437,-0.0033598
-0.0083008,2.3732,-2.8243,8.5514,0.22602,0.075136,0.0042761
-0.014984,2.3732,-2.8243,8.316,0.18998,0.062308,-0.002138
-0.021576,2.1771,-2.7459,8.0022,0.15577,0.065973,-0.0085521
-0.041412,2.0594,-2.8243,8.2768,0.13958,0.079718,0.0033598
-0.055206,1.8437,-3.0008,8.2376,0.15058,0.1011,-0.0058032
-0.086914,1.7064,-2.9812,8.5318,0.16677,0.12217,-0.0048869
-0.094757,1.824,-2.7262,8.6495,0.16799,0.13561,0.015272
-0.097015,1.7456,-2.5105,9.0417,0.17776,0.1405,0.025351
-0.11444,1.5495,-2.2948,9.179,0.208,0.15058,0.013134
-0.11899,1.9025,-2.0594,8.8848,0.25107,0.17196,-0.025351
-0.12024,1.824,-2.4713,8.6887,0.2532,0.1857,-0.018631
-0.11533,2.1575,-2.7851,8.3749,0.25137,0.18326,-0.012217
-0.11862,2.0006,-2.3144,8.5514,0.24496,0.17226,-0.018631
-0.10785,1.6867,-1.8437,9.1202,0.23152,0.1573,-0.027184
-0.10214,1.3729,-1.726,9.3163,0.19212,0.13836,-0.033292
-0.095001,1.6867,-2.1967,9.0221,0.12309,0.11423,-0.032987
-0.082489,2.0594,-2.589,9.1986,0.03879,0.091019,-0.0281
-0.075378,1.9221,-2.3144,9.0025,0.47647,-0.009163,-0.10263
-0.049927,1.8044,-2.1967,9.0025,0.14447,0.10537,-0.07025
-0.023346,1.6867,-2.1182,8.8064,0.10568,0.19639,-0.046731
-0.0083313,1.824,-2.432,8.5318,0.098349,0.30299,-0.023213
-0.010925,1.9221,-2.6086,8.3749,0.1744,0.38423,-0.0054978
6.1035e-05,1.9025,-2.5105,8.316,0.30329,0.38607,0.0015272
-0.0021057,1.9221,-2.432,8.6299,0.43524,0.29047,-0.0015272
-0.011841,1.5887,-2.0986,8.7475,0.47953,0.20922,-0.045509
-0.023041,1.824,-2.3732,8.7083,-0.063835,0.032681,-0.0085521
-0.040131,1.8044,-2.432,8.5514,-0.053451,0.026573,-0.0076358
-0.048004,1.8437,-2.3732,8.5906,-0.044288,0.025351,0.0073304
-0.062592,1.9025,-2.2751,8.9044,-0.034208,0.028711,-0.0036652
-0.064178,1.8044,-2.2751,8.8652,-0.036652,0.028711,-0.00061087
-0.066864,1.7456,-2.1967,9.0417,-0.048564,0.03207,0.0058032
-0.08194,1.5298,-2.1575,8.9437,-0.062614,0.037568,0.002138
-0.085724,1.6671,-2.4713,9.0221,-0.060781,0.046731,0
-0.096405,1.8044,-2.432,9.0025,-0.06689,0.055589,0.090103
-0.10938,1.9221,-2.3732,8.8652,-0.043066,0.051924,0.10079
-0.11749,1.6671,-2.0594,8.8652,0.040012,0.035736,-0.01741
-0.11084,1.3925,-2.6086,9.1594,0.12278,0.014355,-0.050396
-0.10828,0.96105,-3.4519,8.9633,0.17043,0.0045815,-0.075136
-0.099457,1.0395,-2.9224,8.8456,0.18418,-0.018937,-0.0562
-0.075775,0.76492,-2.1967,9.0613,-0.047647,-0.073304,0.0051924
-0.066559,0.80415,-2.1575,9.5125,-0.055589,-0.15119,0.057727
-0.063049,1.0787,-2.5693,9.3555,0.12523,-0.2306,-0.043677
-0.062561,1.4906,-2.3144,8.9437,0.094073,-0.28314,-0.057727
-0.096771,1.9221,-2.4124,8.5318,0.08094,-0.30543,0.095906
-0.16388,2.5301,-1.9417,7.61,0.059559,-0.30727,0.094379
-0.26315,3.4127,-1.6475,7.0019,0.051313,-0.2923,0.099266
-0.35434,3.2362,-1.8437,7.0019,0.09896,-0.2697,0.10232
-0.42947,2.3732,-2.2163,8.8652,0.17196,-0.22633,0.076358
-0.48492,2.2948,-2.3732,10.827,0.1573,-0.13195,0.011606
-0.49738,2.6086,-1.7456,11.042,-0.039095,0.15944,-0.068417
-0.4668,2.2359,-1.3729,9.8263,-0.025351,0.16096,-0.064752
-0.41873,2.432,-1.1768,8.3749,0.014355,0.17013,-0.091324
-0.37415,2.2751,-1.6475,7.61,0.052229,0.17318,-0.088575
-0.32532,2.4517,-2.6086,7.7669,0.078191,0.17593,-0.090408
-0.26422,2.4517,-3.0793,8.4141,0.086132,0.17837,-0.097128
-0.20221,2.0006,-2.3536,9.3359,0.072388,0.17135,-0.096211
-0.13071,1.9221,-2.1967,9.4928,0.026573,0.15669,-0.082772
-0.086029,1.9809,-2.2555,9.179,-0.096822,0.13286,-0.034514
-0.057037,1.9221,-2.2163,8.8652,-0.12737,0.10079,-0.021686
-0.036041,2.0006,-1.9809,8.2768,-0.12523,0.072693,-0.065057
-0.05191,2.0594,-1.8829,8.1787,-0.11484,0.062614,-0.066279
-0.045105,1.8633,-2.0006,8.7083,-0.097128,0.061392,-0.065668
-0.047913,1.8044,-2.432,8.8652,-0.075442,0.06017,-0.06353
-0.043427,1.7652,-2.432,8.8848,-0.06689,0.07086,-0.053756
-0.037903,1.7064,-2.432,8.8652,-0.075136,0.089797,-0.044899
-0.029541,1.5495,-2.2751,8.7475,-0.086132,0.10476,0.0281
-0.023376,1.0395,-2.1182,9.0221,-0.085521,0.11759,0.0064141
-0.019653,1.0395,-2.1967,8.6887,-0.076053,0.13592,-0.015882
-0.0023804,1.3925,-2.4124,8.5514,-0.063225,0.1631,-0.012217
0.0020752,1.5298,-2.4713,8.5318,-0.048869,0.18509,0.00030543
0.019257,1.7456,-2.3732,8.4141,-0.019548,0.19273,0.021075
0.023895,1.7064,-2.2751,8.5318,0.027489,0.1909,0.029016
0.047363,1.7652,-2.0594,8.4926,0.13286,0.17349,0.032376
0.062225,1.5298,-2.1182,8.6887,0.27092,0.17349,-0.013744
0.087799,1.4906,-2.2555,9.179,0.37202,0.18937,-0.0018326
0.11337,1.3925,-2.6282,9.689,0.45509,0.17074,0.027184
0.1311,1.4318,-3.2166,9.5125,0.48197,0.12798,0.033903
0.14493,0.56879,-2.2555,10.827,0.3204,0.038485,0.015272
0.117,0.5884,-1.1572,11.768,-0.04612,-0.12462,0.038485
0.095795,1.7456,-1.3533,9.7478,-0.405,-0.32681,0.055283
0.057709,1.8437,-2.0006,7.4727,-0.61087,-0.4725,0.0094684
0.028412,1.5102,-2.2163,7.1196,0.17287,0.23213,-0.011606
0.033783,1.4906,-2.3144,7.8649,0.2868,0.27489,0.0048869
0.031097,1.6867,-2.0594,8.6887,0.37293,0.31001,-0.0039706
0.026154,1.6083,-2.432,9.0221,0.4609,0.33201,-0.034208
0.035583,1.9613,-2.4713,8.6299,0.53756,0.35247,-0.075136
0.047607,2.0006,-2.6086,8.4141,0.5339,0.3769,-0.081856
0.052704,2.2359,-2.2751,8.4926,0.37965,0.33934,-0.061392
0.053253,2.1771,-2.2751,8.6495,0.13592,0.2416,-0.025351
0.062347,2.5497,-2.4713,8.4926,-0.029932,0.15852,-0.027794
0.053589,2.1771,-2.6674,8.4141,-0.12187,0.052534,-0.029627
0.039001,2.4517,-2.6086,8.3945,-0.23854,-0.10934,0.026878
0.028351,2.4517,-2.2948,8.6495,-0.31612,-0.2923,-0.021075
0.017731,2.4713,-2.0594,8.9633,-0.34086,-0.39004,-0.015577
0.0098877,2.2948,-2.3144,8.9437,-0.33048,-0.40531,-0.062308
-0.0021057,2.5497,-2.3144,8.4729,0.027794,-0.38607,-0.087354
-0.013977,2.6086,-2.2948,8.1003,0.0018326,-0.34697,-0.045204
-0.026215,2.589,-2.2163,8.1199,-0.30513,-0.32162,-0.0018326
-0.03479,2.3732,-2.7459,8.9044,-0.24312,-0.30513,-0.0073304
-0.033325,1.9809,-2.9224,9.9832,-0.14844,-0.27886,-0.032987
-0.014587,1.3925,-2.2948,10.003,-0.099266,-0.22785,-0.018937
-0.012939,0.66685,-1.5887,8.8652,-0.10171,-0.16432,-0.01405
-0.010223,-1.1572,-1.9025,9.4732,-0.12187,-0.11148,0.0015272
-0.010986,-0.35304,-2.4124,11.042,-0.33445,-0.076664,0.021075
-0.007019,1.5102,-2.4517,9.9636,-0.33262,-0.053451,0.0079412
-0.0054932,1.1964,-2.0986,7.963,0.1689,0.11148,-0.041539
-0.016724,1.1964,-1.3729,7.7669,0.11087,0.094379,-0.021075
-0.027618,1.1376,-1.7456,7.9434,0.046426,0.069028,-0.0562
-0.047943,1.8633,-2.2751,8.1003,0.0079412,0.064141,-0.061697
-0.061615,2.0006,-2.6086,8.3749,-0.010385,0.090408,-0.064446
-0.062317,2.3732,-2.687,8.5514,-0.016799,0.12431,-0.057727
-0.058075,2.4517,-2.6282,8.7083,-0.013744,0.15547,-0.048258
-0.054565,2.2948,-2.0986,9.0025,0.045204,0.18326,-0.043982
-0.054565,2.1771,-1.824,8.8848,-0.15944,0.0082467,-0.029322
-0.035156,1.8044,-2.0594,8.8064,-0.15547,0.0033598,-0.03207
-0.014282,2.1771,-2.0006,8.4141,-0.12187,0.0036652,-0.0042761
0.0024719,1.9809,-2.1378,8.6299,-0.08094,0.012828,-0.0030543
0.013641,2.1771,-2.4124,9.0417,-0.04948,0.023213,-0.0082467
0.035858,2.2948,-2.7851,9.0025,-0.029322,0.028405,-0.01069
0.036011,2.2359,-3.1381,8.7279,-0.019853,0.030849,-0.012217
0.029144,2.1575,-3.0793,8.8848,-0.019242,0.03543,-0.02138
0.042786,2.1378,-3.0008,9.179,-0.026573,0.04215,-0.061697
0.050476,1.9025,-3.197,8.9044,-0.04215,0.054672,-0.059865
0.053192,1.9613,-3.0597,8.8064,-0.051924,0.068722,-0.040012
0.055603,2.1575,-2.4713,8.5318,-0.032681,0.082161,-0.051924
0.038116,2.0202,-2.3732,8.2768,-0.0009163,0.10018,-0.061697
0.03891,2.3732,-2.5105,8.1787,0.018021,0.11484,-0.067806
0.020874,2.2948,-2.432,8.4141,0.011606,0.11332,-0.06689
0.014893,2.1575,-2.6282,8.2768,-0.0067195,0.096822,-0.062003
0.010437,2.1771,-2.6086,8.316,0.020769,-0.10812,-0.083689
-0.0015259,2.2359,-2.432,8.3945,0.0088575,-0.096822,-0.082467
-0.016479,2.1771,-2.2555,8.5514,-0.04612,-0.097433,-0.080329
-0.029572,1.9809,-2.3732,8.4926,-0.10629,-0.10629,-0.087965
-0.040588,2.0594,-2.7459,8.4337,-0.13867,-0.10385,-0.094073
-0.051208,2.2948,-2.9028,8.7083,-0.14355,-0.083078,-0.10476
-0.043793,2.3732,-3.0989,8.7475,-0.13775,-0.060781,-0.10904
-0.055481,2.2751,-2.9224,8.7083,-0.13103,-0.057116,-0.097433
-0.063812,2.2359,-2.7459,8.4141,-0.11729,-0.066584,-0.01069
-0.069702,2.2948,-2.7851,8.1003,-0.087965,-0.064752,-0.010385
-0.092987,2.4713,-2.9028,8.3749,-0.039706,-0.045204,-0.085216
-0.092773,2.1575,-2.7655,8.7083,0.01069,-0.013134,-0.078496
-0.12018,2.2948,-2.942,8.8652,0.029627,0.014355,-0.062919
-0.12872,2.0594,-2.8243,8.8848,0.0085521,0.020769,-0.040317
-0.16382,2.1575,-2.8832,8.7475,-0.037874,0.015272,-0.022602
-0.16934,1.9221,-2.7459,8.8652,-0.091019,0.011606,-0.013134
-0.19003,1.8044,-2.5105,9.0417,-0.24435,0.045509,0.14844
-0.20844,1.4318,-2.2555,9.0417,-0.3598,-0.021686,0.1292
-0.21814,1.3533,-2.1378,9.1202,-0.3989,-0.087965,0.19426
-0.21658,1.824,-2.0594,8.5906,-0.39187,-0.14233,0.18754
-0.24112,1.9221,-2.432,8.316,-0.34728,-0.1631,0.18479
-0.26538,2.2948,-2.7459,8.2572,-0.25656,-0.15974,0.20433
-0.29193,2.5497,-2.7459,8.1199,0.093157,-0.14691,0.2135
-0.30634,2.5497,-2.7851,8.2572,-0.071777,-0.12095,0.18631
-0.32733,2.4713,-2.9028,8.0807,0.04612,-0.08491,-0.012828
-0.34818,2.4517,-2.7459,8.5514,0.11637,-0.045815,-0.039706
-0.3782,2.2359,-2.7262,8.6299,0.14416,-0.011912,0.1182
-0.3895,2.1771,-2.7262,8.9437,0.11729,0.016799,0.093157
-0.39752,1.6671,-2.432,9.0613,0.047647,0.048258,0.058032
-0.40002,1.6867,-2.7262,9.0417,-0.054062,0.076358,0.026267
-0.38721,1.6671,-2.3732,8.8848,-0.15027,0.083078,0.0064141
-0.38562,1.6867,-1.9417,8.8064,-0.048869,0.055894,-0.0033598
-0.37912,1.824,-1.5102,8.8652,0.082467,0.058032,0.023213
-0.37936,1.6083,-1.6475,9.0025,0.16035,0.056505,0.034208
-0.39584,1.6671,-1.726,8.8456,0.23915,0.063225,-0.096822
-0.40915,1.7456,-1.8829,8.8064,0.3036,0.079412,-0.075747
-0.41498,1.6083,-2.3144,8.5514,0.3372,0.094684,-0.061087
-0.41919,1.7064,-2.1967,8.8652,0.32254,0.09896,-0.036957
-0.40781,1.3925,-1.8437,9.3359,0.27092,0.088881,-0.011301
-0.37521,1.4318,-1.8437,9.434,0.22022,0.078496,0.01069
-0.32849,1.8437,-2.432,8.8064,0.12767,0.079412,0.15424
-0.27881,2.0202,-3.0008,8.6299,0.096822,0.088575,0.18112
-0.20282,2.0006,-3.5304,8.5318,0.1347,0.095295,0.043677
-0.13214,2.1378,-3.3735,8.2768,0.20769,0.099266,0.044288
-0.061005,2.0594,-3.3931,8.1787,0.24801,0.11454,0.041844
0.002655,2.0594,-3.0793,8.2572,0.20647,0.13744,0.04948
0.078186,2.0006,-2.4124,8.5514,0.19364,0.14111,0.073915
0.12317,1.7064,-2.5105,8.9437,0.17287,0.1069,0.11393
0.16904,1.9221,-2.6086,8.7475,0.1292,0.4667,-0.18967
0.20273,1.824,-2.942,8.7279,-0.022907,0.36163,-0.14203
0.22546,2.0594,-2.6282,8.7279,-0.12767,0.26756,-0.11881
0.2178,1.8633,-2.2751,8.9633,-0.16921,0.17257,-0.1347
0.18921,1.5495,-1.9809,9.3359,-0.15424,0.087048,-0.12187
0.14267,1.8437,-2.3732,9.1594,-0.036957,0.07086,-0.13439
0.085358,1.9221,-2.5693,8.8652,0.18967,0.10812,-0.19059
0.01358,1.9221,-2.7459,8.7475,0.42455,0.14844,-0.22022
-0.068329,1.9221,-2.0594,8.7279,-0.039095,0.018937,0.0094684
-0.14694,1.9221,-1.4318,9.0613,0.16738,0.096517,-0.022602
-0.23087,1.9809,-1.471,9.0025,0.30268,0.14936,-0.034514
-0.30621,2.2359,-2.2948,8.4141,0.31673,0.15241,0.0009163
-0.37173,2.3928,-3.2362,8.0807,0.2135,0.10049,0.036041
-0.42685,2.2751,-2.7262,8.4337,0.0281,0.010385,0.062308
-0.45425,1.6083,-1.8437,9.0613,-0.15699,-0.080023,0.06689
-0.47006,1.5298,-1.6671,9.2183,-0.25626,-0.11698,0.046731
-0.48047,1.9613,-2.432,8.7083,-0.15638,-0.088881,-0.12248
-0.48468,2.1771,-3.0989,7.8649,-0.024129,-0.018021,-0.10843
-0.47314,1.824,-2.9028,8.0807,0.070555,0.058032,-0.025045
-0.46259,1.9613,-3.0793,8.5318,0.091019,0.093462,-0.0027489
-0.42877,2.2948,-2.8832,9.0221,0.083078,0.085216,0.011912
-0.39481,2.6478,-2.4713,9.2575,0.087354,0.073609,-0.011912
-0.36688,3.0793,-1.9613,8.4926,0.10904,0.078802,-0.065363
-0.32388,2.9028,-1.8829,7.5903,0.13836,0.091019,-0.10996
-0.29919,2.8635,-2.3732,7.2373,0.14416,0.10629,-0.093462
-0.28284,2.3928,-1.824,8.4926,0.086132,0.14447,-0.10507
-0.24411,2.1575,-1.8829,9.5125,-0.010385,0.19151,-0.087048
-0.23145,2.1575,-2.1967,9.8066,-0.091935,0.21747,-0.065973
-0.2009,1.8633,-3.3931,9.3555,-0.035736,0.2303,-0.057421
-0.14484,2.2359,-3.55,8.5906,0.14844,0.31887,-0.067501
-0.079102,1.3533,-3.0008,9.2575,0.28833,0.45357,-0.08827
-0.0083618,0.66685,-2.0986,10.297,0.26878,0.51832,-0.087048
0.051636,0.90221,-1.4318,9.6694,-0.46762,-0.30329,-0.09163
0.087036,0.72569,-1.5102,8.9044,-0.1854,-0.21838,-0.080023
0.12665,1.1964,-1.8829,8.0807,-0.068111,-0.23976,-0.045204
0.13528,1.1964,-1.6475,7.9238,-0.1405,-0.33781,-0.022602
0.11746,1.118,-1.0395,8.7083,-0.20097,-0.40439,-0.057421
0.077515,0.98067,-1.118,10.199,-0.17074,-0.41264,-0.072388
0.016663,1.3533,-1.5102,10.454,-0.089492,-0.37477,-0.061392
-0.090698,2.589,-1.7456,7.3354,0.0082467,-0.30757,-0.080634
-0.23636,1.0199,-1.9417,6.1193,0.064752,-0.24984,0.045509
-0.34827,-0.82376,-1.4318,10.67,0.048258,-0.21808,0.047037
-0.4122,0.80415,-3.2166,12.474,-0.039401,-0.20372,-0.07422
-0.46545,1.5495,-4.1972,9.0417,-0.16218,-0.18845,-0.074831
-0.47986,0.70608,-2.3732,8.4141,-0.2868,-0.16707,-0.057421
-0.48694,1.0591,-1.6475,8.7279,-0.38301,-0.16127,-0.018937
-0.47266,1.5102,-2.432,8.4926,-0.41294,-0.1741,0.013439
-0.42542,2.2948,-2.9812,8.7083,-0.33078,-0.17257,0.034514
-0.35126,2.0594,-2.6086,9.2183,0.092241,-0.12248,0.11484
-0.26471,2.432,-1.8829,8.9437,0.10385,-0.030238,0.11759
-0.17786,2.4713,-1.2553,8.2572,0.088881,0.042761,0.04948
-0.092621,2.2163,-1.4318,7.8649,0.08094,0.074526,0.081245
-0.031189,2.5497,-2.5105,7.7865,0.087659,0.085216,0.11576
0.018372,2.9224,-2.7459,8.1787,0.094073,0.10049,0.12126
0.026703,2.687,-2.6086,8.6495,-0.15485,0.11942,0.10812
0.023132,2.2948,-2.3144,8.6299,0.0094684,0.13011,0.10263
-0.0032959,2.0006,-2.1575,8.4141,-0.026573,0.12156,0.050091
-0.03125,1.9809,-2.432,8.9437,-0.002138,0.08094,0.039706
-0.039032,2.0594,-3.1381,9.0221,0.06353,0.035736,0.098655
-0.077148,2.2751,-3.1381,8.8652,0.12767,0.022907,0.07086
-0.1102,2.0202,-2.6086,8.4926,0.16218,0.04215,0.047037
-0.155,1.824,-2.1967,8.316,0.15852,0.072082,0.033292
-0.19266,1.824,-2.0594,8.8652,0.07086,0.10171,0.03146
-0.21918,1.7456,-2.4124,9.1202,0.013134,0.11637,0.047342
-0.23438,1.9809,-2.3732,8.7279,-0.16952,-0.019242,0.011912
-0.23538,1.9809,-2.3144,8.1003,-0.21502,-0.062919,-0.016799
-0.24115,2.1575,-1.9809,8.1199,-0.20159,-0.069028,0.0012217
-0.2634,1.9613,-2.589,9.7478,-0.15485,-0.03879,-0.0051924
-0.32233,1.8437,-3.2362,10.12,-0.1347,0.0051924,0.0033598
-0.3996,2.0006,-3.0401,9.787,-0.15913,0.03207,0.030543
-0.4653,1.1964,-2.2751,10.454,-0.21197,0.037874,0.04948
-0.48645,2.2359,-1.118,10.474,-0.29138,0.037263,0.036041
-0.52725,2.1182,-0.5884,8.2376,-0.38118,0.03879,-0.047037
-0.53348,1.5298,-1.5102,7.0608,-0.2981,0.046731,-0.052534
-0.51868,2.2359,-2.3732,7.3158,-0.13592,0.068722,-0.048258
-0.48022,2.0594,-2.7655,8.2768,0.035125,0.11301,-0.071471
-0.42352,1.5298,-2.432,8.9044,0.1463,0.16127,-0.080023
-0.35635,1.2945,-1.9025,9.434,0.15821,0.17135,-0.076664
-0.29202,1.2749,-1.824,9.1006,0.10324,0.14386,-0.059559
-0.22885,1.2945,-2.3144,8.9437,0.016799,0.099876,-0.044593
-0.17395,1.824,-2.432,8.4926,-0.062003,0.0562,-0.029016
-0.13919,1.7064,-2.1967,8.3749,-0.0956,0.024435,-0.015882
-0.10846,1.824,-2.1378,8.1787,-0.080634,0.016799,-0.057727
-0.095612,2.1378,-2.6086,8.0807,-0.046426,0.034514,-0.065057
-0.078796,2.432,-3.3146,8.4337,-0.025962,0.063225,-0.060476
-0.040649,2.8635,-2.9028,9.179,-0.01741,0.075136,-0.047037
-0.018921,2.6086,-2.432,9.5125,-0.010996,0.059865,-0.043982
-0.0026245,2.4517,-2.1378,9.3752,0.0018326,0.027184,-0.043066
-0.0011292,2.687,-2.3732,8.8652,-0.15058,-0.0088575,0.025351
-0.0023499,2.2359,-2.2751,8.8064,0.010996,-0.03207,0.03207
-0.019592,2.1182,-2.432,8.9044,0.030238,-0.054978,-0.012217
-0.028839,1.3533,-2.5693,9.1594,0.025351,-0.080023,0.0024435
-0.023499,1.118,-2.432,9.2771,-0.027184,-0.10721,0.02474
-0.031219,1.3337,-2.0986,8.9437,-0.096517,-0.13042,0.033903
-0.033234,1.2945,-1.824,8.6495,-0.13683,-0.1292,0.028711
-0.035492,1.3533,-2.1378,8.4337,-0.15119,-0.10018,0.023824
-0.059967,1.4318,-2.432,8.2768,0.34575,-0.040012,-0.007025
-0.057953,1.4318,-2.5105,8.218,0.28527,-0.047647,0.019242
-0.06839,1.824,-2.7262,8.1003,0.21472,-0.061087,-0.025045
-0.072937,1.7456,-2.7459,8.4141,0.12065,-0.052534,-0.021686
-0.086426,1.8633,-2.3732,8.7868,0.018326,-0.028405,-0.021075
-0.10999,1.6867,-1.8829,8.9633,-0.044593,-0.014355,0.0076358
-0.10571,2.0006,-1.9809,8.8064,0.36988,-0.0048869,0.03543
-0.10623,2.0006,-2.589,9.2183,0.38912,0.034819,0.016493
-0.10202,2.5497,-3.3539,9.689,0.064446,0.11668,-0.059865
-0.087189,2.4713,-2.8439,9.434,0.25779,0.25259,-0.04948
-0.079681,1.8044,-2.3144,9.434,0.48747,0.41386,0.099876
-0.077576,1.6671,-1.6867,10.042,0.51313,0.6017,0.18815
-0.076447,2.2948,-1.5102,9.6694,0.5733,0.66706,0.21075
-0.091339,2.2751,-1.8829,8.4926,0.55803,0.5003,0.13225
-0.11014,2.079,-1.9809,8.0022,-0.042761,0.34117,0.01069
-0.1145,1.4318,-2.2751,8.2572,0.0051924,0.22022,-0.037874
-0.099335,1.1964,-3.0008,8.4141,0.089186,0.15821,-0.075442
-0.080292,0.98067,-3.1381,8.4926,-0.31001,0.13011,-0.076969
-0.060638,0.98067,-2.7262,8.8456,-0.66798,0.080634,0.044288
-0.048523,1.3925,-1.8829,8.3749,-0.78679,-0.022297,0.11332
-0.055084,1.5495,-1.3729,8.1591,-0.60537,-0.098044,0.091019
-0.080261,1.9809,-1.6475,8.316,-0.17501,-0.065973,0.023824
-0.11215,2.7655,-1.6671,7.7473,0.46731,0.054978,-0.020159
-0.18195,2.9224,-1.6475,6.8254,0.33964,0.18204,-0.049786
-0.26328,1.0591,-2.2751,7.1589,-0.29505,-0.27978,-0.043677
-0.32715,0.60801,-2.9028,11.67,-0.23091,-0.22235,-0.036041
-0.36505,2.6086,-3.0793,12.513,-0.14447,-0.1573,-0.12065
-0.34836,2.4909,-1.2553,9.9636,-0.071166,-0.1182,-0.082772
-0.32864,2.1575,-0.23536,8.6299,-0.0281,-0.11118,-0.034208
-0.31348,2.7655,-0.96105,6.7077,0.017715,-0.11912,0
-0.2662,3.3146,-2.7655,6.6097,0.11973,-0.10446,-0.0033598
-0.17996,3.0793,-3.7069,9.9636,0.26848,-0.064446,-0.029016
-0.065704,3.4716,-2.432,12.807,-0.748,-0.53023,0.0012217
0.061829,2.7459,-2.2751,12.925,-0.41661,-0.41539,-0.058643
0.16147,3.6285,-2.4517,10.062,-0.14416,-0.26237,0.030849
0.23917,3.6285,-1.6279,7.2373,0.033292,-0.13042,0.043066
0.26736,2.8635,-1.4906,6.1978,0.10782,-0.039706,0.083078
0.2623,1.5298,-2.432,6.2174,0.089492,-0.00061087,0.1014
0.26764,1.3533,-1.6475,6.9235,0.0281,-0.010996,0.098655
0.25012,0.74531,-1.1572,8.0218,-0.015272,-0.021686,0.067501
0.19803,0.76492,-1.1768,8.8652,-0.0088575,-0.016799,0.048564
0.093506,-0.27459,-0.52956,8.7279,0.049786,-0.0097738,0.061392
-0.016479,-3.197,-0.49033,10.591,0.10537,0.012217,-0.069639
-0.089355,-3.197,-1.1572,13.769,0.11851,0.045204,-0.043677
-0.12619,-0.05884,-2.2751,10.415,0.11606,0.044899,-0.01741
-0.14575,0.49033,-1.4906,7.61,0.14386,0.024129,0.00061087
-0.17117,-0.39227,-0.27459,7.3158,0.17929,0.012217,0.012217
-0.16559,0.2942,-1.0395,7.5903,0.18967,0.011606,0.029932
-0.12634,1.1768,-2.9028,8.5318,-0.57421,-0.48686,0.068722
-0.033966,1.5298,-3.2362,10.101,-0.49724,-0.44715,0.043066
0.098145,1.3729,-2.5105,10.768,-0.40561,-0.3146,0.033292
0.23956,1.824,-1.8437,9.9636,-0.40592,-0.22144,0.062614
0.36752,2.1575,-2.7655,8.6299,-0.5226,-0.19945,0.11454
0.45959,2.8635,-3.6677,7.963,-0.72265,-0.23885,0.15638
0.52243,3.2558,-3.197,8.0218,-0.84299,-0.27672,0.14844
0.53409,2.8635,-2.5105,8.2768,-0.81245,-0.26939,0.10843
0.51025,2.334,-2.2751,8.4141,-0.66432,-0.20861,0.10568
0.49716,2.7851,-2.3732,8.3945,-0.50183,-0.14508,0.062003
0.44089,2.7655,-2.432,8.7279,-0.45815,-0.13378,0.078802
0.39142,2.3732,-2.432,8.7279,-0.56139,-0.17959,0.13806
0.34537,1.824,-2.3144,8.7279,-0.76114,-0.25901,0.16524
0.29486,1.9221,-2.4124,8.6299,-1.0003,-0.35583,0.17501
0.23761,1.824,-2.3732,8.8064,-1.1848,-0.46456,0.16952
0.17786,2.1182,-2.7459,8.3945,-1.1961,-0.54306,0.14478
0.12903,2.0006,-2.5105,8.6299,0.10537,0.091019,0.094379
0.090118,1.5298,-2.9028,9.0025,0.10843,0.14233,0.11668
0.08786,1.7456,-3.0793,8.8652,0.098349,0.1573,0.098655
0.09613,1.824,-2.8243,8.9437,0.067806,0.15852,0.12004
0.06427,1.824,-2.1967,9.1594,0.018326,0.14416,0.12889
0.039215,1.8437,-2.1575,9.0221,-0.014355,0.10751,0.12767
0.0068054,1.9809,-2.687,8.316,0.10568,0.060476,0.11881
-0.0079346,1.6083,-2.8243,8.316,0.10568,0.002138,0.10049
-0.015839,1.9613,-2.8832,8.5514,-0.066584,-0.020159,-0.029322
-0.020721,2.0006,-2.4517,8.8652,-0.092546,-0.025351,-0.04948
-0.028107,1.824,-2.1967,8.8652,-0.097433,-0.0058032,-0.018021
-0.034302,1.8633,-2.2948,8.4337,-0.092546,0.030238,-0.014661
-0.050354,2.0006,-2.6086,8.316,-0.072693,0.061697,-0.01405
-0.075562,1.7652,-2.7459,8.1591,-0.037263,0.087354,-0.010385
-0.09433,1.7456,-2.687,8.4337,-0.012523,0.10599,-0.0027489
-0.12357,2.0006,-2.6086,8.316,-0.023518,0.12248,-0.0082467
-0.13556,1.8633,-2.687,8.7083,-0.052229,0.13714,-0.057116
-0.14923,1.7652,-2.4713,9.3359,-0.031154,0.13561,-0.042455
-0.13602,1.6867,-2.432,9.6301,0.051313,0.13928,-0.067806
-0.11978,1.4906,-2.3732,9.1202,0.13225,0.1463,-0.076053
-0.11487,1.6867,-1.9809,8.6299,0.14325,0.13408,-0.069944
-0.095398,1.3729,-1.7456,8.5514,0.089492,0.088881,-0.054978
-0.082428,1.6475,-1.9025,8.8456,0.039095,0.034208,-0.046426
-0.061951,1.6671,-2.4713,8.6887,0.017104,-0.0018326,-0.054062
-0.048096,1.9809,-2.5105,8.1787,-0.030238,-0.013134,0.058032
-0.04248,1.9221,-1.9809,8.0807,-0.037263,-0.0094684,0.074831
-0.032867,1.7456,-1.9613,8.7475,-0.041539,-0.011301,-0.016493
-0.024292,1.6083,-2.3536,9.9439,-0.032681,-0.026878,0.012217
-0.011261,1.3925,-2.5301,10.572,0.0045815,-0.042761,0.037568
-0.036652,2.3732,-2.8243,9.2183,0.065363,-0.04612,0.047953
-0.11026,2.2359,-3.3146,6.1193,0.0015272,-0.028405,0.047342
-0.21155,1.6671,-3.8442,9.2575,-0.01741,0.025962,0.048869
-0.29883,1.1768,-2.6086,11.042,0.030543,-0.04612,0.030543
-0.36835,2.0594,-1.118,10.12,0.086132,-0.011301,0.033903
-0.40924,1.7064,-0.5884,8.0611,0.09499,0.0097738,0.025656
-0.43011,1.4906,-1.5102,7.0608,0.061392,0.0085521,0.03543
-0.44266,1.8437,-2.4713,7.5903,-0.0012217,-0.0097738,0.044288
-0.43405,1.824,-3.0008,8.0807,-0.05681,-0.029016,0.04612
-0.39093,1.8044,-2.7851,8.7475,-0.092241,-0.041233,0.040623
-0.31323,1.7456,-2.3732,8.9044,-0.10904,-0.038485,0.031765
-0.23459,1.7456,-2.1575,8.9437,-0.17807,0.076664,-0.051007
-0.14896,2.1575,-2.3536,8.7083,-0.18601,0.05284,-0.054062
-0.073059,2.1575,-2.5105,8.3749,-0.17104,0.041539,-0.05681
-0.013153,2.0594,-2.2751,7.7865,-0.14722,0.039095,-0.059865
0.03653,1.9613,-2.2948,8.1787,-0.14203,0.040623,-0.056505
0.079498,1.9221,-2.5301,8.8848,-0.15547,0.036957,-0.05284
0.11374,2.0006,-2.8243,9.3752,-0.15547,0.027184,-0.054367
0.15186,1.9613,-2.7851,9.2771,-0.12584,0.015272,-0.051313
0.19244,1.824,-2.6086,9.2575,-0.043982,0.0048869,0.023213
0.20645,1.8044,-2.589,9.0417,-0.0097738,-0.0094684,0.039095
0.23178,1.7456,-2.5105,9.3555,0,-0.043677,-0.043677
0.23572,1.3533,-2.2948,9.434,-0.012523,-0.086437,-0.027489
0.24692,1.5298,-2.3732,9.4144,-0.023518,-0.1295,-0.017104
0.2514,1.5495,-2.3144,9.3163,-0.029932,-0.16249,-0.011912
0.25946,1.824,-2.4124,8.9437,-0.040317,-0.18479,-0.0039706
0.25122,2.0006,-2.3732,8.6495,-0.058032,-0.19639,0.0076358
0.21655,2.1575,-2.2163,8.316,-0.079718,-0.19823,0.020464
0.19003,2.079,-2.5105,8.218,-0.093157,-0.18815,0.022297
0.16812,2.2359,-2.7655,8.1003,-0.1069,-0.16677,0.049786
0.15286,2.2163,-3.0008,8.2572,-0.12706,-0.14447,0.054062
0.13251,2.0594,-2.7459,8.4926,-0.15149,-0.13103,0.054672
0.11084,1.824,-2.6282,8.7475,-0.15485,-0.12217,0.051924
0.10034,2.0006,-2.8243,8.6299,-0.11515,-0.10629,0.043371
0.081116,1.9809,-2.7459,8.4141,-0.047647,-0.080634,0.029627
0.075775,2.0006,-2.9028,8.3945,0.040317,0.076969,-0.075442
0.080872,2.0594,-2.7459,8.5514,0.048258,0.090408,-0.065973
0.092957,2.0006,-2.6282,8.5906,0.052534,0.10751,-0.10171
0.094208,2.2948,-2.5105,8.4141,0.052229,0.1182,-0.096822
0.08783,2.3928,-2.6086,8.5514,0.047953,0.11698,-0.097128
0.082855,2.5497,-2.7459,8.4926,0.058643,0.11118,-0.098349
0.054535,2.6478,-2.8832,8.7083,0.093462,0.11179,-0.094073
0.051605,2.2948,-2.942,8.6299,0.12981,0.11362,-0.086437
0.045013,2.4517,-3.0597,8.4141,0.11179,0.11148,-0.07758
0.054413,2.6086,-2.7655,8.4337,0.062919,0.1066,-0.069333
0.062195,2.2948,-2.5105,8.5514,0.040012,0.091019,-0.054978
0.042389,1.9809,-2.5105,8.7083,0.04612,0.073915,-0.04215
0.026947,1.9809,-2.687,8.4926,0.058338,0.069333,-0.043677
0.037048,1.9613,-2.6282,8.6299,0.067195,0.08094,-0.055894
0.047363,2.2359,-2.5301,8.4926,0.15058,0.097433,-0.07025
0.031677,2.0594,-2.432,8.7083,0.14875,0.11484,-0.075747
0.035706,1.824,-2.5105,8.9044,0.025962,0.13195,-0.078191
0.0067749,1.7456,-2.432,9.1594,0.0033598,0.13958,-0.083078
0.0007019,1.6083,-2.2751,9.1594,-0.012828,0.13653,-0.062003
-0.034607,1.5102,-2.2751,8.8456,-0.018937,0.15058,-0.061697
-0.076721,1.5298,-2.0594,8.316,0.0015272,0.20586,-0.071471
-0.10703,1.6867,-2.1182,8.2572,0.029016,0.26573,-0.086132
-0.14758,1.8044,-1.9809,8.7083,0.067806,0.30391,-0.087659
-0.19507,1.824,-2.2555,8.6299,0.052229,0.30879,-0.082161
-0.2431,2.3732,-2.3732,7.9434,0.054367,0.27519,0.18967
-0.27112,1.7064,-2.1575,8.1199,0.11209,0.22541,0.23305
-0.26627,1.824,-2.3536,9.0417,0.17379,0.1912,-0.092852
-0.22647,1.824,-2.589,9.5125,0.17013,0.18845,-0.092546
-0.15915,2.0594,-2.1378,9.5321,0.11729,0.19517,-0.064446
-0.10156,2.0594,-1.5887,9.1202,-0.0012217,0.19028,0.0048869
-0.059937,2.3732,-2.0986,7.9238,0.043677,0.18204,0.066584
-0.067322,2.1378,-3.1381,6.2763,0.045815,0.19548,0.11729
-0.096191,-0.82376,-3.9227,10.513,0.78771,0.36469,-0.043371
-0.1178,-0.27459,-3.55,13.278,0.92454,0.44135,0.075747
-0.13882,1.8044,-2.0594,9.7478,0.67714,0.32223,0.097738
-0.17322,0.98067,-1.6475,7.3158,0.36224,0.11912,0.036041
-0.21848,0.2942,-1.4318,7.0019,0.010996,-0.12401,-0.047037
-0.23416,1.0395,-1.3337,8.8652,-0.39554,-0.28986,-0.076053
-0.23572,1.1964,-2.2751,9.0221,-0.71319,-0.32773,-0.12309
-0.20868,1.3729,-2.5105,9.2771,-0.79015,-0.23976,-0.13378
-0.16922,1.4318,-2.3144,9.2575,-0.52321,-0.14416,0.21961
-0.10394,2.0006,-2.2751,9.179,-0.27153,-0.11179,0.27184
-0.018341,2.3732,-2.3732,8.8652,0.048869,-0.064446,0.088881
0.066254,2.2751,-2.687,8.6887,0.3598,0.046731,0.035736
0.12469,2.6086,-2.687,7.8649,0.48655,0.2306,0.009163
0.12717,3.0793,-2.3144,7.4727,0.30635,0.37263,0.028711
0.091827,2.9616,-2.8243,7.9434,0.13225,0.39828,0.12828
0.0065002,2.6282,-3.3146,9.179,0.17532,0.43219,0.18967
-0.10004,2.4517,-2.9224,8.0022,0.34025,0.51221,-0.27245
-0.20535,1.4318,-1.6671,11.042,0.26848,0.60751,-0.29963
-0.29758,1.4318,-1.2553,11.062,0.058948,0.40073,0.19364
-0.33765,3.0989,-0.86299,7.9238,-0.043677,0.10263,0.037263
-0.35721,2.2359,-1.0199,5.3348,-0.17715,-0.10171,-0.1518
-0.34915,1.9221,-2.6282,7.5511,-0.26206,-0.19212,-0.23976
-0.31036,2.6282,-3.5304,9.179,-0.29902,-0.17746,-0.33109
-0.2551,2.6086,-3.1381,8.9633,-0.31612,-0.18998,-0.35064
-0.21854,2.2751,-2.0594,7.0608,0.13286,-0.15669,-0.020464
-0.22021,0.098066,-2.6086,7.5511,0.2022,-0.096517,0.056505
-0.22073,-1.8633,-4.1776,12.337,0.26695,-0.012828,0.12889
-0.21066,2.0006,-3.5304,11.846,0.28894,0.086132,0.078496
-0.19647,1.9025,-2.432,8.5514,0.23305,0.16829,0.030238
-0.1799,0.98067,-2.4517,8.2768,0.1744,0.19395,0.0042761
-0.1705,2.2163,-3.4519,8.2572,0.26939,0.22235,-0.022602
-0.12976,2.7851,-3.2558,7.7865,0.49602,0.27672,-0.050702
-0.049194,2.6478,-1.9809,7.6296,-0.053451,-0.90775,0.11057
0.045837,2.2948,-0.56879,7.61,0.29077,-0.78221,0.060476
0.12808,1.7456,0.37265,7.61,0.44654,-0.56291,0.16524
0.17609,1.2356,-0.25497,8.1003,0.39279,-0.32803,0.10446
0.15814,0.98067,-1.5691,9.6497,0.19334,-0.16249,0.087354
0.1153,-1.0591,-2.6086,9.5713,-0.039401,-0.088575,0.13714
0.080048,-1.9221,-2.5105,12.631,-0.77152,-0.082772,0.17135
0.070343,1.4122,-3.197,10.572,-0.46823,-0.10599,0.15791
0.061798,1.3533,-2.7459,7.1589,-0.27672,-0.11301,0.027184
0.055084,0.56879,0.19613,6.6097,-0.22083,-0.093462,0.025656
0.050934,0.17652,0.23536,7.2373,-0.14142,-0.055589,0.022907
0.046906,1.118,-0.74531,7.1785,-0.0562,0.00030543,-0.0094684
0.10956,0.66685,-2.432,9.2183,0.0097738,0.074831,-0.029627
0.18124,0.66685,-2.1967,12.788,0.0054978,0.15516,-0.037263
0.26025,0.13729,0.31381,13.965,-0.20525,0.22785,-0.030543
0.31116,0.5884,-0.49033,13.278,-0.27794,0.27489,-0.0027489
0.34161,1.824,-2.2751,11.238,-0.080329,0.28069,-0.00030543
0.33936,2.1182,-2.3144,10.12,-0.20556,0.24832,-0.036957
0.30515,2.4517,-1.6475,8.2768,-0.31398,0.19975,-0.046426
0.23923,2.0006,-2.6086,6.3547,-0.36713,0.15882,-0.048869
0.17966,3.0793,-3.3931,5.8252,-0.3598,0.13439,-0.067195
0.16354,3.0008,-2.2751,6.8647,-0.30452,0.13103,-0.072388
0.1499,2.6086,-1.5298,7.6884,-0.23243,0.13286,-0.055283
0.14557,2.7851,-1.8044,7.9238,-0.1686,0.13867,-0.040928
0.16394,2.8635,-2.6282,7.6884,0.027184,-0.22571,0.31551
0.20358,3.0008,-3.1381,7.8649,-0.45571,-0.63591,0.2416
0.24734,3.0597,-3.0008,7.8649,-0.64568,-0.85827,0.18509
0.27081,2.5497,-2.1575,8.1199,-0.55955,-0.93035,0.14019
0.29053,2.1771,-1.8437,8.4141,-0.40592,-0.92882,0.16646
0.29312,2.0594,-2.3144,8.4926,-0.36988,-0.90072,0.19212
0.28638,2.0202,-2.7459,8.8456,-0.52901,-0.89858,0.24923
0.28717,2.1575,-2.8832,8.8652,-0.75869,-0.92241,0.32193
0.27853,2.0006,-2.5693,9.0613,-0.17959,-0.041233,-0.054062
0.27905,1.9809,-2.5301,9.1594,-0.19273,-0.00030543,-0.043677
0.26849,2.0202,-2.1967,8.8652,-0.23305,0.03543,0.016493
0.23499,1.8044,-2.4713,8.9437,-0.25045,0.062919,0.011912
0.18439,1.9809,-2.9028,9.0417,-0.21197,0.098044,-0.0039706
0.1445,2.0006,-2.5693,9.3359,-0.13439,0.1463,-0.045509
0.097351,1.9221,-2.1378,9.5713,-0.063225,0.19334,-0.07025
0.065216,2.0006,-2.0594,9.179,-0.04612,0.21441,-0.066584
0.023346,2.1771,-2.3732,8.7868,-0.094684,0.20159,-0.010385
-0.0093994,2.0594,-2.3732,8.9437,-0.1295,0.15669,-0.0048869
-0.044434,2.2948,-2.432,8.9044,-0.073915,0.11515,-0.050396
-0.097473,1.9809,-2.2948,8.8064,0.046731,0.094073,-0.078802
-0.12518,1.8633,-2.432,8.4926,0.14691,0.098349,-0.095906
-0.16602,2.0006,-2.3732,8.4926,0.16799,0.094684,-0.087048
-0.19608,1.6671,-2.7459,8.7279,0.12401,0.058948,-0.057727
-0.21564,1.5298,-3.2362,8.7475,0.031765,0.0045815,-0.023518
-0.20853,1.2356,-2.4713,8.7279,0.14691,0.084605,0.067806
-0.20129,1.0199,-1.4906,9.3359,0.1573,0.11087,0.10171
-0.19107,1.0395,-1.216,9.5125,0.14325,0.10904,-0.073915
-0.19025,1.3925,-1.6867,8.8848,0.14172,0.092852,-0.088575
-0.19684,1.6083,-2.0986,8.2572,0.19914,0.081856,-0.12889
-0.21466,1.9221,-2.0594,8.1787,0.33689,0.086437,-0.14325
-0.23691,2.1771,-1.9613,8.4141,0.47373,0.090713,-0.089492
-0.27811,2.1182,-2.0986,8.2376,0.50427,0.065668,-0.0018326
-0.31064,2.4517,-2.8243,8.1003,0.23915,-0.0073304,0.042455
-0.34714,2.4713,-2.9028,8.3945,0.042761,-0.10751,0.028711
-0.38092,2.3928,-2.7262,9.0613,-0.095295,-0.18173,0.096211
-0.39545,1.824,-2.589,9.6301,-0.1686,-0.20922,0.071777
-0.39053,1.824,-2.8243,8.8652,-0.18845,-0.19761,0.057421
-0.38385,2.1182,-2.0986,9.0025,-0.18173,-0.1631,0.053756
-0.37973,1.9809,-1.6475,9.3555,-0.18143,-0.12156,0.054062
-0.34976,2.1771,-1.6475,9.5125,-0.18448,-0.08094,0.054062
-0.33218,2.1378,-2.5693,9.3555,-0.36408,-0.29474,-0.055589
-0.28357,1.8633,-3.2362,8.7083,-0.27611,-0.26786,-0.087048
-0.23203,1.5298,-2.8243,8.4729,-0.17074,-0.2138,-0.043371
-0.1879,1.4318,-1.7848,8.6299,-0.074831,-0.14111,-0.043371
-0.1514,1.7456,-1.5691,8.5514,0.0045815,-0.069944,-0.043677
-0.14371,2.0006,-2.1182,8.0022,0.022602,0.0064141,-0.024129
-0.13058,2.0006,-2.687,7.6884,-0.38698,0.073609,-0.032376
-0.13687,2.2751,-3.0793,8.1199,-0.39676,0.10934,-0.04948
-0.14716,2.0594,-3.1381,8.2572,-0.0082467,0.057727,0.035125
-0.16135,2.0594,-2.3732,7.8649,-0.090408,0.017104,0.043066
-0.15536,1.3533,-1.3337,8.4337,-0.20892,0.027489,0.072693
-0.1427,1.1964,-1.3337,9.6694,-0.21441,0.039095,0.12431
-0.11703,1.5887,-2.3536,11.14,0.022297,0.042455,0.23671
-0.10498,2.1575,-2.6086,10.532,0.23427,0.002138,0.25901
-0.14743,2.1378,-2.432,5.8252,0.48197,0.023213,0.094684
-0.22134,0.8826,-3.4519,9.8851,0.54611,0.012828,-0.032376
-0.29987,1.5298,-2.432,11.631,0.20067,-0.11912,-0.072693
-0.3562,2.0006,-0.39227,9.0417,-0.25198,-0.24832,0.096517
-0.40698,1.824,-1.5102,6.1193,-0.57696,-0.32345,0.025045
-0.41891,3.55,-3.5304,6.3547,-0.66401,-0.32559,0.068417
-0.38519,3.7461,-3.3146,7.2765,-0.5003,-0.23763,0.025656
-0.30624,1.824,-0.94144,7.5903,-0.15058,-0.036957,-0.12431
-0.22107,-0.078453,-1.8044,10.513,0.29047,0.22633,-0.23915
-0.13019,1.1964,-2.6086,11.827,0.65332,0.48533,-0.2138
-0.057831,1.7456,-2.2163,10.611,0.52321,0.66768,-0.033903
-0.013977,1.7064,-1.5691,8.218,0.33628,0.60537,-0.048258
-0.0037231,1.7456,-1.6475,7.3158,0.13592,0.36255,0.19761
0.0035095,1.9221,-2.2163,7.3746,-0.11545,0.16646,0.16952
0.0063171,1.9613,-2.6674,7.8061,-0.30299,0.002138,-0.0012217
0.032135,2.0006,-2.6282,8.7475,-0.37232,-0.13867,-0.094073
0.052246,2.2751,-2.6086,9.2771,0.79657,-0.24618,-0.10934
0.066772,2.2359,-2.2751,9.2183,0.74403,-0.29352,-0.065057
0.078705,2.0594,-1.9613,9.1594,-0.22755,-0.072998,0.010385
0.10355,1.6083,-1.6475,9.434,-0.17013,-0.024129,0.05284
0.13763,1.5298,-1.216,9.3359,-0.12034,0.011606,-0.012217
0.12891,1.5102,-1.3533,9.0417,-0.058032,0.029322,-0.013439
0.10715,1.824,-1.5691,8.6299,0.050091,0.0562,-0.01741
0.07724,1.6475,-2.2948,8.2572,0.18234,0.085827,-0.044899
0.054138,1.6867,-3.0401,8.5514,0.27458,0.094379,-0.064752
0.035461,1.8044,-2.7459,9.3359,0.27672,0.06353,-0.044593
0.027252,1.7652,-2.2948,9.5909,0.1967,-0.0054978,0.036652
0.0056152,1.9221,-2.0594,9.3163,0.080023,-0.089797,0.0054978
-0.016022,2.3732,-2.2163,8.6299,-0.022297,-0.16524,0.068111
-0.046204,2.3732,-2.6282,8.218,-0.085216,-0.21655,0.078191
-0.064362,1.8633,-2.942,8.4141,-0.10446,-0.20831,0.080023
-0.077728,1.7652,-3.4519,8.5318,-0.11729,-0.18082,0.07025
-0.081268,1.6083,-2.5301,9.1202,-0.13408,-0.1741,0.068722
-0.080933,1.3533,-1.5691,9.8851,-0.10721,-0.15852,0.062003
-0.11038,0.90221,-1.3533,9.8851,0.079718,-0.11026,-0.039401
-0.16455,1.118,-1.7456,9.179,0.20067,-0.037874,-0.071777
-0.23187,1.4318,-1.9025,8.4141,0.25626,0.040317,-0.017715
-0.29639,1.4906,-2.432,8.0807,0.19914,0.11026,-0.021075
-0.35837,2.1182,-2.432,8.4141,0.029322,0.16035,-0.0088575
-0.41772,2.1182,-1.9613,8.4141,-0.14569,0.16463,0.0097738
-0.45728,2.4713,-1.3141,7.963,-0.18418,0.12645,0.023824
-0.49625,2.0202,-2.0986,7.7865,-0.051007,0.10996,0.0054978
-0.51682,2.3732,-3.3146,8.2572,0.17226,0.15424,0.0073304
-0.49802,2.5497,-3.2362,8.8456,0.38362,0.22694,-0.040928
-0.47101,2.1771,-2.1378,9.3359,0.49022,0.29169,-0.078802
-0.44086,1.6083,-1.3533,9.6694,0.45235,0.32254,-0.059254
-0.42047,1.4514,-2.0594,9.3359,0.29658,0.29566,-0.015272
-0.39481,2.0594,-2.9812,8.2376,0.07086,0.21838,0.022297
-0.37576,1.3925,-2.7851,8.5906,-0.14478,0.11209,0.041233
-0.33484,1.5298,-2.1575,9.6301,-0.27275,0.0027489,0.038485
-0.32843,1.5102,-1.7456,9.6497,-0.17685,-0.2587,-0.098349
-0.30579,1.6671,-1.6475,9.0417,-0.15608,-0.2306,-0.10782
-0.28625,1.6867,-1.5298,8.4141,-0.14722,-0.18387,-0.00061087
-0.27002,1.2945,-1.5102,8.4926,-0.11545,-0.13256,-0.0079412
-0.25095,1.3729,-1.6671,9.1202,-0.041539,-0.078191,-0.033292
-0.2294,1.5102,-1.8044,9.179,0.036346,-0.027794,-0.057116
-0.19983,1.824,-2.0398,9.1006,0.077885,-0.00030543,-0.075442
-0.17966,1.9025,-2.0986,8.2572,0.081245,0.0036652,-0.086743
-0.17749,1.9809,-2.0986,7.6492,0.046731,-0.0012217,-0.046731
-0.17017,1.1964,-2.3732,8.6299,0.046731,-0.0073304,-0.040317
-0.11896,0.54917,-2.3732,9.9636,0.040928,-0.007025,-0.10904
-0.092987,1.1768,-2.0594,10.591,0.021991,-0.0009163,-0.1011
-0.033264,1.6475,-2.432,10.101,0.0018326,0.0054978,-0.093462
0.024292,1.8633,-2.3536,9.5713,-0.016188,0.010996,-0.083689
0.083221,2.1575,-2.2555,9.1202,0.066584,0.013439,-0.069333
0.1254,2.0594,-2.1575,8.6299,0.051313,0.018021,-0.055894
0.14453,1.9809,-2.4517,8.1787,-0.11606,0.020464,-0.036957
0.15393,1.7456,-2.2751,8.5514,-0.14111,0.011606,-0.033903
0.16367,1.5298,-2.1378,9.0221,-0.14813,-0.009163,-0.033598
0.15256,1.5495,-2.1967,8.8064,-0.14203,-0.023213,-0.030238
0.14511,1.7064,-2.0986,8.5514,-0.13378,-0.020464,-0.03207
0.13834,1.7064,-2.0594,8.4926,-0.13683,-0.011912,-0.035736
0.13504,1.7064,-2.0398,8.6495,-0.041844,-0.0036652,-0.040317
0.11469,1.6867,-1.9417,8.8064,-0.078191,0.012217,-0.042761
0.093262,1.5298,-2.1182,9.0417,-0.12156,0.016493,0.021991
0.074341,1.6867,-2.0986,8.8652,-0.13928,0.0033598,0.019548
0.051422,1.6083,-2.0594,8.7083,-0.12095,0.00030543,-0.032681
0.030212,1.7456,-2.1967,8.4141,-0.080634,0.0085521,-0.024435
0.0059204,1.5298,-2.0986,8.8064,-0.033903,0.0097738,-0.012217
-0.009491,1.6083,-2.0594,9.0417,-0.013744,-0.0018326,0.0076358
-0.030487,1.5102,-1.9025,9.1202,-0.033598,-0.016799,0.021075
-0.059662,1.9221,-1.9613,8.8456,-0.076358,-0.02474,0.022602
-0.078339,1.9221,-2.0594,8.8456,-0.14142,0.00030543,0.0094684
-0.084015,1.7064,-2.7655,8.9437,-0.16096,-0.0097738,-0.002138
-0.079773,1.7064,-2.687,9.0417,-0.146,-0.020769,0.0027489
-0.074097,1.5495,-2.687,9.2575,-0.11423,-0.018021,-0.0076358
-0.09375,1.7064,-2.7262,9.3555,-0.099571,-0.0082467,-0.016188
-0.10767,1.5298,-2.1967,9.3555,-0.1182,-0.009163,-0.010996
-0.11136,1.7064,-1.9809,8.8848,-0.14936,-0.026878,0.0048869
-0.11682,1.7652,-2.1575,8.7868,-0.17165,-0.04948,0.013744
-0.12897,1.9221,-2.2751,8.8064,-0.17532,-0.059559,-0.0061087
-0.14539,1.8633,-2.1378,8.8848,-0.1631,-0.045509,-0.0076358
-0.1488,2.0006,-2.0006,8.7083,-0.13286,-0.012217,-0.012828
-0.16589,2.0202,-2.1967,8.4141,-0.092546,0.015272,-0.014661
-0.17902,1.8633,-2.432,8.316,-0.050702,0.025656,-0.01069
-0.18564,1.9613,-2.432,8.7475,-0.010385,0.034514,-0.0064141
-0.19147,1.6867,-2.2751,9.1594,0.015272,0.040012,-0.0088575
-0.18549,1.9025,-2.2751,8.9044,0.022907,0.03543,-0.011606
-0.18964,1.824,-2.2555,8.7083,0.019853,0.0281,-0.026573
-0.19641,1.7652,-2.0986,8.4337,0.009163,0.0281,-0.0281
-0.18604,1.5495,-2.2751,8.6299,-0.013439,0.025351,-0.016188
-0.18365,2.0006,-2.5693,8.7475,-0.040623,0.023518,-0.016188
-0.17502,1.7456,-2.3144,8.9437,-0.051007,0.018937,-0.015272
-0.16428,2.0006,-2.432,8.8652,-0.027184,0.011606,-0.018326
-0.14221,2.1575,-2.6086,8.6299,0.020159,0.014661,-0.023518
-0.12213,2.0006,-2.4124,8.4729,0.072693,0.022907,-0.025962
-0.11023,1.824,-2.5105,8.8064,0.027489,0.036652,0.010385
-0.10587,1.824,-2.5301,9.0221,0.047953,0.036957,0.009163
-0.091705,2.0006,-2.432,9.1006,0.05284,0.02474,-0.018631
-0.092682,1.7456,-2.2163,9.0221,0.034514,0.0033598,-0.0067195
-0.083282,1.6867,-2.1575,8.9437,0.013439,-0.013439,0.0012217
-0.09256,1.8437,-2.432,8.6299,-0.0012217,-0.017104,0.0045815
-0.097076,1.8633,-2.5105,8.8064,-0.020464,-0.0082467,0.0027489
-0.10165,1.7652,-2.2948,8.9437,-0.059559,0.00030543,0.0051924
-0.11319,1.6671,-2.2751,8.8848,-0.069028,-0.060781,-0.044899
-0.11359,1.7456,-2.1967,8.9437,0.033292,-0.053145,-0.082161
-0.10895,1.5298,-2.3536,8.8848,0.077885,-0.011606,0.0281
-0.12582,1.6083,-2.3144,8.8652,0.054672,0.036346,0.013134
-0.13635,1.9809,-2.432,8.4926,-0.010996,0.056505,0.016188
-0.16473,2.0594,-2.1182,8.3749,-0.06353,0.049786,0.031154
-0.19434,2.2163,-2.0594,8.3945,-0.20922,0.029932,0.026878
-0.23169,2.2163,-2.1967,8.5514,-0.1686,0.026878,-0.0048869
-0.26584,2.3732,-2.6086,8.5514,0.033292,0.049175,0.029322
-0.30173,2.1575,-2.8243,8.8064,0.15882,0.085827,0.04612
-0.33575,2.0006,-2.5301,9.1986,0.32987,0.11881,-0.12034
-0.37173,1.824,-2.4124,9.3163,0.4609,0.15882,-0.15027
-0.41458,1.8633,-2.0594,9.4732,0.46578,0.19364,-0.16829
-0.43219,1.8633,-1.6475,9.434,0.36255,0.1854,-0.14508
-0.46027,1.7456,-1.824,9.1986,-0.072388,0.11637,-0.063835
-0.48163,1.6083,-2.3732,8.8064,-0.038179,0.0088575,0.0085521
-0.48233,1.6867,-2.6086,8.6495,0.20311,0.10782,-0.073915
-0.47977,1.6867,-2.3732,8.5514,0.18601,0.084605,-0.059559
-0.46655,2.0006,-2.0986,8.5318,0.14416,0.055589,-0.12828
-0.44327,2.2359,-1.9809,8.2572,0.064141,0.012217,-0.1014
-0.42917,2.0006,-2.0594,8.3945,-0.044288,-0.044899,-0.078496
-0.41522,2.0006,-2.7459,8.6299,-0.13958,-0.099876,-0.06689
-0.39606,1.9613,-2.687,8.8064,-0.18112,-0.14019,-0.07025
-0.37558,2.0202,-2.2751,8.9044,-0.15088,-0.14844,-0.072693
-0.36743,2.4909,-2.1967,8.8456,-0.064752,-0.13256,0.031765
-0.36139,2.8635,-2.5693,8.7083,0.011301,-0.11515,0.03543
-0.36588,2.334,-3.2362,8.9044,0.036346,-0.10782,-0.025351
-0.36215,1.6083,-2.432,8.7279,0.016799,-0.10721,-0.0067195
-0.37268,1.1768,-1.471,9.3752,-0.019548,-0.10324,-0.0012217
-0.3942,1.118,-0.8826,9.4928,-0.061087,-0.085521,0.010385
-0.4201,1.2356,-1.5691,9.0417,-0.12004,-0.057116,0.01741
-0.45868,1.5298,-2.4124,8.7475,-0.18418,-0.048564,0.023518
-0.48843,1.5495,-2.0006,8.4926,-0.064752,-0.039706,-0.048869
-0.52393,1.5102,-1.7456,8.4141,-0.14905,-0.068722,-0.067806
-0.55048,2.1575,-1.3141,8.0218,-0.2529,-0.08827,-0.010079
-0.58984,2.4909,-1.8437,8.2572,-0.32712,-0.10415,0.023824
-0.6239,2.1575,-2.1182,8.9044,-0.33872,-0.11362,0.038485
-0.62952,2.0006,-2.4124,9.1202,-0.28588,-0.10934,0.040317
-0.62238,2.0006,-2.6674,9.0025,-0.17287,-0.079107,0.022907
-0.61118,2.1575,-2.5105,8.9437,-0.04215,-0.021075,-0.014355
-0.57736,1.8633,-1.824,8.9437,-0.037568,0.071471,0.080634
-0.54041,1.6671,-1.6671,9.0417,0.073304,0.080634,-0.081856
-0.49335,1.8044,-2.2751,8.7083,0.097738,0.10201,-0.086132
-0.43607,1.8437,-2.2751,8.5514,0.066279,0.098655,-0.087048
-0.40421,2.1182,-2.1967,8.4926,0.00030543,0.072998,-0.087048
-0.39297,2.2359,-1.9809,7.8649,-0.060781,0.038179,-0.082161
-0.38391,1.216,-2.2948,10.63,-0.10201,-0.0024435,-0.078191
-0.37219,1.9025,-2.0594,11.062,-0.12278,-0.040317,-0.071471
-0.34247,1.7456,-0.84337,10.454,0.27428,0.075747,0.0015272
-0.30298,1.824,-0.72569,8.316,0.27184,0.0281,-0.044593
-0.25998,2.0594,-1.5102,7.1392,0.085827,-0.049786,0.027184
-0.21582,2.0594,-2.8243,7.4531,-0.22816,-0.17685,0.063835
-0.13428,2.3732,-2.8243,8.0807,-0.51465,-0.27214,0.09163
-0.037292,1.5298,-2.2948,9.5125,-0.67195,-0.29138,0.083078
0.057709,1.3337,-1.8044,9.9636,-0.66768,-0.25473,0.059865
0.12552,1.3533,-1.5691,9.8851,-0.5171,-0.19273,0.030849
0.18558,1.7456,-1.1964,9.179,-0.14355,-0.098044,-0.069028
0.21753,1.9221,-1.2553,8.7083,0.075442,0.049786,-0.051007
0.24283,1.6083,-1.824,8.4141,0.19028,0.18631,-0.083078
0.25452,1.9809,-2.6282,8.4141,0.19578,0.24496,-0.051924
0.27872,2.2359,-2.7655,8.6299,0.14111,0.22816,-0.016188
0.297,2.2359,-2.4124,9.179,0.078191,0.16096,-0.018631
0.31744,1.9221,-2.1575,9.2575,0.028405,0.079718,-0.038485
0.31726,1.5495,-2.1182,9.1202,-0.013134,0.0097738,-0.062308
0.33133,1.6475,-2.2555,9.0613,0.49999,0.28039,-0.12889
0.36032,1.4906,-2.1967,8.9437,0.18723,0.28405,-0.17104
0.37515,1.2356,-2.1378,9.1594,-0.33109,0.21594,-0.01069
0.38406,1.2945,-1.9613,9.179,-0.72998,0.011912,0.050702
0.38687,1.6475,-1.8044,8.9044,-0.84941,-0.21136,0.009163
0.38358,1.8437,-1.8829,8.5514,-0.67409,-0.35491,-0.09163
0.37051,1.9221,-1.9809,8.2572,0.10507,-0.39492,-0.096211
0.34213,1.9221,-1.9809,8.4926,0.37415,-0.35033,-0.091324
0.32086,2.0006,-2.1182,8.7083,0.095295,0.07758,-0.047037
0.28836,2.2359,-2.2163,8.8064,0.086437,0.059559,-0.047647
0.26865,2.2359,-2.1575,9.1202,0.03207,0.027184,-0.018631
0.25027,2.0594,-2.7262,9.0417,-0.040317,-0.0042761,-0.013439
0.22989,2.1575,-3.2166,8.7083,-0.096517,-0.02138,-0.018326
0.20297,2.0594,-2.6674,8.7475,-0.11545,-0.022602,-0.032681
0.16901,1.7456,-2.1182,9.0417,-0.081551,0.0015272,-0.040012
0.14114,2.0006,-2.1967,9.0025,-0.0088575,0.03207,-0.041844
0.10614,1.8633,-2.3144,8.6887,0.10873,0.047647,0.11026
0.08139,1.8633,-2.4517,8.3945,0.063835,0.051313,0.135
0.053345,1.9025,-2.2751,8.6299,0.00030543,0.045815,-0.036346
0.039276,1.824,-1.9809,9.0417,-0.047037,0.034514,-0.020464
0.026459,2.0006,-2.0398,8.9044,-0.043371,0.026573,0.0027489
0.019775,1.824,-1.9809,7.9434,0.041539,0.045815,0.030543
0.011078,1.6475,-1.8044,7.8649,0.065973,0.086132,0.05681
0.031158,1.3533,-1.3533,9.6694,0.11057,0.11301,0.083383
0.051666,1.4318,-1.726,10.317,0.17837,0.13103,0.2584
0.044739,2.6086,-2.3732,9.0025,0.11423,0.12675,0.091935
-0.0082092,2.9028,-3.3931,5.276,-0.029322,0.09163,0.15699
-0.054047,0.66685,-4.158,10.003,-0.2923,0.046426,0.18754
-0.087067,0.80415,-2.8243,12.788,-0.38882,0.025045,0.21228
-0.099915,2.0006,-0.8826,9.8066,-0.11851,0.016188,0.23243
-0.13235,1.3533,-1.3533,6.747,0.1463,0.081551,0.2865
-0.14127,1.5298,-2.4517,6.4528,0.19884,0.24312,0.32987
-0.12988,2.2948,-2.6674,7.61,0.1069,0.029322,0.099876
-0.068787,1.7456,-2.9028,9.6301,0.16371,-0.059865,0.089186
0.015656,1.6083,-2.1378,9.787,0.26053,-0.10232,-0.1237
0.07782,1.4906,-1.9809,9.5125,0.30879,-0.13836,-0.089492
0.14319,2.3732,-2.1378,8.3945,0.22969,-0.21014,-0.0054978
0.20303,2.5497,-1.824,7.3158,0.024435,-0.31582,0.079412
0.22888,1.9613,-1.6867,7.9434,-0.22174,-0.42516,0.10965
0.24747,1.7652,-2.0594,8.9437,-0.41508,-0.49816,0.10293
0.25549,2.1771,-2.687,9.3359,-0.48167,-0.51954,-0.016799
0.27448,2.687,-2.9224,8.7475,-0.41844,-0.47586,-0.043677
0.27527,2.4909,-2.6282,8.4729,-0.29444,-0.39401,0.072693
0.30035,1.3925,-2.687,9.6497,-0.17959,-0.30482,0.077274
0.33099,0.43149,-3.7265,9.9636,-0.1127,-0.22327,0.091935
0.37262,0.56879,-3.5304,10.101,-0.1127,-0.14752,0.090103
0.41324,0.74531,-1.824,10.062,-0.16677,-0.086132,0.066584
0.43616,0.66685,-0.49033,9.3752,-0.23213,-0.037263,0.025045
0.43375,1.4318,-0.72569,8.6887,-0.23885,0.013439,-0.033598
0.42978,1.6083,-1.7456,7.9434,-0.16066,0.068722,-0.023824
0.4212,2.3732,-2.1967,8.0611,-0.049786,0.12187,-0.064141
0.42688,2.5497,-2.3732,8.2572,0.066279,0.16249,-0.075747
0.40295,2.8047,-2.589,8.0611,0.1518,0.18631,-0.075136
0.39413,3.0597,-2.9028,7.6884,0.17898,0.18754,-0.071166
0.3974,3.0793,-3.0008,7.9238,0.14172,0.16952,-0.059559
0.37625,2.5497,-2.9224,8.7279,0.065668,0.13653,-0.045204
0.37546,2.2948,-2.7262,9.179,0.016188,0.097738,0.038179
0.36523,1.824,-2.6282,9.0221,0.016188,0.061697,0.061087
0.35715,1.6083,-2.6282,8.5514,0.054978,0.050702,-0.018631
0.34564,1.4906,-2.5105,8.5514,0.086743,0.058338,-0.022297
0.34293,1.7456,-2.0006,8.8456,0.087048,0.065668,-0.016493
0.34424,1.9221,-1.8437,8.8848,0.063835,0.060476,0
0.33777,1.8633,-1.8437,8.9044,0.036346,0.048869,0.012828
0.34573,1.824,-2.0986,8.9437,0.021991,0.048869,0.025351
0.34158,1.7064,-2.2751,9.0221,0.034208,0.032376,-0.05284
0.36139,1.4318,-2.4124,9.1202,0.0042761,0.044593,-0.045204
0.3848,1.5887,-2.432,9.0221,0.00030543,0.054672,-0.011912
0.39337,1.824,-2.4517,8.8064,0.024129,0.066279,-0.0058032
0.41376,2.0006,-2.2948,8.8064,0.014966,0.07422,0.0079412
0.41879,2.2948,-2.3144,8.7083,-0.0030543,0.085521,0.012828
0.42386,2.2751,-2.1575,8.8456,0.032376,0.098349,-0.016799
0.44519,2.2359,-2.4713,8.9044,0.13653,0.13164,-0.043066
0.46909,2.2948,-2.8439,8.8064,0.23396,0.17623,-0.027794
0.49545,2.2751,-2.9812,8.4141,0.10385,0.19028,-0.028405
0.52188,2.1575,-2.7851,8.4141,-0.037568,0.15149,-0.032987
0.53296,1.7064,-2.5301,8.8456,-0.10782,0.092241,-0.030238
0.50809,1.824,-2.4124,8.8652,-0.10018,0.035736,-0.041233
0.48257,1.5495,-2.3732,8.7868,-0.065973,0.00030543,-0.059559
0.44165,1.6475,-2.432,8.7279,0.23793,-0.0036652,-0.065973
0.3877,1.7456,-2.4517,8.5318,0.27794,0,-0.051924
0.34344,1.824,-2.432,8.5514,0.022297,-0.014661,-0.046426
0.29276,1.7456,-2.3732,8.6299,0.054978,-0.035125,-0.07025
0.24701,2.1182,-2.4713,8.5514,0.07086,-0.038179,-0.039401
0.2059,2.079,-2.7851,8.5318,0.050091,-0.026878,-0.037874
0.17938,1.824,-2.3732,9.0613,-0.012523,-0.0281,-0.022602
0.15021,1.7456,-2.1182,9.5125,-0.088881,-0.039095,-0.0015272
0.14011,1.824,-2.3732,9.1006,-0.038485,-0.051007,-0.0015272
0.13153,1.7064,-2.5693,8.8848,-0.0088575,-0.062003,-0.021075
0.12787,1.3533,-2.7459,8.9437,0.092546,0.047953,-0.045815
0.13968,1.7456,-2.6282,8.8064,0.091935,0.047342,-0.029016
0.13171,2.0202,-2.0986,8.8064,0.073609,0.033903,-0.043982
0.14175,1.8633,-2.0006,9.0025,0.045815,0.017715,-0.042761
0.15686,2.2948,-2.6086,8.9044,0.024435,0.0097738,-0.04215
0.15961,2.0202,-3.0401,8.5514,0.020464,0.0058032,-0.045509
0.15298,1.9809,-2.6674,8.4141,0.029627,0.0058032,-0.055283
0.12579,1.9025,-2.1967,8.5514,0.042455,0.014355,-0.058032
0.078857,1.824,-1.9809,8.8064,-0.31093,-0.3149,0.053145
0.022125,1.5102,-1.824,9.2575,-0.15516,-0.17196,0.085216
-0.027649,1.6475,-1.6279,9.1594,0.063225,-0.024129,0.15088
-0.10547,1.5887,-1.7456,8.9044,0.2868,0.13683,0.16371
-0.15741,1.2945,-1.9613,9.0025,0.43738,0.21991,0.13775
-0.19263,1.3337,-2.3144,9.0417,0.53206,0.22144,0.090103
-0.21182,1.7456,-2.4517,8.7279,0.49724,0.22266,0.042455
-0.20239,2.1378,-2.2751,8.6887,0.24709,0.19639,0.015882
-0.18271,2.2948,-2.3732,8.3749,-0.098044,0.10385,-0.030238
-0.16434,2.3732,-2.6086,8.4141,-0.38912,-0.020769,-0.0030543
-0.13696,2.0006,-2.5105,8.4141,-0.55222,-0.12004,0.077885
-0.11697,1.3729,-1.9809,8.6299,-0.5455,-0.15119,0.066279
-0.094177,1.5298,-1.9417,8.4926,-0.43158,-0.14233,0.040317
-0.096741,2.0006,-2.3732,7.9042,-0.27397,-0.12217,0.032987
-0.1001,1.8437,-3.5304,7.9434,-0.10568,-0.0562,0.014355
-0.089661,1.1376,-3.2362,9.5713,0.0097738,0.03146,-0.034514
-0.058319,0.2942,-1.3337,11.846,-0.1066,0.083383,-0.26786
-0.025482,0.98067,-0.86299,11.219,0.034819,0.086132,-0.2642
-0.023956,2.6086,-1.3141,8.4141,0.02474,0.061697,-0.038485
-0.040924,2.5497,-1.3729,6.7666,-0.049175,0.021991,-0.098044
-0.10019,2.334,-1.6279,6.0213,-0.14752,-0.015577,-0.13897
-0.18668,1.6867,-2.2751,9.179,-0.2248,-0.030238,-0.18112
-0.24725,2.1575,-1.8829,10.375,-0.25901,0.0097738,-0.22419
-0.26471,2.3732,-0.86299,10.513,-0.21228,0.092852,-0.25962
-0.27582,2.0202,-1.118,9.1986,-0.10904,0.18906,0.092546
-0.24942,2.2751,-1.8829,8.0218,0.18204,0.18876,0.11698
-0.20331,2.2359,-2.6086,8.2768,0.56322,0.21564,-0.090103
-0.14124,2.1182,-2.6282,8.8652,0.79565,0.20067,-0.014355
-0.056671,1.824,-2.8243,9.434,0.7309,0.070555,0.10354
0.033417,2.1378,-2.687,9.5713,0.40164,-0.14936,0.18448
0.12805,2.6086,-2.7459,8.8652,-0.015882,-0.33781,0.1741
0.21103,2.9224,-2.6086,7.61,-0.3207,-0.39951,0.1127
0.26837,2.6086,-2.6086,8.0022,-0.31124,-0.76938,0.017715
0.32809,2.1771,-2.3732,8.6299,-0.53451,-0.80909,-0.032376
0.36905,1.9613,-2.4124,8.7083,-0.77519,-0.78466,0.1179
0.38739,2.1575,-1.9809,8.5514,-0.94837,-0.76725,0.1576
0.38748,1.8633,-1.4318,7.9042,-1.0027,-0.75259,0.17226
0.34012,1.118,-1.0395,7.7865,-0.88056,-0.70891,0.16952
0.31546,0.27459,-1.3533,9.2183,-0.087659,-0.64599,0.13103
0.28467,0.2942,-1.824,11.395,-0.18295,-0.55558,0.065363
0.27182,0.98067,-2.1967,10.572,-0.002138,-0.41233,-0.0082467
0.23019,1.3533,-1.118,7.3354,0.10904,-0.21869,0.0030543
0.18146,0.60801,-1.0395,7.4727,0.11026,-0.042455,-0.082772
0.13171,0.56879,-2.0398,9.8851,0.048258,0.068111,-0.076664
0.10251,1.0591,-1.9809,9.7478,-0.029322,0.11881,-0.033598
0.066101,0.80415,-1.0395,8.4926,-0.11515,0.12217,-0.0061087
0.059967,0.80415,-0.86299,7.4531,-0.58887,0.10751,0.0048869
0.045929,1.4318,-2.0398,7.7865,-0.25717,0.10171,-0.0015272
0.018799,1.7456,-3.3735,9.7478,-0.061087,0.15944,-0.10996
0.045044,1.9025,-3.0793,11.395,-0.21838,0.17837,-0.012828
0.097992,1.8437,-1.9417,11.062,-0.35583,0.18051,0.01069
0.17624,1.6083,-1.7456,11.199,-0.42913,0.18051,-0.047647
0.2287,1.2749,-0.94144,11.944,-0.39218,0.19303,-0.095906
0.27478,0.60801,-0.72569,11.944,-0.20831,0.21441,-0.12889
0.33374,1.0787,-0.80415,10.062,0.1182,0.23121,-0.14569
0.36276,1.2945,-0.56879,8.7083,0.51954,0.26664,-0.15119
0.34,1.0787,-1.0591,7.5511,0.65668,0.24526,0.081551
0.30008,1.2945,-2.1378,6.3351,0.56291,0.15333,0.08827
0.29346,1.6083,-3.3539,6.139,0.52626,0.025045,0.051313
0.31039,2.7851,-3.0793,6.9235,0.42058,-0.077274,0.069944
0.34518,2.5497,-2.687,7.8061,0.23152,-0.15669,0.042455
0.38837,2.0594,-1.9809,8.3357,0.055589,-0.28558,-0.0079412
0.41199,2.3732,-1.6475,8.2376,0.74128,-0.47647,0.0067195
0.43015,2.6086,-1.4906,8.1199,0.75381,-0.65179,0.060476
0.41443,2.1378,-1.7456,8.2572,-0.32223,0.10843,0.010079
0.41983,1.9221,-2.432,8.7279,-0.31001,0.062919,0.025351
0.41971,1.7456,-2.3144,9.1202,-0.19395,0.062308,-0.061087
0.41025,2.0594,-2.4124,9.434,-0.052534,0.10171,-0.087048
0.38901,1.9613,-2.2751,9.6694,0.057421,0.14569,-0.096211
0.36853,2.0594,-2.7459,9.1202,0.1066,0.16524,-0.079412
0.33823,2.1182,-2.7459,8.7279,0.11026,0.17104,-0.045815
0.29459,2.1575,-2.4124,9.1986,0.096211,0.16554,-0.014661
0.22244,2.0006,-2.1378,9.4732,0.033598,0.069639,0.012523
0.17398,2.2359,-1.9809,9.1202,0.036041,0.048258,0.010385
0.11462,2.0006,-1.9809,9.1202,0.034208,0.015882,-0.013134
0.062683,2.1771,-1.8829,8.7475,0.033903,-0.014355,-0.011301
0.020599,2.0594,-2.0594,9.1202,0.025962,-0.029016,-0.01405
-0.015961,1.5887,-2.5693,9.5125,-0.0012217,-0.043371,-0.0067195
-0.040283,1.6083,-2.6282,9.1986,-0.026878,-0.062308,0.0061087
-0.063873,1.5102,-2.4713,8.7868,-0.032987,-0.07086,0.010079
-0.095001,1.6671,-2.1967,8.5514,-0.030238,-0.06689,-0.065363
-0.11469,1.118,-2.3144,8.4141,-0.037568,-0.063835,-0.069944
-0.14093,1.0395,-2.7262,8.4141,-0.032987,-0.066584,0.0085521
-0.16101,1.5495,-2.5105,8.4141,0.023824,-0.055589,0
-0.2002,1.216,-1.8437,8.4141,0.12523,-0.015272,-0.03146
-0.20987,1.4514,-1.824,8.218,0.20983,0.043066,-0.062614
-0.22394,1.7456,-2.2751,8.218,0.22816,0.086437,-0.072082
-0.23236,1.5298,-1.8829,8.8652,0.16921,0.1014,-0.069028
-0.21857,1.4906,-1.6279,9.0417,-0.0033598,0.097738,-0.031154
-0.19925,1.4906,-2.1182,8.8064,-0.028711,0.097738,-0.039095
-0.17392,1.6867,-2.7851,8.4926,0.026878,0.10843,-0.088881
-0.14774,2.1771,-2.7655,8.6887,0.10232,0.1408,-0.11362
-0.12073,2.0006,-2.2555,9.0417,0.1292,0.17776,-0.11973
-0.081024,1.8044,-1.8044,9.1594,0.071166,0.19609,-0.11118
-0.036255,1.6083,-1.8437,9.5321,-0.054367,0.18112,-0.086437
0.0055542,1.3533,-2.432,9.7282,-0.21197,0.15119,-0.047953
0.032471,1.8044,-2.7655,9.1986,0.64507,0.18265,-0.078802
0.073578,2.0594,-2.5105,8.7083,0.44807,0.1127,-0.12523
0.097229,1.6867,-1.6475,8.4141,0.073609,-0.016799,0.10232
0.1109,1.3337,-1.6475,8.7475,-0.25901,-0.10843,0.057421
0.13174,1.6867,-2.3144,9.0613,-0.43005,-0.1124,0.032987
0.14374,1.7456,-2.0986,9.1594,-0.44104,-0.029932,0.024129
0.13898,1.824,-1.4318,8.8064,-0.35155,0.084605,0.011912
0.13928,1.5102,-1.5298,8.4141,-0.15302,0.14936,-0.013744
0.12225,1.3337,-2.589,9.4928,0.22297,0.22602,-0.12187
0.088043,1.2945,-3.7854,8.6887,0.66157,0.32132,-0.19395
0.055267,0.96105,-3.0401,9.3555,0.97433,0.40684,-0.13164
0.026459,1.0199,-1.0591,10.513,0.98685,0.40775,-0.12553
0.017334,1.4906,-0.52956,8.4337,0.67653,0.23366,-0.045509
0.0013428,0.82376,-1.3533,6.2959,0.19731,-0.047647,0.073915
-0.018982,0.41188,-1.9613,6.2174,-0.2138,-0.32132,0.097738
-0.041351,0.66685,-3.0008,7.9238,-0.33781,-0.4612,-0.0045815
0.036896,1.4318,-2.4517,10.748,0.52046,-0.41508,-0.3427
0.077576,0.17652,-0.52956,12.709,0.65301,-0.24099,-0.32467
0.1113,0.76492,-1.3533,11.69,0.58215,-0.053756,-0.23763
0.12894,2.2359,-3.0793,9.5713,0.44929,0.043982,-0.2584
0.16092,2.6282,-2.9028,8.2768,0.36988,0.015272,-0.24404
0.18237,1.6671,-1.118,9.0417,0.24801,-0.05284,-0.25504
0.18866,1.1768,-1.0395,9.3359,-0.15608,-0.059559,-0.3259
0.16385,2.079,-0.78453,9.179,0.18967,-0.051924,-0.36835
0.15811,2.4517,-1.4122,8.8456,0.068722,-0.081245,-0.046731
0.1655,2.2359,-1.5298,8.6299,0.24404,-0.10873,0
0.1904,2.4517,-0.90221,8.7279,0.36224,-0.092546,-0.33445
0.23282,2.2359,0,8.6495,0.34697,-0.030238,-0.33078
0.2612,1.824,0.098066,8.4141,0.22663,0.036652,-0.27917
0.28638,2.0006,-0.43149,8.0807,0.073609,0.069028,-0.21747
0.30423,1.8633,-1.2553,8.1787,0.067806,0.072693,-0.16707
0.33536,1.5298,-1.4906,8.7083,-0.02138,0.054062,-0.10843
0.3757,1.0787,-1.3729,9.2575,-0.045509,-0.035736,0.071166
0.41531,1.1768,-2.0398,9.6301,-0.058948,-0.042455,0.074831
0.44803,1.6867,-1.9613,9.1986,-0.06353,-0.033598,0.030543
0.4585,1.4318,-1.8437,9.3163,-0.054978,-0.02138,0.038485
0.43613,1.2356,-2.6086,9.1202,-0.033903,-0.012523,0.049175
0.41385,1.2749,-2.687,9.2575,-0.01741,0.00030543,0.053451
0.3757,1.1964,-2.0986,9.8263,-0.01069,0.014966,0.052534
0.35715,1.3925,-1.5887,9.9636,-0.0073304,0.01405,0.057421
0.33041,1.6867,-1.6867,9.3752,-0.015882,0.0024435,-0.01405
0.29498,1.8633,-1.726,8.8064,-0.024435,-0.010079,-0.017715
0.26514,1.9221,-1.6475,8.7868,-0.024435,-0.016799,0.057116
0.22928,1.8633,-1.6671,8.8456,-0.025962,-0.011301,0.037874
0.19702,1.5298,-1.7456,8.6299,-0.042455,0.0018326,0.025045
0.17447,1.4318,-1.824,8.8064,-0.075136,0.012828,0.018631
0.14417,1.6083,-1.8829,8.7868,-0.10079,0.032681,0.013744
0.11673,1.6867,-2.0594,8.8456,-0.10079,0.065668,-0.0015272
0.083466,1.9613,-2.1378,8.8064,-0.078496,0.086437,0.01069
0.049835,1.5495,-1.824,8.8652,-0.049786,0.080634,0.014355
0.0079651,1.5298,-2.0986,8.8456,-0.01405,0.065973,-0.027184
-0.028259,1.3533,-2.2751,8.9437,0.023824,0.055283,-0.029627
-0.065857,1.4318,-2.3732,9.0025,0.04948,0.052229,-0.021686
-0.11975,1.6867,-2.1575,8.6299,0.052229,0.049175,-0.012828
-0.13251,1.8044,-1.9613,8.5318,0.029627,0.044593,-0.0036652
-0.16174,1.3337,-2.0398,8.7083,-0.013439,0.040928,0.0051924
-0.17474,1.4318,-2.0986,9.179,-0.072693,0.033903,0.023824
-0.19101,1.5102,-2.0594,9.1594,-0.14722,0.014355,0.033903
-0.21524,1.6083,-1.7848,9.1202,-0.18906,-0.012828,0.017104
-0.22736,1.5102,-1.6867,9.1986,-0.14447,-0.037874,0.011606
-0.24716,1.4514,-2.0594,8.9437,-0.016493,-0.039095,-0.007025
-0.25726,1.7064,-2.6086,8.9437,0.11851,-0.0076358,-0.027794
-0.26154,1.6083,-2.2948,9.1594,0.17043,0.025962,-0.027794
-0.25082,1.5298,-1.7848,9.3359,0.12065,0.029932,-0.0024435
-0.25177,1.2945,-1.6279,9.1202,0.0018326,0.021686,-0.051313
-0.25037,1.3925,-2.1575,8.8652,0.033598,0.022907,-0.049786
-0.23883,1.5495,-2.5105,8.3357,0.044288,0.023824,-0.073304
-0.23419,1.4318,-2.0594,8.6887,0.040012,0.016493,-0.064752
-0.23801,1.2356,-1.3533,8.8652,0.024129,0.0058032,-0.053451
-0.22897,1.3533,-1.1572,9.1986,-0.0024435,0.00030543,-0.048564
-0.22086,1.5298,-1.5691,9.3359,-0.055894,0.0015272,-0.051924
-0.22165,1.8044,-2.1967,9.0417,-0.034514,0.0048869,-0.054367
-0.2261,1.7064,-2.3732,8.7083,-0.035736,0.0042761,-0.013439
-0.24869,1.824,-2.3144,8.4141,-0.028405,-0.0039706,-0.0030543
-0.27094,1.8633,-2.2751,8.4926,-0.0073304,-0.012523,-0.051618
-0.28827,2.1771,-2.589,8.5514,0.025656,-0.021686,-0.054367
-0.30789,2.1575,-2.687,8.7083,0.058338,-0.026267,-0.054367
-0.30371,2.1378,-2.687,8.7083,0.072388,-0.025045,-0.048869
-0.30331,1.9221,-2.2555,9.0221,-0.026267,-0.013134,-0.038179
-0.27792,2.0006,-2.2751,8.8652,-0.033903,0.002138,-0.02474
-0.24518,1.8437,-2.2948,9.0417,-0.032376,0.01741,0.011301
-0.22647,1.824,-2.4124,8.8064,-0.069944,0.025656,0.020464
-0.19812,1.8437,-2.1967,8.9437,-0.087659,0.0054978,0.0073304
-0.1825,1.5298,-1.9809,9.1202,-0.078496,-0.022297,0.014355
-0.17184,1.5298,-1.8829,9.0221,-0.037874,-0.030238,0.007025
-0.16763,1.6083,-1.9613,8.9437,0.02138,-0.018021,-0.0054978
-0.15875,1.3533,-1.9417,9.1202,0.055283,0.0085521,-0.0079412
-0.16299,1.1768,-2.0006,9.2771,0.013439,0.043982,-0.0018326
-0.16049,1.1768,-2.0986,9.1202,-0.081856,0.064141,-0.055283
-0.16467,1.2945,-1.7456,9.1202,-0.022602,0.079412,-0.069028
-0.19247,1.118,-1.4318,8.7475,0.036652,0.093462,-0.040012
-0.18643,1.118,-1.4318,8.7083,0.067501,0.099266,-0.030238
-0.18753,1.216,-1.6867,8.8064,0.059559,0.087659,-0.031154
-0.18384,1.5298,-2.0986,8.6887,0.031154,0.07086,-0.032987
-0.15805,1.8437,-2.0986,8.7083,-0.0067195,0.054978,-0.039706
-0.15219,2.0594,-1.7456,8.5318,-0.044899,0.034819,-0.045509
-0.12985,2.0006,-1.9809,8.4729,-0.096211,-0.30177,0.046731
-0.10922,1.824,-2.8832,8.8064,-0.15363,-0.40989,0.0012217
-0.065857,1.8044,-2.7262,8.9044,-0.17715,-0.49266,0.032681
-0.035431,1.5298,-2.432,9.2183,-0.14111,-0.54642,0.046731
-0.015045,1.4318,-2.0594,9.2575,-0.06017,-0.53237,0.04948
0.0032349,1.5298,-1.6867,9.3752,0.01741,-0.45937,0.055589
0.0012207,1.5298,-1.5691,9.1986,0.045509,-0.37141,0.061087
-0.0030518,1.2945,-1.6475,9.1202,0.052534,-0.27886,0.069944
-0.012512,1.7064,-1.7456,9.0613,0.046426,-0.17074,0.013439
-0.0289,1.5298,-1.6671,9.179,0.0082467,-0.059559,0.06689
-0.043884,1.5298,-1.471,9.2575,-0.03207,0.033598,-0.038485
-0.058807,1.6671,-1.3141,9.0221,0.012523,0.11057,-0.060476
-0.064575,1.824,-1.216,8.5318,0.13378,0.19884,-0.075442
-0.074646,1.3533,-1.5102,8.7475,0.24557,0.29658,-0.085216
-0.073029,1.6083,-2.0006,9.0417,0.31551,0.38576,-0.073304
-0.069366,1.5298,-2.5301,9.3555,0.30574,0.4496,-0.041539
-0.062073,1.2945,-2.4713,9.3359,0.23732,0.14508,-0.1292
-0.054443,0.90221,-2.1378,9.6301,0.17898,0.14478,-0.14019
-0.043304,0.72569,-2.1575,9.8066,0.14966,0.1631,-0.10018
-0.041931,0.17652,-2.2948,10.219,0.14844,0.17837,-0.098655
-0.057617,0.039227,-2.2751,10.199,0.16952,0.18723,-0.096822
-0.08902,0.39227,-1.7456,9.1202,0.20861,0.20617,-0.1014
-0.15369,0.82376,-1.6867,8.316,0.25412,0.22907,-0.11118
-0.22476,1.7456,-1.118,7.7865,0.29627,0.25412,-0.12217
-0.30875,2.079,-0.80415,7.3942,0.32681,0.27672,-0.050702
-0.4071,2.3928,-0.49033,7.2765,0.32651,0.27642,0.0042761
-0.49619,2.1575,-0.84337,7.6296,0.28619,0.24038,-0.14172
-0.57278,2.0202,-1.118,8.6299,0.23335,0.17226,-0.1295
-0.63068,2.1378,-0.62763,8.5318,0.19364,0.096517,-0.12706
-0.68051,1.7456,-0.62763,9.434,0.16524,0.019548,-0.13103
-0.69583,1.0395,-1.9417,11.395,0.12614,-0.071166,-0.12675
-0.70102,2.079,-1.6475,12.258,0.057727,-0.17562,-0.10201
-0.68286,2.1182,-0.27459,11.14,0.039095,0.12889,0.029016
-0.64206,2.1378,0.21575,8.9633,-0.025962,0.074526,0.040317
-0.57056,1.9809,0.098066,7.4531,-0.090103,0.032376,0.040623
-0.49573,1.824,-1.3337,7.2177,-0.15577,0.007025,0.03146
-0.4299,2.3928,-1.9809,7.7865,-0.20831,-0.01741,0.041233
-0.32065,2.0006,-2.1575,8.9044,-0.20892,-0.050702,0.041539
-0.21927,1.8633,-1.824,9.434,0.23396,-0.069639,0.036041
-0.095459,1.8633,-2.0986,9.1202,0.12767,-0.060476,0.032681
0.019745,1.9613,-2.1967,8.5906,-0.18906,-0.022907,-0.062308
0.097961,1.6867,-1.8437,8.8848,-0.13011,0.049786,-0.086437
0.14749,1.1964,-1.6279,8.8456,-0.061087,0.10996,0.071471
0.15268,0.8826,-1.5691,8.6495,-0.019242,0.10324,0.1069
0.15775,0.80415,-2.1182,9.0613,-0.046731,0.04948,0.1066
0.16669,1.0787,-2.3144,8.9437,-0.13806,-0.0051924,0.07422
0.146,1.0395,-1.6671,9.2183,-0.19792,-0.028405,0.022602
0.13266,0.76492,-0.52956,9.2575,-0.20892,-0.028711,-0.029932
0.10031,0.76492,-0.80415,10.062,0.24893,0.31979,0.14264
0.031372,0.5884,-1.6475,8.6495,0.32132,0.34697,0.068111
-0.036743,-0.45111,-1.8437,11.709,0.32315,0.34086,-0.067806
-0.099243,1.0787,-1.4318,11.533,0.17959,0.27061,0.030238
-0.16724,1.8633,-1.6867,8.1787,0.0039706,0.1689,0.13592
-0.20532,1.5495,-1.1768,6.3547,0.019853,0.16341,0.15608
-0.2543,0.56879,-0.37265,7.3158,0.030543,0.11973,0.14722
-0.289,0.56879,-0.39227,9.4928,-0.08491,-0.039095,0.18876
-0.29837,0.56879,-1.216,10.277,-0.343,-0.24068,0.031154
-0.26846,1.0395,-1.471,9.9047,-0.21564,-0.41142,0.048258
-0.21994,1.2945,-1.5102,9.5125,-0.067195,-0.42302,0.038179
-0.14453,1.6867,-1.5691,8.9633,0.069028,-0.31093,-0.012828
-0.065247,1.7064,-1.4318,8.7475,0.19945,-0.14294,-0.010996
0.010254,1.2945,-1.0591,8.8848,0.2697,0.0024435,0.011912
0.065643,1.3337,-1.5298,8.9437,-0.21808,0.10476,0.030238
0.10785,1.8633,-2.5105,9.3752,-0.35094,0.15119,0.027184
0.12927,2.6086,-3.2166,9.1986,0.43494,0.097738,-0.1014
0.18661,2.7459,-3.3931,9.1986,0.37202,0.17379,-0.095906
0.2319,2.2948,-2.3732,8.9437,0.25565,0.20006,-0.23579
0.24762,2.432,-1.6867,8.2768,0.12492,0.20831,-0.20281
0.24014,1.824,-1.2553,7.7669,-0.0033598,0.21564,-0.16738
0.21771,0.82376,-1.3533,8.316,-0.08491,0.21747,-0.12065
0.194,0.17652,-1.8044,8.9437,-0.073304,0.23305,-0.089492
0.14636,0.25497,-1.1572,9.5713,0.068111,0.25931,-0.088575
0.084442,-0.27459,-0.41188,9.8066,-0.46762,-0.28863,0.21747
0.039093,-0.13729,-0.31381,9.9636,-0.45173,-0.27886,0.15058
-0.048035,-0.35304,-0.94144,9.9636,-0.3598,-0.21686,0.2138
-0.08786,0.039227,-0.96105,9.434,-0.23335,-0.146,0.24862
-0.11603,0.039227,-0.56879,9.434,-0.13073,-0.095295,0.29413
-0.12073,0.56879,-1.1768,9.2575,-0.097433,-0.071777,0.33017
-0.090851,1.2945,-1.3729,8.8652,-0.16829,-0.089492,0.32284
-0.050537,1.0787,-1.3729,9.1006,-0.25229,-0.12767,0.28161
-0.005127,1.5298,-1.5691,9.2575,-0.076053,-0.1014,0.050396
0.04248,1.3729,-2.7655,9.3359,0.10812,-0.025045,0.0054978
0.085785,1.8633,-3.0793,8.9044,0.22846,0.044899,0.12492
0.11691,1.6475,-2.0986,9.179,0.24679,0.070555,0.1408
0.14203,1.5298,-1.4318,9.2575,0.18784,0.062919,0.16371
0.15869,1.5102,-1.6279,8.6299,0.093768,0.039706,0.16799
0.14929,1.6671,-1.9809,8.2768,0.0079412,0.0067195,0.14752
0.11734,1.6083,-2.589,8.5318,-0.028711,-0.012523,0.10476
0.083557,1.7456,-2.6086,9.2575,-0.024129,0.0009163,-0.25076
0.030762,2.0594,-2.7459,9.1202,-0.00030543,0.019548,-0.26053
-0.027863,2.1575,-2.3536,8.7475,0.062003,0.018937,-0.020769
-0.081299,2.1378,-1.4318,8.3357,0.13011,0.020159,-0.053451
-0.13409,1.6671,-0.17652,8.1787,0.16921,0.022907,-0.089492
-0.16595,1.1376,-0.56879,8.1787,0.197,0.014355,-0.11087
-0.181,0.54917,-1.9809,8.6299,0.26909,0.010385,-0.14294
-0.17163,-0.13729,-1.4318,9.5713,0.38454,0.032376,-0.2022
-0.17365,-0.35304,-0.86299,10.591,-0.43646,0.21838,0.051007
-0.15012,-0.35304,-1.1768,10.454,-0.54795,0.17715,0.08094
-0.14444,0.078453,-2.1967,10.434,-0.37629,0.32865,-0.061697
-0.16376,0.098066,-2.0986,10.434,0.073609,0.54825,-0.13958
-0.20767,1.0199,-1.4318,9.8263,0.59834,0.68386,-0.19761
-0.26324,1.1964,-0.52956,8.4141,1.0296,0.73823,-0.16799
-0.32565,1.4318,-0.019613,7.1589,1.0653,0.6353,-0.15455
-0.36484,0.60801,-1.1964,9.7478,0.65301,0.36469,-0.064752
-0.37415,1.5102,-1.824,11.219,0.077274,0.037568,0.02138
-0.36441,2.1378,-0.78453,9.5321,-0.43524,-0.2532,0.048564
-0.34021,2.2163,1.6279,7.5511,-0.748,-0.44379,0.073304
-0.29813,1.4318,2.589,7.61,-0.86682,-0.50946,0.03543
-0.25482,0.41188,0,8.0022,-0.86865,-0.4893,0.0012217
-0.1936,2.0006,-2.5693,5.9036,-0.76022,-0.42241,-0.026573
-0.066498,0.74531,-3.2558,9.2575,-0.57391,-0.343,-0.029016
0.10095,0.54917,-0.56879,12.729,-0.39676,-0.28619,-0.010996
0.24277,0.35304,0.86299,13.2,-0.41753,-0.21136,-0.25137
0.32693,0.74531,0.52956,10.689,-0.6521,-0.11423,-0.19731
0.37842,1.6083,-0.68647,8.7475,-0.86651,-0.061392,0.047953
0.4407,1.3533,-1.4318,8.7083,-0.87293,-0.10232,0.030238
0.50534,1.5298,-1.9809,8.9437,-0.64568,-0.20678,-0.034208
0.55292,1.4514,-0.94144,8.8848,-0.30513,-0.26573,-0.11851
0.60352,0.98067,-0.11768,8.5514,-0.28466,-0.22663,-0.21166
0.60052,0.60801,-1.118,8.8652,-0.27794,-0.11515,-0.26298
0.60489,1.4906,-2.0006,8.3945,0.20342,0.0082467,-0.082161
0.59653,1.3925,-1.6671,8.4337,0.045815,0.086437,-0.08094
0.56952,1.6083,-1.0199,9.3163,-0.077885,0.089797,-0.13011
0.53363,1.7652,-0.72569,9.434,-0.13408,0.05681,-0.08094
0.47232,1.4318,-0.86299,9.787,-0.12278,0.014966,-0.093157
0.41095,0.98067,-1.2553,9.689,-0.060476,-0.013134,-0.11026
0.34213,1.1376,-1.3533,9.5321,0.010079,-0.020159,-0.10996
0.27298,0.74531,-1.1768,9.0417,0.20892,-0.040928,-0.10079
0.19131,0.49033,-0.56879,8.4926,0.27978,-0.0018326,-0.0097738
0.11502,0.27459,-0.56879,9.2575,0.19884,0.072998,0.041539
0.062408,0.078453,-0.86299,10.12,0.036346,0.10049,0.045509
0.015564,0.5884,-1.7456,9.6497,-0.24404,0.013744,0.079412
-0.028198,1.0395,-1.6475,8.3945,-0.49847,-0.12034,0.092241
-0.054962,0.86299,-0.80415,7.4923,-0.64324,-0.22846,0.043982
-0.10599,-0.05884,0.35304,7.2961,-0.69547,-0.30879,-0.0094684
-0.1622,-0.37265,0.25497,9.1202,-0.63866,-0.40836,-0.049786
-0.20697,0.35304,-0.86299,9.3163,-0.41875,-0.50549,-0.042455
-0.25635,1.0395,-1.5102,9.8459,-0.26298,-0.52901,-0.058338
-0.28003,1.3337,-1.5691,9.3359,-0.12156,-0.49908,0.026878
-0.28799,0.72569,-1.9417,10.219,-0.039706,-0.45601,0.062614
-0.27203,0.35304,-2.2751,11.474,-0.0281,-0.44196,0.11148
-0.25308,0.39227,-1.8044,11.474,-0.020464,-0.45968,0.1124
-0.23734,0.66685,-1.118,10.454,0.036346,-0.45509,0.083689
-0.21899,1.118,0.21575,8.2572,0.13073,-0.38607,0.023213
-0.21585,0.25497,0.56879,8.7475,0.20036,-0.25015,-0.061697
-0.20071,-1.0199,-1.1768,8.8848,0.21319,-0.062614,-0.0039706
-0.16583,-0.5884,-2.0594,9.4928,0.13714,0.085827,-0.020159
-0.078491,-0.078453,-2.0398,9.8851,0.021075,0.15027,0.015882
0.0961,1.4514,-2.2948,9.2575,-0.017715,0.16432,-0.0058032
0.28976,1.6083,-1.6475,9.5321,0.078802,0.18418,-0.050396
0.48608,1.8044,-1.1768,9.689,0.27061,0.22327,-0.085827
0.62943,2.7851,-1.2553,8.9044,0.46029,0.26786,-0.095906
0.72177,2.8635,-0.86299,7.8061,-0.14752,0.31551,0.058643
0.75357,2.0006,-0.098066,7.4531,-0.093157,0.29841,0.035125
0.73645,1.3533,-0.54917,7.3746,0.059254,0.25229,0.072693
0.69992,1.1964,-1.4906,8.4141,0.18815,0.18631,0.081856
0.6619,0.80415,-1.5298,9.9832,0.29719,0.099876,0.075442
0.61435,0.35304,-0.5884,10.513,0.3711,-0.0058032,0.044288
0.53851,0.41188,-0.49033,9.0221,0.37354,-0.087659,0.089186
0.44473,0.72569,-1.4906,8.0022,0.33048,-0.075747,0.10812
0.34152,1.3533,-2.1378,8.2768,-0.43158,-0.44043,-0.054367
0.25137,1.2945,-1.1964,9.2575,-0.41875,-0.52046,-0.16005
0.16196,0.92183,-0.17652,10.689,-0.67195,-0.51404,-0.075442
0.072174,0.64724,-0.5884,11.376,-0.95356,-0.43035,-0.026878
-0.0073547,2.6086,-0.39227,10.199,-1.0947,-0.44104,0.048258
-0.074585,1.9221,1.0003,9.9439,-1.1005,-0.49052,0.087354
-0.12347,0.17652,2.079,9.2183,-0.37263,-0.52534,0.065057
-0.19116,-2.2555,0.52956,9.9047,-0.47586,-0.5623,0.043066
-0.20578,-1.7652,-1.8829,10.317,-0.34697,-0.52504,-0.052229
-0.19376,0.49033,-1.9613,8.0807,-0.17074,-0.41722,-0.016188
-0.12497,0.80415,0.23536,6.9823,-0.13286,-0.28405,-0.22785
0.00073242,0.45111,-0.39227,4.3345,-0.18234,-0.18937,-0.2306
0.10019,0.72569,-2.6086,10.944,-0.25412,-0.15791,-0.17623
0.19818,2.0594,-3.2166,11.533,-0.32315,-0.16952,-0.12706
0.27756,2.4517,-2.2555,8.2768,-0.9221,-0.19792,-0.11057
0.2843,1.9221,-1.8829,9.1202,-0.62858,-0.24068,-0.09163
0.2363,1.2945,-1.118,14.082,-0.38332,-0.30024,0.14172
0.15189,1.216,1.6671,12.572,-0.30604,-0.34239,0.1069
0.094299,0.56879,2.589,9.787,-0.16005,-0.30879,0.01405
0.018341,0.098066,0.70608,8.6887,0.0033598,-0.19609,0.032376
0.0057068,0.45111,-0.23536,8.2768,0.083383,-0.0048869,0.034208
0.0039673,-0.039227,-1.3533,7.8061,0.030238,0.20556,0.06689
0.049835,0.27459,-2.687,7.61,-0.38087,0.31246,0.12675
0.13846,1.1964,-2.942,7.4531,-0.40103,0.28314,0.15333
0.25842,1.9613,-1.6475,8.6299,0.023518,0.05284,-0.10629
0.38086,1.6671,-0.39227,9.4928,0.10904,0.036957,-0.087048
0.48257,2.0006,0.13729,9.5321,0.40928,0.05681,0.28894
0.55371,2.1575,0.039227,9.9439,0.71716,0.13439,0.076969
0.57645,2.3732,-1.0591,9.1006,0.66462,0.13256,-0.086437
0.5643,2.589,-1.3533,7.6296,0.44196,-0.011912,-0.18784
0.51227,1.4906,-0.56879,7.5903,0.13408,-0.18479,-0.20769
0.44781,0.19613,-0.54917,9.179,-0.14233,-0.31154,-0.12828
0.38174,0.45111,-1.6475,10.16,0.0024435,0.080329,-0.11668
0.33893,1.0591,-2.7851,10.277,-0.040012,0.085216,-0.082161
0.33102,1.5298,-2.2751,9.5321,-0.0956,0.081856,-0.090408
0.30951,0.98067,-1.4318,9.6694,-0.1182,0.067195,-0.09896
0.28809,1.1964,-0.8826,9.2575,-0.087354,0.046426,-0.10293
0.2424,0.90221,-1.216,8.8652,-0.016493,0.043677,-0.1127
0.2067,1.1964,-1.8829,8.8848,0.058338,0.060781,-0.12584
0.17496,1.3533,-1.6475,8.8064,0.098044,0.074526,-0.13073
0.14719,1.1964,-1.216,9.179,0.10293,0.073304,0.042761
0.1297,1.0591,-1.3533,9.179,0.076969,0.061087,0.032987
0.10147,1.0591,-1.6279,9.1006,0.022602,0.047953,-0.049175
0.066742,1.2945,-1.2553,9.3752,-0.055894,0.026573,-0.018937
0.05011,1.0395,-1.0199,9.3359,-0.14203,-0.0061087,0.017715
-0.010834,1.1964,-1.1572,9.2575,-0.20617,-0.053756,0.045204
-0.052429,1.5298,-1.6475,9.0417,-0.23763,-0.089186,0.059559
-0.10172,1.7652,-1.7456,8.9437,-0.2303,-0.094379,0.058338
-0.1243,1.6475,-1.6867,8.8652,0.00061087,-0.051924,0.064141
-0.14618,1.6279,-1.824,9.0417,-0.090713,-0.090713,0.045204
-0.17627,1.6867,-1.824,9.0417,-0.15424,-0.11881,0.087659
-0.19656,2.0594,-1.7848,9.0221,-0.17287,-0.13256,0.092241
-0.21442,2.0594,-1.5102,8.8456,-0.14233,-0.11729,0.089186
-0.22943,2.0202,-1.3729,8.9437,-0.086743,-0.080023,0.077885
-0.24063,2.0594,-1.5102,9.0417,-0.03207,-0.03207,0.071166
-0.23264,1.6867,-1.7456,9.0221,0.0015272,0.00030543,0.071166
-0.2262,1.7456,-1.8437,9.1202,-0.019853,0.0018326,-0.065057
-0.20755,1.9809,-1.5102,9.0613,-0.052229,0.0030543,-0.07422
-0.21268,1.4318,-1.118,9.2575,-0.075136,0.020159,0.007025
-0.22543,1.2749,-0.74531,9.3752,-0.075136,0.033292,-0.03146
-0.23196,0.90221,-0.62763,9.3359,-0.051618,0.041844,-0.055894
-0.22696,0.86299,-1.3533,9.1202,-0.019853,0.055589,-0.069639
-0.21725,1.0395,-1.471,8.8652,0.002138,0.068417,-0.072082
-0.20612,1.0787,-1.6475,8.9044,0.012217,0.076969,-0.068111
-0.18698,1.1964,-1.726,8.9437,0.11545,0.018631,0.0097738
-0.15924,1.0787,-1.8044,9.0417,0.1124,0.046731,0.0082467
-0.11783,1.0395,-2.0398,8.9633,0.068417,0.047647,-0.0036652
-0.074127,1.2945,-1.824,8.9437,-0.013134,0.037874,0.0024435
-0.031311,1.4906,-1.726,9.0613,-0.11332,0.023213,0.0033598
-0.00048828,1.4318,-1.4906,9.2575,-0.19303,0.011912,0.0015272
0.024597,1.1376,-1.4318,9.5125,0.0009163,0.0009163,0.0045815
0.048981,1.5102,-1.5102,9.4732,0.079718,-0.021991,0.0073304
0.078857,1.216,-1.6475,9.3163,0.029016,0.013744,0.012523
0.08606,1.4318,-1.8044,8.9437,0.056505,0.011301,-0.0009163
0.10089,1.1964,-1.8044,9.0025,0.036041,-0.0054978,0.053145
0.10696,1.3925,-1.5691,9.0417,0.0042761,-0.020769,0.034208
0.098999,1.5887,-1.6279,9.2183,-0.028405,-0.02474,0.02474
0.096466,1.3729,-1.7456,9.179,-0.065057,-0.019242,0.023518
0.11517,1.3533,-1.5298,9.1202,-0.10599,-0.021075,0.023213
0.12299,1.4318,-1.7456,8.8652,-0.13439,-0.037263,0.023213
0.13507,1.3729,-1.824,8.7475,-0.12401,-0.037263,0.0048869
0.15268,1.4318,-1.824,8.6299,-0.08827,-0.002138,0.016493
0.15695,1.2749,-1.824,8.9633,-0.041233,0.045509,-0.0064141
0.18661,1.1768,-1.9809,9.179,0.0015272,0.077885,-0.0030543
0.2327,1.2356,-1.7456,9.2771,0.022602,0.080023,0.0067195
0.23566,1.2945,-1.5298,9.1202,0.017104,0.059865,0.013134
0.23407,1.5102,-1.5102,8.7083,-0.002138,0.03879,0.010079
0.23801,1.6083,-1.9809,8.4926,-0.019242,0.021075,0.0027489
0.24258,1.6867,-2.6282,8.7083,-0.10079,-0.002138,0.010079
0.25784,1.6867,-2.2948,9.1986,-0.15485,-0.029932,-0.00030543
0.25397,1.6083,-1.6671,9.3752,-0.21105,-0.045815,0.030238
0.22379,1.7456,-1.2553,9.2575,-0.24251,-0.056505,0.03879
0.20209,1.8633,-1.3337,9.0221,-0.20953,-0.062614,0.043066
0.16714,1.6083,-1.7456,8.8652,-0.1124,-0.068111,0.036652
0.14334,1.6083,-2.2948,9.0613,-0.034514,-0.06353,0.024435
0.13522,1.6083,-2.0006,9.1594,-0.059254,-0.027489,0.01741
0.12112,1.3729,-1.5298,9.0613,0.062308,0.068417,-0.087048
0.11688,1.5495,-1.824,8.7279,0.045509,0.0562,-0.084605
0.10751,1.3729,-2.0006,8.8064,-0.0082467,0.065973,-0.079718
0.10095,1.1964,-2.2751,9.3359,-0.07025,0.10965,-0.06689
0.085175,1.3533,-2.3144,9.2575,-0.14661,0.11148,-0.061392
0.067139,1.2945,-1.4318,9.1202,-0.19487,0.066584,-0.064141
0.046417,1.0395,-0.74531,9.2771,-0.15424,0.034208,-0.06353
0.013733,1.0199,-1.118,9.5713,-0.054672,0.03543,-0.065057
-0.012634,1.3337,-2.0006,9.179,-0.11057,0.12645,-0.080329
-0.016266,1.2945,-2.2751,8.7475,-0.12339,0.11301,-0.064752
-0.01532,1.6083,-2.0986,8.7279,-0.12553,0.091324,-0.043066
-0.00054932,1.7064,-1.6671,8.7083,-0.099266,0.085216,-0.063835
0.0027771,1.9221,-1.5691,8.5514,-0.048869,0.099266,-0.095906
0.0099182,1.824,-1.7456,8.5514,0.010996,0.12278,-0.11729
0.028198,1.6867,-1.6279,8.6887,0.0562,0.13378,-0.11454
0.017883,1.5102,-1.6475,9.0025,0.069944,0.1237,-0.099266
0.019196,1.8044,-2.1967,8.9437,-0.0012217,0.093157,-0.034514
0.030243,1.6867,-2.2751,9.179,-0.090713,0.04215,-0.033903
0.02829,1.7456,-1.8829,9.179,-0.18357,-0.014661,-0.051313
0.044678,1.6475,-1.4122,9.434,-0.24801,-0.065973,-0.041844
0.060913,1.4318,-1.3533,9.434,-0.26328,-0.10293,-0.033292
0.067688,1.5495,-1.7456,9.434,-0.2248,-0.11942,-0.024129
0.096283,1.5298,-2.1575,9.1202,-0.15058,-0.11179,-0.021991
0.10892,1.6867,-2.2948,8.9437,-0.082772,-0.083689,-0.029932
0.10843,1.5298,-2.0594,8.7083,-0.055589,-0.045204,-0.081856
0.11475,1.6671,-1.8829,8.4926,-0.0562,-0.014355,-0.082467
0.10684,1.5298,-1.7848,8.5318,-0.046426,0.0009163,-0.041844
0.08197,1.5298,-1.7456,9.1006,0.00030543,0.010996,-0.057421
0.068207,1.824,-1.6475,9.2771,0.060781,0.040317,-0.072693
0.066956,1.6867,-1.5102,8.8456,0.096517,0.067806,-0.080329
0.071228,1.3729,-1.6475,8.1003,0.10018,0.078496,-0.079718
0.088226,1.6671,-2.2948,8.4926,0.069944,0.075442,-0.081551
0.13947,2.2948,-2.6282,9.179,0.30024,0.096822,0.031154
0.19861,2.0006,-1.8829,9.0417,0.10232,0.05284,0.058032
0.2666,1.824,-1.0199,8.4337,-0.16952,-0.035736,0.031154
0.33649,1.4906,-1.1768,9.0613,-0.41111,-0.13011,0.020769
0.39545,1.3925,-2.2948,9.9439,-0.54489,-0.19975,0.0067195
0.42825,1.216,-2.432,9.5321,-0.54153,-0.22266,0.0015272
0.37418,0.98067,-2.687,5.2368,-0.40775,-0.18723,0.00030543
0.29099,-1.8437,-2.3732,10.591,-0.20861,-0.1011,0.0067195
0.20978,-1.6279,-1.7848,14.337,-0.069944,-0.0073304,-0.18845
0.14816,1.5102,-1.2356,10.062,-0.15485,0.047647,-0.20647
0.094086,0.39227,-1.4318,7.2373,-0.21166,0.051618,0.063225
0.044128,0.70608,-1.3141,6.747,-0.21502,0.027184,0.038179
0.014252,1.0199,-1.6475,7.61,-0.18815,0.0051924,-0.017104
-0.013336,0.90221,-1.3337,9.0613,-0.13347,0.0036652,-0.084299
0.058319,0.72569,-1.1768,9.5125,-0.055589,0.011606,-0.13317
0.1124,1.3533,-1.5102,9.2575,-0.017104,0.01741,-0.16035
0.16974,1.824,-2.3732,8.9437,0.11606,0.027794,-0.064446
0.23337,2.1575,-2.9812,8.4926,0.1631,0.043677,-0.03146
0.28833,2.079,-2.7262,8.7083,0.17013,0.054978,-0.20708
0.34061,1.824,-2.2948,8.8064,0.1463,0.060476,-0.19242
0.37704,1.8044,-2.2751,8.4926,0.10171,0.058948,-0.17013
0.40936,2.0594,-2.3732,8.8456,0.02138,0.05284,-0.14997
0.41565,2.0594,-2.589,9.1594,-0.054062,0.045509,-0.12523
0.43491,1.9809,-2.2555,9.3359,0.036346,0.029932,-0.094684
0.40454,1.7456,-1.5691,9.2575,-0.1909,-0.024435,0.067195
0.39929,1.6867,-0.90221,9.0025,-0.13164,-0.10415,0.044593
0.35446,1.5102,-0.8826,9.179,-0.034208,-0.1518,-0.0076358
0.33044,1.0591,-1.5298,9.4732,0.036652,-0.14936,-0.009163
0.30756,1.3925,-2.3144,9.0417,0.046731,-0.11912,-0.012217
0.30603,1.6671,-2.1575,8.8652,-0.007025,-0.09163,0.014966
0.30954,1.824,-1.8829,8.7083,-0.080023,-0.074831,0.055283
0.30252,1.6867,-1.9613,8.2572,-0.16646,-0.062003,0.073609
0.29926,1.7456,-2.4517,8.1003,-0.1066,-0.021686,-0.088881
0.30902,1.3533,-2.8243,8.8848,-0.068417,0.010996,-0.083994
0.31601,1.3533,-2.4124,9.3359,-0.034208,0.043982,-0.055589
0.32474,1.3533,-2.1182,9.5713,-0.014355,0.078496,-0.071166
0.32489,1.2356,-1.9809,9.4928,-0.010079,0.093768,-0.076053
0.30688,1.3533,-2.1967,8.7475,-0.0064141,0.099876,-0.084299
0.29153,1.3337,-2.3144,8.6299,-0.00061087,0.10812,-0.09896
0.27579,1.216,-1.7456,9.179,-0.017715,0.10446,-0.10018
0.25192,1.2945,-1.471,9.3752,-0.10934,0.087659,-0.036652
0.22556,1.2945,-1.5102,9.4732,-0.15944,0.063835,-0.036041
0.19424,1.6083,-1.8829,8.9437,-0.13958,0.055894,-0.081856
0.17831,1.9221,-2.0006,8.7083,-0.028405,0.065973,-0.086132
0.1608,1.8633,-2.0006,8.7083,0.11484,0.10385,-0.095295
0.15338,1.7456,-1.8829,8.8064,0.20586,0.15608,-0.0956
0.1507,1.4318,-1.824,8.8652,0.20892,0.18479,-0.082772
0.16116,1.5298,-2.1967,8.8456,0.14203,0.17318,-0.058032
0.15857,1.6083,-2.4124,8.6887,0.043066,0.1295,-0.043677
0.17877,1.6867,-2.432,8.5514,-0.040928,0.086132,-0.021991
0.16803,1.9221,-2.1967,8.4141,-0.07758,0.047953,-0.052229
0.16711,1.6867,-2.0006,8.4337,-0.055589,0.022297,-0.065668
0.17017,1.6083,-1.726,8.6887,-0.0064141,0.013744,-0.069028
0.15768,1.7456,-1.7456,8.7279,0.029016,0.011606,-0.065973
0.15338,1.9221,-2.3732,8.5514,0.050702,0.015882,-0.055894
0.15326,1.7064,-2.8243,8.4141,0.059254,0.024129,-0.049175
0.14667,1.7456,-2.2948,9.0417,-0.018937,-0.061087,-0.0085521
0.13022,1.3533,-1.824,9.3359,0.011912,-0.036346,-0.033598
0.1265,1.4906,-1.8829,9.3752,0.014966,-0.012523,0.072388
0.1131,1.118,-1.9809,9.3359,-0.012523,-0.0027489,0.083078
0.10373,1.4906,-2.0594,9.434,-0.062308,-0.020159,0.084299
0.082336,1.5887,-1.9417,9.2575,-0.11118,-0.045815,0.069639
0.066193,1.3337,-1.5887,9.1594,-0.13531,-0.062614,0.044899
0.04657,1.1964,-1.5298,9.1986,-0.13164,-0.054672,0.019853
0.015564,1.4318,-1.9417,8.8652,0.065363,-0.0027489,0.022297
0.0061035,1.4318,-2.3732,8.8456,0.10568,-0.022602,-0.0015272
0.0224,1.4318,-2.334,8.8848,0.1011,-0.025656,0.0012217
0.027802,1.4906,-1.9809,8.9437,0.041844,-0.029322,0.010079
0.036072,1.6083,-1.9613,8.6299,-0.040928,-0.047342,0.029627
0.035248,1.6867,-1.9809,8.4926,-0.097738,-0.079107,0.041539
0.031738,1.3925,-1.8829,8.8652,-0.013744,-0.10507,0.043982
0.032959,1.8044,-1.9809,8.7083,0.012217,-0.095295,0.037263
0.027496,1.4906,-2.0986,8.6887,-0.016799,-0.046426,-0.021991
0.033844,1.6083,-2.432,8.9437,0.13683,0.029627,0.017104
0.029053,1.6475,-2.2751,9.1202,0.30055,0.10599,-0.030543
0.040802,1.6475,-1.824,9.0417,0.41203,0.17837,-0.04948
0.039276,1.2945,-1.7456,9.0221,0.44746,0.22724,-0.055589
0.030945,1.4318,-2.0594,9.0221,0.38454,0.24374,-0.049786
0.030396,1.3925,-2.0986,9.1202,-0.11729,0.23366,-0.04612
0.027588,1.3925,-2.0006,9.1986,-0.099876,0.19823,-0.043371
0.01355,1.6671,-1.824,9.1986,0.077274,0.11087,0.02138
-0.0010376,1.824,-1.9417,9.0417,0.069333,0.098655,0.019242
-0.027863,1.824,-1.9613,8.9437,0.042761,0.085521,0.016493
-0.048553,1.2945,-2.0006,9.0221,0.010385,0.078191,0.023824
-0.045685,1.2945,-2.1182,9.1202,-0.012828,0.074526,0.023518
-0.033417,1.2356,-1.9809,9.1986,-0.0051924,0.072388,0.025351
-0.026276,1.216,-1.5102,9.0417,0.036957,0.079107,0.025962
-0.02774,1.4318,-1.5102,8.7475,0.067806,0.078191,0.02138
-0.028015,1.7064,-2.2751,8.0611,0.059254,0.058032,-0.0012217
-0.033783,2.2359,-2.589,7.5511,0.033598,0.029322,0
-0.020721,1.9221,-2.2751,8.6887,0.0045815,0.0088575,0.0033598
-0.0095825,1.5298,-1.7456,9.8066,-0.016188,0.007025,-0.019242
-0.023224,1.3729,-1.0591,9.8066,-0.020769,0.017715,-0.033598
-0.049622,1.3533,-0.74531,8.218,-0.01405,0.033598,-0.036652
-0.098358,1.1964,-1.6867,7.5903,-0.012828,0.036652,-0.027184
-0.15384,1.118,-3.9815,8.9633,-0.014966,0.019242,-0.0082467
-0.2269,0.60801,-4.0403,11.846,0.044899,-0.13683,0.1686
-0.28781,1.118,-2.0398,12.553,0.27,-0.084299,0.14172
-0.33206,1.8633,-0.21575,9.7478,0.44838,-0.022907,-0.1237
-0.35944,1.1964,-0.23536,7.2373,0.4499,-0.007025,-0.059254
-0.38553,1.118,-1.4318,6.3547,0.26848,-0.061697,0.087965
-0.38797,1.6867,-2.6086,7.3746,-0.0076358,-0.17043,0.19609
-0.35529,1.4906,-2.4713,8.6495,-0.25473,-0.2642,0.20922
-0.29953,1.2356,-2.1575,9.1594,-0.41478,-0.29596,0.17501
-0.22638,1.1768,-1.5691,9.3752,-0.4383,-0.26603,-0.10476
-0.16779,1.0787,-1.471,9.5321,-0.30452,-0.18448,-0.12004
-0.11087,1.4906,-1.6279,9.1202,-0.055283,-0.060476,0.054978
-0.07132,1.2945,-1.2749,8.8064,0.23579,0.088881,-0.019242
-0.049591,1.3729,-1.4318,8.8064,0.42822,0.20678,-0.053451
-0.049835,1.3729,-1.824,8.8064,0.4554,0.26603,-0.034208
-0.063324,1.8633,-2.8832,8.5514,0.34361,0.28283,-0.014661
-0.055664,2.2751,-3.0989,8.5514,0.20311,0.28833,-0.054367
-0.047607,2.0594,-2.432,8.9633,-0.15944,0.11973,-0.18418
-0.02356,1.3729,-1.5102,10.042,-0.080634,0.18021,-0.16249
0.0023804,0.96105,-1.1572,10.454,0.025656,0.25045,-0.19212
0.012573,0.72569,-1.3533,9.9047,0.16035,0.31307,-0.20617
0.023102,1.0591,-1.0591,9.4928,0.29658,0.34972,-0.21747
0.025177,0.56879,-1.0199,9.1986,0.39584,0.35308,-0.2193
0.034241,0.96105,-2.2948,9.3163,0.43127,0.32193,-0.21441
0.048767,1.1768,-3.3735,8.8652,0.40745,0.24251,-0.20678
0.10226,1.0395,-1.8829,9.5125,0.33903,0.12981,-0.0281
0.1539,0.41188,-0.54917,9.9832,0.36072,0.035736,-0.091935
0.1846,1.4514,-0.54917,9.0417,0.40164,0.0024435,-0.16188
0.18002,1.6867,-2.0986,7.61,0.38026,0.015882,-0.13378
