-0.11725,2.0202,-3.3146,8.4141,0.18448,0.1179,0.053756
-0.11093,2.1575,-3.3539,8.2768,0.1127,0.099266,0.043982
-0.086823,2.1575,-3.1381,8.8652,0.034514,0.082161,0.074526
-0.067932,2.0594,-3.3539,9.1202,-0.039095,0.061087,0.076969
-0.058655,2.334,-3.5304,9.0221,-0.098349,0.040928,0.075747
-0.040375,2.6086,-3.0597,8.7279,-0.13867,0.026878,0.078496
-0.030945,2.1378,-2.9028,8.4926,-0.15974,0.016188,0.072388
0.0091858,2.3732,-3.1577,7.8649,-0.15852,0.00030543,0.061087
0.074127,2.4517,-3.7069,7.5315,-0.12401,-0.013439,-0.029627
0.16486,2.2948,-4.9229,7.61,-0.062919,-0.015882,-0.037874
0.27811,2.6478,-5.5506,7.0608,0.0045815,-0.0067195,0.03207
0.35968,2.8635,-5.1387,6.8254,0.058338,0.011912,0.019242
0.5022,2.432,-4.5111,6.8254,0.093157,0.028405,0.0036652
0.59045,2.334,-4.0796,6.9235,0.11545,0.040317,-0.009163
0.6655,2.2948,-3.8638,7.0608,0.12828,0.050091,-0.018326
0.73471,2.4713,-3.5696,7.3354,0.1347,0.056505,-0.023518
0.7688,2.2948,-3.6873,7.5511,0.13775,0.055894,-0.0012217
0.7991,2.2163,-3.7265,7.61,0.13103,0.05284,0.0064141
0.8009,2.3732,-3.7658,7.5511,0.12034,0.047037,-0.039095
0.80621,2.334,-3.9815,7.6884,0.11118,0.041539,-0.037263
0.79639,2.6086,-4.4914,7.8453,0.10171,0.034514,-0.035125
0.77695,2.9028,-4.7856,7.9434,0.093768,0.029627,-0.027184
0.75513,3.0793,-4.7856,7.9238,0.085216,0.027794,-0.015272
0.72717,3.0793,-4.6484,7.6884,0.06353,0.018937,-0.0054978
0.6929,2.6086,-4.3149,7.5511,0.22633,0.096211,0.058948
0.64044,2.334,-4.0796,7.61,0.28344,0.12278,0.066279
0.56662,2.1771,-4.0207,7.6884,0.30665,0.13989,-0.028711
0.49585,2.0594,-4.0403,7.6884,0.31093,0.14844,-0.026573
0.405,2.1575,-4.3149,7.9042,0.30818,0.15424,-0.022907
0.3093,2.1182,-4.0207,7.9238,0.30268,0.15669,-0.012828
0.21832,1.9025,-3.8834,8.0807,0.28344,0.15027,0.012217
0.12079,2.1575,-3.7658,8.0022,0.24557,0.135,0.04215
0.035736,2.432,-3.7658,8.0022,-0.029627,0.0088575,0.0058032
-0.055237,2.2751,-4.3542,8.0022,-0.034514,0.0048869,0.01069
-0.1315,2.6086,-4.1972,7.6296,-0.030849,0.0024435,0
-0.19727,2.4713,-4.3542,7.4923,-0.0085521,0.0045815,-0.0058032
-0.26587,2.687,-4.4914,7.3158,0.02138,0.011301,-0.0027489
-0.33017,2.7655,-4.3149,7.5315,0.043677,0.01741,-0.0012217
-0.38345,2.687,-4.0207,7.61,0.056505,0.025656,-0.00061087
-0.43268,2.4713,-4.0207,7.9238,0.047342,0.029322,0.0012217
-0.48599,2.3732,-3.9815,7.8061,0.023824,0.02474,0.0024435
-0.5289,2.589,-3.9815,7.7865,-0.0012217,0.018631,0.0012217
-0.58508,2.2751,-4.0796,7.6884,-0.019853,0.010079,0.0073304
-0.62314,2.4909,-4.3149,7.61,-0.030238,0.0018326,0.0024435
-0.65842,2.4909,-4.2561,7.6884,-0.033292,-0.0012217,0.0036652
-0.69788,2.5301,-4.3542,7.6492,-0.027489,-0.0015272,0.0058032
-0.71497,2.4909,-4.158,7.7669,-0.017715,-0.0009163,0.0051924
-0.74118,2.5497,-4.158,7.6884,-0.0076358,0.0009163,0.0024435
-0.75751,2.432,-4.3345,7.8061,-0.079107,-0.020464,-0.0067195
-0.76639,2.4909,-4.3345,7.6296,-0.060781,-0.0082467,0.0009163
-0.77505,2.4909,-4.158,7.5511,-0.047647,-0.0024435,-0.0085521
-0.76974,2.5497,-4.158,7.6296,-0.040928,0,-0.0036652
-0.76334,2.6282,-4.3934,7.6884,-0.037874,0.0030543,-0.0039706
-0.76816,2.687,-4.2953,7.6884,-0.041844,0.0027489,-0.0094684
-0.77097,2.589,-4.2561,7.6884,-0.048564,-0.0015272,-0.010996
-0.76056,2.5301,-4.3149,7.6492,-0.053145,-0.0073304,-0.009163
-0.76044,2.4909,-4.0796,7.6492,-0.059559,-0.011606,-0.0073304
-0.75772,2.5301,-4.0403,7.6884,-0.054367,-0.018326,-0.00061087
-0.74033,2.3732,-4.0796,7.708,-0.036041,-0.014966,0.0039706
-0.72626,2.5497,-4.2561,7.6884,-0.014355,-0.0033598,0.0012217
-0.7049,2.6086,-4.1972,7.7473,0.0051924,0.012828,0
-0.68149,2.4909,-4.2561,7.6884,0.0088575,0.016493,0.0030543
-0.65469,2.6282,-4.1972,7.61,0.0012217,0.017104,0.0076358
-0.62418,2.432,-4.158,7.5903,-0.01405,0.018631,0.002138
-0.58679,2.3732,-4.2365,7.6296,1.2523,0.20189,0.038179
-0.53189,2.4909,-4.1972,7.708,1.1161,0.34453,0.06689
-0.47903,2.6086,-4.0796,7.7473,0.86224,0.42944,-0.073304
-0.4368,2.5301,-4.0992,7.7865,0.55314,0.41783,-0.049786
-0.41949,2.2359,-4.1972,7.8061,0.2364,0.33445,-0.021075
-0.37497,2.6086,-4.3934,7.5903,-0.047037,0.21472,0.00030543
-0.36746,2.589,-4.1384,7.61,0.98502,0.098349,0.013439
-0.34619,2.2751,-4.1776,7.7865,1.2113,0.0054978,0.023213
-0.32516,2.5497,-4.1384,7.6884,-0.5229,-0.064141,0.033598
-0.29913,2.6086,-4.0207,7.7865,-0.39401,-0.11881,0.026267
-0.29822,2.6086,-4.0207,7.7865,-0.68111,-0.17196,0.10476
-0.27435,2.5497,-4.0796,7.6492,-0.92424,-0.2419,0.14416
-0.24664,2.2948,-4.158,7.7865,-1.0858,-0.30177,0.16432
-0.22559,2.4517,-4.0796,7.6492,-1.1261,-0.30299,0.14936
-0.20428,2.4713,-4.0992,7.6884,-1.0269,-0.23549,0.10049
-0.18228,2.589,-4.0403,7.7865,-0.80451,-0.12675,0.052534
-0.16788,2.4517,-4.0796,7.7865,0.025351,0.040012,0.0012217
-0.15005,2.4517,-4.1776,7.708,0.016188,0.035125,0.0045815
-0.14697,2.6086,-4.158,7.6296,0.0097738,0.028711,-0.0073304
-0.13513,2.5497,-4.0403,7.6492,0.0036652,0.019548,-0.0054978
-0.13113,2.2948,-4.0207,7.7473,-0.0054978,0.012828,-0.0051924
-0.12674,2.3732,-4.158,7.8649,-0.0094684,0.011301,0.002138
-0.16568,2.4517,-4.8053,7.4531,-0.002138,0.013744,0.00030543
-0.29736,2.9616,-5.5898,7.0608,0.0097738,0.019548,-0.0042761
-0.5231,3.1185,-4.9622,7.5511,0.018021,0.023824,-0.068722
-0.79785,2.2359,-2.9812,8.5514,0.0094684,0.027489,-0.08491
-0.9975,1.8437,-1.8829,8.7475,0.015272,0.029627,0.0058032
-0.99997,1.9221,-1.824,8.4141,0.097738,0.026573,0.0051924
-0.99997,1.8633,-1.9809,8.3357,0.3146,0.0067195,0.0048869
-0.99997,1.8633,-2.687,8.3945,0.65027,-0.027489,0.0018326
-0.99997,2.0006,-4.2365,8.1003,0.018937,-0.02138,-0.011912
-0.99997,2.687,-5.5113,7.4531,0.020769,0.065668,-0.03879
-0.99997,2.8635,-5.4133,7.3942,-0.9838,1.0232,-1.164
-0.99997,2.687,-5.1975,7.3158,-1.0275,0.98777,-1.0892
-0.99997,2.3928,-3.7265,8.2572,-1.1142,0.92699,-1.6881
-0.99997,1.9613,-3.3146,8.316,-1.2355,0.83353,-1.591
-0.99997,2.0202,-3.7854,8.316,-1.3644,0.71044,-1.4832
-0.9498,2.2359,-4.3345,7.9434,-1.4804,0.56505,-1.3793
-0.80014,2.6086,-4.3934,7.7669,-1.551,0.41722,-1.2911
-0.66846,2.687,-4.3345,7.7669,-1.5663,0.28069,-1.2269
-0.53827,2.9224,-4.6091,7.6296,0.92057,0.49541,-1.2113
-0.42612,2.432,-5.5898,7.6296,-0.022297,0.16585,-1.2474
-0.29755,2.687,-6.4528,7.2177,-0.6857,-0.088881,-0.43585
-0.12036,2.8635,-5.4525,7.0019,-1.0757,-0.16218,-0.6524
0.064026,2.6282,-3.8638,7.5315,-1.2602,-0.18265,-0.79596
0.24866,2.2948,-3.3146,8.8064,-1.2193,-0.10568,-0.89095
0.39813,2.8635,-3.4519,8.4337,-1.018,0.047342,-1.0259
0.56226,3.8834,-4.8837,7.4923,-0.71868,0.23488,-1.15
0.73422,4.3345,-5.8252,6.6685,-0.24221,0.41722,-1.7352
0.91455,4.8837,-6.0409,6.1978,-0.12492,0.56505,-1.792
1,4.5111,-5.276,6.3351,-0.15333,0.66523,-1.2947
1,4.2169,-4.3149,6.6685,-0.30482,0.7083,-1.346
1,4.0011,-3.7658,6.9235,-0.52779,0.70891,-1.4041
1,3.8638,-3.6285,6.8254,-0.76083,0.69272,-1.4887
1,3.903,-3.8246,6.6685,-0.95936,0.67134,-1.584
1,4.2757,-3.8638,6.492,-1.0965,0.66584,-1.6655
1,4.0403,-3.8638,6.6685,-1.1613,0.69058,-1.8033
1,3.8442,-3.55,7.1196,-1.1625,0.74739,-1.7596
1,3.55,-3.0793,7.7473,-1.1102,0.82284,-1.8357
1,3.55,-2.432,8.0807,-1.0308,0.8998,-1.8637
1,3.4323,-2.1575,8.6887,-0.95723,0.97066,-1.8775
1,3.4127,-2.432,9.179,-0.91813,1.0339,-1.8836
1,3.2558,-3.2166,9.3555,-0.92149,1.0657,-1.8702
1,3.0597,-3.8638,9.8066,-0.95142,1.0544,-1.8381
1,2.942,-4.4718,9.179,-2.7449,-0.3375,-0.10507
1,3.0793,-4.7856,8.4337,-2.6997,-0.32162,-0.062003
1,2.8635,-5.0406,7.7865,-2.5461,-0.23824,-0.42211
1,2.9028,-5.1975,7.5511,-2.2932,-0.15821,-0.44838
1,2.6282,-5.1779,7.3158,-1.9722,-0.090713,-0.36072
1,2.8635,-5.1975,6.9039,-1.6558,-0.049175,-0.23732
1,2.8635,-5.2368,6.5312,-1.3986,-0.050396,-0.17287
1,2.7851,-5.0995,6.492,-1.2407,-0.10385,-0.14722
1,3.0989,-5.1191,6.2174,-1.1442,-0.17959,0.053756
1,3.55,-4.8249,5.9821,-0.99235,-0.25015,0.067806
1,3.6285,-4.8249,6.1193,-0.70463,-0.29413,-0.049175
1,3.6873,-4.8249,5.5506,-0.30879,-0.26725,-0.057421
1,3.8638,-5.884,4.7072,0.13561,-0.16554,-0.067806
1,4.7856,-6.6685,4.5111,0.56749,-0.0036652,-0.053756
1,5.374,-7.0019,5.0798,0.92149,0.20433,-0.007025
1,5.0602,-6.5508,5.2956,1.1988,0.40775,0.035125
1,4.4914,-6.2959,5.9036,1.4783,0.5568,0.37049
1,4.9622,-6.4332,5.9036,1.5379,0.64202,0.47312
1,5.4329,-7.1785,4.5503,1.748,0.6463,0.10079
0.96936,6.0997,-7.4923,3.4127,2.0974,0.57024,0.15485
0.88486,5.9036,-6.4528,2.8243,2.532,0.51465,0.20189
0.77975,5.1191,-5.0995,3.0401,2.9279,0.60934,0.20586
0.66251,3.8638,-4.9426,3.7854,1.3961,0.80023,0.19853
0.52454,3.5892,-6.492,3.5304,1.4759,0.99815,0.2587
0.39517,4.1776,-6.9039,3.5304,3.1047,1.1432,0.42394
0.27835,3.8834,-5.9232,4.413,3.0268,1.1958,0.47556
0.14899,3.0793,-5.1779,5.3544,2.9688,1.1811,0.53573
-0.0021057,2.5497,-5.1975,5.1191,2.9294,1.1777,0.54367
-0.19534,2.2359,-5.2956,5.2368,2.941,1.2297,0.48961
-0.40625,1.8044,-4.5111,5.0406,2.9606,1.3033,0.41203
-0.63287,1.0395,-4.2561,6.8058,3.1395,1.4096,0.36499
-0.8728,0.35304,-4.5503,8.1199,3.1676,1.5275,0.37141
-0.99997,-0.21575,-4.4718,9.3359,-0.59987,-0.69272,0.23427
-0.99997,-0.39227,-4.9426,10.003,-0.42516,-0.48747,0.18265
-0.99997,-0.21575,-4.0011,10.062,-0.2926,-0.27611,0.37171
-0.99997,-0.05884,-2.6282,9.9439,-0.21289,-0.079107,0.40287
-0.99997,0.098066,-2.1967,9.6694,-0.12004,0.096822,0.41783
-0.99997,0.98067,-2.7851,9.0613,0.030543,0.27855,0.41478
-0.99997,2.432,-3.5108,8.316,0.20281,0.48869,0.38179
-0.99997,2.5301,-3.6873,8.6887,0.37996,0.69089,0.31185
-0.99997,2.6086,-3.7658,9.2575,0.68722,0.86163,-0.047037
-0.99997,2.5497,-3.4519,9.3163,0.8097,1.0082,-0.024129
-0.99997,2.5497,-3.2362,8.4926,0.93065,1.0989,0.14722
-0.99997,2.8635,-3.3931,7.0608,1.1011,1.1435,0.10934
-0.99997,3.1774,-3.3931,5.8055,1.306,1.1912,0.057116
-0.99997,3.2362,-3.7658,5.276,1.4832,1.2532,-0.01069
-0.99997,3.3146,-3.8638,4.6484,1.5708,1.2978,-0.062919
-0.99997,3.3931,-4.158,4.1972,1.533,1.3091,-0.072082
-0.99997,3.9619,-4.6484,4.1384,1.3803,1.2779,-0.19853
-0.99997,3.9423,-5.1975,4.5111,1.1539,1.2007,-0.18387
-0.99997,3.4912,-6.2174,4.413,0.92485,1.0919,-0.027794
-0.99997,3.4127,-6.8647,4.7856,0.76816,0.98807,-0.05681
-0.99997,3.3146,-6.7666,5.276,0.71807,0.93768,-0.10507
-0.99997,3.6285,-6.747,5.7467,0.76083,0.98044,-0.16982
-0.99997,3.8638,-6.5901,6.2959,0.82711,1.0846,-0.22571
-0.99997,3.55,-5.6094,7.0019,0.84666,1.1756,-0.23243
-0.99997,2.8635,-4.3345,7.6296,-2.3647,-1.6157,0.22541
-0.99997,2.7851,-3.7265,7.9238,-2.2813,-1.6564,0.31154
-0.99997,3.0989,-3.9815,7.5511,-1.9844,-1.5446,-0.11942
-0.99997,3.4127,-4.3345,7.2373,-1.7685,-1.4331,-0.13806
-0.99997,2.9616,-4.3542,7.3158,-1.6298,-1.3647,-0.0054978
-0.99997,3.1774,-4.0207,7.4531,-1.4423,-1.2614,0.13531
-0.99997,3.2558,-3.6677,7.6492,-1.1652,-1.1035,0.15424
-0.99997,2.942,-3.3539,8.0611,-0.85124,-0.905,0.15516
-0.99997,2.6478,-3.5108,8.8064,-0.45021,-0.84544,-0.06017
-0.99997,1.8437,-3.2362,9.179,-0.59346,-0.73304,-0.077274
-0.99402,1.5495,-2.687,9.179,-0.70769,-0.70738,0.14325
-0.94019,1.216,-2.2555,9.0025,-0.82589,-0.71746,0.24587
-0.87906,0.90221,-2.4713,9.1202,-0.95051,-0.69242,0.22694
-0.79962,0.96105,-2.9028,9.1986,-1.0085,-0.63102,0.13928
-0.69519,0.80415,-3.0793,9.3163,-0.5901,-0.55405,0.039095
-0.57336,0.56879,-2.3732,9.6694,-0.40867,-0.47647,-0.036346
-0.42865,-0.13729,-1.8829,9.8066,-0.34636,-0.41386,-0.16066
-0.29727,0.098066,-2.0594,8.8456,0.088575,-0.32101,-0.11209
-0.17456,0.11768,-2.5105,8.1787,0.55405,-0.17837,-0.13256
-0.070526,-0.039227,-2.5301,8.1787,0.9728,0.012828,-0.19426
0.022644,-0.21575,-2.7459,8.6299,1.2532,0.22235,-0.23488
0.060364,-0.13729,-3.2558,8.2768,1.3311,0.4218,-0.26176
-0.0024719,-0.019613,-2.687,8.7083,-0.91111,0.58857,-0.2587
-0.17603,-0.27459,-1.1768,9.9636,-0.68081,0.68906,-0.21747
-0.45074,-1.9613,0.76492,13.965,0.45235,0.71349,0.032987
-0.76395,-1.6475,-1.3141,11.062,0.10232,0.66279,-0.013439
-0.9855,0.45111,-1.9417,8.7868,-0.23213,0.56719,-0.085827
-0.99997,0.56879,-1.9809,7.3158,-0.56444,0.45357,-0.082161
-0.99997,0.82376,-2.5105,7.1589,-0.80146,0.30177,-0.065973
-0.98764,1.0395,-3.1381,8.4141,-0.84269,0.083078,0.0054978
-0.85391,0.92183,-2.8243,8.6299,1.1753,-0.17532,0.085827
-0.69449,1.0199,-3.1381,7.4727,0.84483,-0.35155,0.092546
-0.4985,1.7652,-3.5304,7.0608,1.2462,0.76908,-0.17959
-0.28201,2.1575,-3.6873,7.4531,1.3039,0.79077,-0.019548
-0.093353,1.8437,-2.9028,8.1787,1.109,0.77916,-0.26909
0.029114,1.216,-1.4318,9.1594,0.40806,0.51618,-0.23946
-0.015228,0.54917,0.23536,9.5713,-0.38912,-0.05681,-0.18326
-0.11411,0.13729,0.98067,8.6299,-0.86193,-0.60353,-0.10721
-0.22293,-0.50995,-0.23536,9.3752,-0.97402,-0.88178,-0.13225
-0.29449,-0.05884,-2.9028,10.12,-0.83902,-0.93493,-0.22633
-0.28543,0.92183,-3.9227,9.5713,0.24679,0.19303,-0.11606
-0.18707,1.0199,-3.55,9.5125,0.26634,0.21777,-0.091019
-0.051178,0.74531,-2.1378,9.3359,0.24984,0.21594,-0.10415
0.07486,0.76492,-1.726,8.8064,0.20678,0.219,-0.12339
0.1886,1.0395,-2.1967,8.5906,0.14325,0.24557,-0.14172
0.28397,1.0395,-2.6674,8.4729,0.040928,0.25229,-0.14386
0.34146,1.3533,-2.432,8.0807,-0.094684,0.19761,-0.13897
0.36377,1.1964,-1.7456,8.1787,-0.21564,0.10415,-0.1347
0.3504,0.60801,-1.118,8.5318,-0.27458,0.013439,-0.019853
0.32947,0.43149,-1.4318,9.3163,-0.25137,-0.042761,-0.026573
0.29019,0.27459,-1.6475,9.5909,-0.1741,-0.064752,-0.086437
0.27762,0.35304,-1.6867,9.5713,-0.09163,-0.07422,-0.083383
0.24472,0.43149,-1.8044,9.0025,-0.036652,-0.079107,-0.068111
0.22021,0.56879,-1.8044,8.316,-0.015577,-0.086743,-0.051924
0.1875,0.86299,-2.7459,8.4337,-0.049175,-0.10934,-0.037874
0.19125,0.8826,-3.5108,8.6887,-0.15577,-0.12462,-0.02474
0.2283,0.98067,-3.3735,9.0417,-0.31398,0.0054978,0.18784
0.25308,0.76492,-3.0008,8.9437,-0.41783,-0.078802,0.17287
0.2717,0.49033,-2.6086,8.8652,-0.43891,-0.14997,0.2697
0.26044,0.74531,-2.6086,8.5318,-0.38271,-0.18173,0.24404
0.24152,0.8826,-2.432,8.8456,-0.27275,-0.17257,0.22174
0.20035,0.54917,-2.1575,8.8456,-0.13317,-0.13134,0.20647
0.13736,0.66685,-2.0594,9.0025,0.0085521,-0.08491,0.197
0.055725,0.43149,-1.824,9.1202,0.10721,-0.040623,0.18906
-0.047607,0.49033,-1.216,8.8064,0.097738,-0.018021,-0.10354
-0.12335,0.27459,-1.0199,9.2575,0.021075,-0.022297,-0.098655
-0.19345,0.11768,-1.6475,9.3555,-0.050396,-0.032376,0.13256
-0.21017,0.45111,-2.3732,9.2575,-0.083689,-0.032376,0.076053
-0.18335,0.41188,-2.4517,9.6497,-0.07025,-0.013134,0.013134
-0.10626,0.41188,-1.9417,9.8066,-0.014661,0.03146,-0.038179
0.0036926,0.60801,-1.6867,9.2575,0.078496,0.08827,-0.07758
0.14377,0.80415,-1.9809,8.1787,0.18234,0.14416,-0.1014
0.30713,0.70608,-2.4517,8.218,-0.12004,0.012828,0.017104
0.47687,0.56879,-2.589,8.8652,-0.063225,0.01741,0.01405
0.66095,0.56879,-2.4713,9.179,-0.013439,0.03879,-0.002138
0.83209,0.43149,-2.2948,9.4732,0.031765,0.066279,0.0012217
0.96533,0.66685,-2.0594,9.2575,0.059559,0.082467,0.0042761
1,0.49033,-1.5102,8.9437,0.077274,0.089797,0.0061087
1,0.27459,-1.118,8.6299,-0.18815,0.089492,0.0094684
1,0.13729,-1.5102,8.7279,-0.1689,0.079718,0.016188
0.95587,0.74531,-2.1182,8.7083,-0.02138,0.062308,-0.075747
0.88864,0.56879,-2.1967,8.4926,-0.073609,0.025962,-0.09163
0.79236,0.45111,-1.7848,8.8456,-0.12187,0.0094684,0.030543
0.67966,0.33343,-1.5691,9.0417,-0.14844,-0.0024435,0.025045
0.5419,0.11768,-1.8437,9.3163,-0.16066,-0.032376,0.023824
0.42694,0.2942,-1.9809,9.3163,-0.13408,-0.04215,0.021075
0.3381,0.2942,-2.5105,9.2183,-0.077885,-0.030238,-0.014966
0.25415,0.66685,-2.7459,9.0025,-0.0033598,-0.01069,-0.053756
0.23257,0.54917,-2.432,8.8456,0.098349,0.027489,-0.08094
0.22595,0.74531,-1.6671,8.9437,0.2248,0.086743,-0.076969
0.24561,0.41188,-1.3337,9.3359,0.32651,0.14691,-0.10293
0.27875,0.17652,-1.3533,9.4732,0.34117,0.1689,-0.090713
0.31302,0.66685,-1.824,9.2575,0.25931,0.13225,-0.062308
0.33258,0.8826,-1.8829,9.0025,0.12523,0.055589,-0.046426
0.37292,0.76492,-1.5691,9.0025,-0.013439,-0.025045,-0.054978
0.3999,0.56879,-1.471,8.6299,-0.097433,-0.073609,-0.070555
0.42358,0.66685,-1.471,8.7083,-0.061087,-0.082161,0.0054978
0.44473,0.72569,-1.8437,8.6299,-0.0281,-0.065057,0.00030543
0.46402,0.5884,-2.1967,8.7868,-0.041233,-0.036041,-0.064752
0.46249,0.66685,-2.1575,8.8652,-0.086437,-0.0085521,-0.051924
0.46548,0.39227,-2.0594,9.0417,-0.13714,0.0039706,-0.023518
0.44409,0.41188,-1.9025,9.1594,-0.1741,0.010079,0.0045815
0.4545,0.41188,-1.9809,9.1594,-0.12248,0.014355,0.01405
0.43845,0.54917,-1.9809,9.1202,-0.10782,0.013439,0.012828
0.43741,0.56879,-2.0594,9.0613,-0.047037,-0.00061087,-0.0073304
0.43161,0.49033,-2.2751,9.3163,-0.052534,0.0061087,-0.0061087
0.42432,0.70608,-1.8437,9.0417,0.023824,0.012217,-0.053756
0.40289,0.60801,-1.9809,8.9437,0.0085521,0.012217,-0.050702
0.3772,0.66685,-1.9613,9.0025,-0.011301,0.0076358,-0.044899
0.33673,0.74531,-2.1378,8.8652,-0.029627,-0.002138,-0.040623
0.28757,0.60801,-1.9025,8.9044,-0.039401,-0.0088575,-0.035736
0.23657,0.35304,-1.7456,9.0417,-0.043371,-0.014661,-0.031154
0.19986,0.49033,-1.5495,9.0221,-0.025351,0.038179,-0.0064141
0.15686,0.66685,-1.5691,9.0025,-0.018937,0.047647,-0.0064141
0.13351,0.54917,-1.7456,8.7475,-0.034819,0.04215,-0.0048869
0.11554,0.66685,-1.824,8.9044,-0.063225,0.032376,-0.007025
0.10297,0.56879,-1.6867,9.0417,-0.097433,0.021686,-0.011912
0.090027,0.45111,-1.9417,8.9437,-0.12553,0.0039706,-0.01405
0.085419,0.5884,-2.0006,8.9044,-0.14111,-0.015882,-0.0085521
0.10263,0.45111,-1.9025,9.0417,-0.146,-0.025045,-0.0054978
0.10245,0.49033,-1.824,9.1202,-0.13011,-0.02474,-0.0073304
0.11343,0.39227,-1.824,8.9437,-0.10996,-0.019853,-0.0048869
0.11469,0.41188,-1.8829,9.0025,-0.078496,-0.019242,-0.0061087
0.12207,0.56879,-1.9809,9.0025,-0.043066,-0.016493,-0.0085521
0.13708,0.56879,-2.1967,8.8652,-0.012523,-0.0097738,-0.010996
0.16528,0.45111,-2.1182,9.0417,0.0067195,-0.0033598,-0.011912
0.20251,0.49033,-1.9809,8.9044,0.018326,0.0027489,-0.013134
0.23001,0.54917,-1.9417,8.9437,0.015577,0.0051924,-0.010385
0.25766,0.60801,-2.2555,8.8652,0.0058032,-0.0073304,-0.054062
0.29071,0.8826,-2.432,8.9437,0.01741,-0.023213,-0.058643
0.32956,0.74531,-2.0594,8.9437,0.04215,-0.01741,-0.019242
0.37531,0.56879,-1.9417,9.0025,0.067806,0.0058032,-0.03879
0.40323,0.5884,-2.0006,9.1202,0.073609,0.030849,-0.043371
0.42325,0.76492,-2.0594,8.9633,0.073609,0.032987,-0.039095
0.45105,0.76492,-1.7456,9.0221,0.066584,0.021991,-0.03543
0.46313,0.49033,-1.6671,9.0417,0.055589,0.013744,-0.043677
0.47736,0.72569,-1.824,8.9437,0.009163,0.034208,0.0027489
0.5054,0.41188,-1.824,9.0417,0.022602,0.046426,0.0036652
0.52869,0.72569,-1.8437,9.0417,0.018631,0.044899,0.014355
0.55328,0.60801,-1.8044,8.9044,0.00030543,0.035125,0.015577
0.55392,0.45111,-1.8437,8.9437,-0.025656,0.019548,0.017715
0.5708,0.49033,-1.9417,8.8064,-0.051313,0.0073304,0.013439
0.57227,0.72569,-2.0398,8.8848,-0.07025,0.0042761,0.0064141
0.56006,0.66685,-2.0594,8.9437,-0.073609,0.010079,0.00030543
0.54633,0.41188,-1.9417,9.0417,-0.017104,0.013744,0.0015272
0.54099,0.43149,-1.6867,9.0025,0.0048869,0.017104,-0.0039706
0.50763,0.49033,-1.6867,9.1202,0.015577,0.024435,0
0.49686,0.49033,-1.9025,8.8456,0.014966,0.032376,-0.0009163
0.4834,0.72569,-2.1575,8.8652,0.0024435,0.036346,0.00030543
0.45358,0.66685,-2.1575,8.8652,-0.02138,0.035736,0.0027489
0.42337,0.70608,-2.0006,9.0417,-0.059559,0.027489,0.0036652
0.39182,0.54917,-1.9809,8.9437,-0.040317,0.012828,0.0042761
0.36728,0.74531,-1.8829,9.1202,-0.078496,0.00061087,-0.019548
0.34781,0.66685,-1.9417,8.9437,-0.09163,-0.0033598,-0.023824
0.33347,0.70608,-2.0594,8.9437,-0.082467,-0.0045815,-0.0045815
0.32309,0.41188,-2.0006,9.0221,-0.045815,-0.009163,-0.0054978
0.29218,0.70608,-1.9417,9.0025,-0.0027489,-0.0073304,-0.0067195
0.29007,0.45111,-1.824,9.1202,0.015577,0.012217,-0.019242
0.28806,0.60801,-1.9613,9.1006,-0.045815,0.033903,-0.035736
0.27933,0.56879,-2.1182,9.179,-0.062003,0.03879,-0.030543
0.2861,0.70608,-2.0594,9.0613,-0.096517,0.023824,-0.13897
0.27637,0.54917,-2.0594,8.9437,-0.071777,-0.0097738,-0.14355
0.27603,0.27459,-2.0006,9.1202,-0.0045815,-0.020159,-0.042455
0.29578,0.56879,-2.3732,9.1202,0.098349,-0.013744,-0.074831
0.28723,0.35304,-2.7459,8.8456,0.24862,-0.027184,-0.09896
0.2775,0.35304,-2.7851,8.7083,0.39981,-0.04948,-0.11057
0.24625,0.25497,-2.7851,9.0613,-0.013439,-0.07758,-0.12278
0.20096,0.45111,-2.7851,9.434,-0.066584,-0.099571,-0.13286
0.14639,0.039227,-2.2948,9.7282,-0.28405,0.018021,-0.15882
0.088196,-0.05884,-1.9809,9.3163,-0.055283,0.11881,-0.17929
0.0087891,0.11768,-1.7848,9.0025,-0.025962,0.281,0.23824
-0.13107,0.56879,-2.0594,8.8064,-0.20556,0.24007,0.28161
-0.33734,1.3337,-1.6867,8.4926,-0.3262,0.021991,0.27336
-0.60608,2.0202,-0.64724,7.0019,-0.38668,-0.20128,0.11942
-0.90005,1.4906,0.82376,7.4531,-0.33506,-0.37354,-0.027489
-0.99997,0.098066,0.72569,10.513,-0.19761,-0.40561,-0.09163
-0.99997,0.98067,0.31381,11.729,-0.076664,-0.32865,-0.15516
-0.99997,2.0594,0.62763,10.689,-0.072082,-0.21869,-0.146
-0.99997,1.7456,1.1376,9.5713,-0.19242,-0.16952,-0.10904
-0.99997,1.5495,0.68647,8.0611,-0.32895,-0.2135,-0.032987
-0.99997,1.4906,-1.471,8.6887,-0.40348,-0.24923,-0.027489
-0.99997,1.7456,-1.9417,8.8652,-0.4163,-0.25412,-0.090408
-0.99997,1.4318,-1.6475,9.434,-0.39095,-0.23946,-0.12553
-0.99997,1.2945,-1.5102,9.3752,-0.37141,-0.20372,-0.13592
-0.99997,0.74531,-2.0594,9.6301,-0.37171,-0.17746,-0.062003
-0.99997,0.35304,-2.2751,7.7669,-0.39492,-0.16249,-0.036957
-0.99997,-0.84337,-2.1967,9.4928,-0.4383,-0.15699,-0.13073
-0.99997,-2.0986,-2.6282,11.317,-0.48197,-0.15577,-0.11576
-0.99997,-0.37265,-2.7851,10.827,-0.4948,-0.15119,-0.098044
-0.99997,1.0787,-1.5102,8.3945,-0.47189,-0.14875,-0.088575
-0.99997,0.27459,-0.43149,7.8453,-0.41753,-0.13256,-0.086743
-0.99997,0.098066,-1.0003,8.2572,-0.33872,-0.10263,-0.081856
-0.99997,0.54917,-1.726,8.8064,-0.89431,-0.39401,0.20006
-0.99997,0.96105,-1.9613,9.3555,-0.39828,-0.21258,0.18234
-0.99997,0.90221,-1.824,9.2183,0.053145,0.017104,0.060781
-0.99997,1.2749,-1.6475,8.8848,0.26053,0.17318,0.12492
-0.99734,1.3533,-1.5691,8.2572,0.15913,0.21594,0.27458
-0.88211,1.6083,-1.7848,8.3945,-0.11668,0.18143,0.32009
-0.71967,1.5298,-2.0986,8.4141,-0.40439,0.10324,0.28039
-0.57611,1.5495,-2.0986,8.5318,-0.54672,0.020769,0.25381
-0.44046,1.4318,-2.3732,8.4729,-0.092852,0.054062,0.013439
-0.30945,1.5887,-2.5105,8.6887,-0.1179,0.035125,-0.00030543
-0.18631,1.5495,-2.6086,9.0221,-0.14172,0.021991,-0.057421
-0.056366,1.5298,-2.5105,9.2771,-0.1628,0.019548,-0.057421
0.020294,1.3925,-2.0594,9.434,-0.17868,0.024435,-0.059559
0.065216,1.118,-1.9809,9.2771,-0.21136,0.036957,-0.054062
0.083771,1.1964,-2.1967,9.2183,-0.096211,0.03879,-0.035736
0.075806,1.216,-2.1967,9.179,-0.080329,0.019548,-0.0048869
0.059174,1.1376,-2.0594,9.0417,-0.18967,0.0042761,0.10354
0.032166,0.70608,-1.8829,8.9437,-0.12187,0.019548,0.10507
0.0073547,0.60801,-1.8829,9.179,-0.048258,0.057116,-0.013744
0.0031433,0.80415,-2.0594,9.0417,0.079412,0.09499,-0.007025
0.0043335,1.0395,-2.3732,8.9437,0.30055,0.12095,0.026878
0.021027,1.0395,-2.4517,8.8064,0.65576,0.11484,0.065363
0.036194,0.98067,-2.432,8.8064,-0.23885,0.10996,0.097433
0.054535,1.216,-2.432,8.4141,-0.23579,0.16218,0.10782
0.078796,1.3925,-2.432,8.3749,-0.14355,-0.059865,-0.025045
0.10663,1.3925,-2.6086,8.4337,-0.18479,-0.079718,-0.037874
0.15125,1.3925,-2.7262,8.6887,-0.20311,-0.086437,0.016799
0.1774,1.1376,-2.7851,8.9044,-0.22022,-0.083383,0.0079412
0.20331,0.96105,-2.7459,9.0025,-0.24801,-0.081856,0.0018326
0.2403,0.90221,-2.4124,8.7083,-0.27367,-0.087965,-0.0045815
0.26694,1.0591,-2.1575,8.1199,-0.28008,-0.084605,-0.010079
0.29565,1.1964,-1.8829,8.1591,-0.26848,-0.065057,-0.014355
0.31625,1.2945,-2.2751,8.4926,-0.25076,-0.040012,-0.082161
0.32721,1.5102,-2.6674,8.5318,-0.23396,-0.0079412,-0.069944
0.35654,1.5298,-2.589,8.6299,-0.21258,0.015272,-0.044899
0.38504,1.0395,-2.8243,9.1202,-0.197,0.026573,-0.044899
0.39691,1.1964,-3.8246,8.4141,-0.20067,0.037568,-0.057116
0.32953,1.9221,-3.3735,7.4923,-0.20403,0.043677,-0.075747
0.12756,1.5102,-1.0003,7.1589,-0.17226,0.055589,-0.087354
-0.20734,-1.9025,2.1378,13.278,-0.13011,0.062919,-0.088881
-0.60468,-2.4713,-1.6475,10.591,-0.24282,-0.20128,-0.035736
-0.8804,1.3533,-4.6484,8.8064,-0.43463,-0.32681,-0.047342
-0.95609,1.9809,-4.1776,8.0611,-0.53695,-0.42577,0.034514
-0.92212,1.0395,-2.4124,8.6887,-0.58826,-0.478,-0.041844
-0.87369,0.80415,-2.1967,8.7868,-0.61942,-0.50916,-0.08094
-0.82913,1.4318,-2.8832,8.8652,-0.64232,-0.5229,-0.061697
-0.78284,1.7064,-3.3146,8.8456,-0.60628,-0.5284,-0.045815
-0.73734,1.9221,-3.2362,8.8848,-0.48869,-0.48869,-0.029016
-0.70114,2.2751,-3.0008,8.6299,-0.11026,-0.41142,-0.12278
-0.67096,2.0006,-2.7262,8.4141,-0.40073,-0.29841,-0.1408
-0.67139,2.1575,-2.687,7.9434,-0.21197,-0.19242,-0.05681
-0.68625,1.6083,-2.2555,8.0022,-0.068722,-0.095295,-0.07025
-0.70035,1.3533,-2.2948,8.4337,0.053451,-0.032987,-0.092546
-0.76019,1.0395,-2.687,8.8064,0.0956,-0.030849,-0.082772
-0.82581,1.1376,-2.8832,8.3749,0.036041,-0.058338,-0.087048
-0.91821,1.3729,-2.1967,7.7865,-0.046426,-0.098349,-0.11118
-0.99997,0.8826,-1.3141,8.1787,0.70036,0.25137,-0.063835
-0.99997,-0.35304,-0.86299,9.1986,0.82314,0.35094,-0.10232
-0.99997,-0.5884,-1.6475,9.3359,0.89308,0.44471,-0.067806
-0.99997,0.2942,-2.3536,9.1986,0.84849,0.52168,-0.029322
-0.99997,0.49033,-2.0398,9.5321,0.68997,0.55619,-0.0039706
-0.99997,0.13729,-1.3533,10.12,0.43891,0.51588,0.0082467
-0.99997,0.13729,-1.8437,11.14,0.18112,0.4047,0.0061087
-0.99997,0.23536,-2.2751,10.885,0.018326,0.2645,-0.025045
-0.99997,0.8826,-1.9417,10.297,0.0281,0.17654,0.051924
-0.99997,0.74531,-1.5298,9.3359,0.14416,0.16157,0.015272
-0.99997,0.54917,-1.6279,8.1199,0.24679,0.19945,-0.12675
-0.99997,0.76492,-1.8829,7.0019,0.30268,0.23427,-0.10751
-0.99997,0.96105,-2.432,7.3942,0.31612,0.21991,-0.057421
-0.99997,1.1768,-2.6086,8.4141,0.25107,0.16432,-0.0009163
-0.99997,0.8826,-2.5693,9.5125,0.064752,0.065668,0.051007
-0.99997,0.74531,-2.1575,9.3752,-0.099571,-0.090713,0.076664
-0.99997,1.2945,-2.2751,8.6299,1.0959,0.17807,0.34178
-0.99997,1.4318,-2.4124,8.1787,1.1316,0.25779,0.23305
-0.99762,1.5495,-1.9809,8.1199,1.0443,0.31887,0.18876
-0.97009,1.2356,-1.5691,8.9437,0.76877,0.29841,0.27703
-0.95587,1.1964,-1.6671,9.4144,0.057421,0.2532,0.4102
-0.9263,1.6475,-2.2555,9.3359,-0.92424,0.30085,0.45937
-0.89737,1.5102,-2.1378,9.1986,0.58063,0.23946,0.35125
-0.86765,1.8437,-1.9809,8.9633,0.89308,-0.2193,0.28466
-0.83221,1.5887,-1.6671,8.5514,-0.20586,0.073915,0.030238
-0.80606,1.2945,-1.6475,9.1202,-0.2364,0.062919,0.031765
-0.78714,1.3337,-1.8829,9.0613,-0.29077,0.03543,0.064446
-0.7496,1.6475,-2.2751,8.6299,-0.33078,0.013744,0.046731
-0.69016,1.5887,-2.432,8.2768,-0.33811,-0.00030543,0.036041
-0.62515,1.3337,-2.3144,8.5514,-0.31887,-0.00061087,0.031154
-0.54559,1.1964,-2.432,8.9044,-0.30299,0.019548,0.0281
-0.49023,1.216,-2.589,8.7475,-0.29902,0.03543,0.027184
-0.40302,1.3533,-2.7655,8.7279,-0.27733,0.041233,0.0018326
-0.33124,1.0787,-2.7459,8.6299,-0.24923,0.033903,0.012523
-0.26807,1.1768,-2.8832,8.7083,-0.22449,0.017104,0.020769
-0.22314,1.1768,-2.7851,8.7868,-0.20128,0.0030543,0.0024435
-0.18301,1.1964,-2.7066,8.8064,-0.1854,-0.0033598,-0.0051924
-0.15408,1.216,-2.6282,8.7475,-0.19975,0.0009163,-0.0094684
-0.12128,1.1964,-2.2751,8.6887,-0.30085,0.011301,-0.012828
-0.079956,1.3533,-2.3732,8.316,-0.2978,0.012217,-0.0079412
-0.04837,1.1964,-2.7262,8.1787,-0.33689,-0.0018326,0.10873
-0.016815,1.3533,-2.942,8.2768,-0.30574,-0.024129,0.14966
-0.0075684,1.3533,-3.4519,9.0025,-0.20403,-0.033292,0.013744
-0.059906,1.5495,-2.7459,9.6694,-0.06353,-0.021075,0.0073304
-0.20535,0.90221,-1.8437,9.7282,0.10415,0.0012217,0.015882
-0.47516,1.3533,-1.0003,9.9047,0.31246,0.032376,0.037263
-0.82111,-1.5298,-0.33343,12.18,-0.25168,0.075442,0.061392
-0.99997,0.39227,-3.2362,8.6887,-0.30818,0.11942,0.077885
-0.99997,2.2359,-4.8837,7.0608,-0.92638,-0.95142,-0.44379
-0.99997,1.1768,-4.4914,7.0804,-1.1668,-0.98899,-0.37599
-0.99997,0.098066,-3.3931,8.1787,-1.3256,-0.98716,-0.50091
-0.99722,0.039227,-3.5108,9.1594,-1.3955,-0.98105,-0.5342
-0.87524,0.80415,-3.9423,9.179,-1.3949,-0.97464,-0.54703
-0.70197,1.1768,-4.2561,9.1594,-1.3436,-0.94043,-0.551
-0.51706,1.0395,-4.3934,9.179,-1.2266,-0.88759,-0.54795
-0.33768,0.92183,-4.3934,8.9437,-1.0757,-0.84422,-0.51313
-0.1756,0.98067,-4.3934,8.4141,-1.0715,-0.81642,-0.33048
-0.051849,1.3925,-4.0403,7.6296,-1.2975,-0.83108,-0.33659
0.057312,1.6867,-3.9423,7.8649,-1.6478,-0.89278,-0.32803
0.151,1.3337,-3.5304,8.2376,-2.0308,-0.99021,-0.30665
0.23242,1.5495,-3.6285,7.8649,-2.3332,-1.0898,-0.30238
0.31995,1.7064,-3.2558,7.3746,-2.5058,-1.1658,-0.30329
0.40884,2.2751,-3.55,7.0019,-2.5265,-1.1878,-0.29902
0.50565,2.942,-3.5304,6.9235,-2.379,-1.1304,-0.30421
0.60455,3.0008,-3.7265,7.4531,-2.1328,-1.0324,-0.17257
0.71402,2.8635,-3.4519,7.3158,-1.8824,-0.9163,-0.10507
0.82947,3.0989,-3.295,6.3547,-1.6444,-0.7761,-0.31185
0.94925,3.4127,-4.0796,4.9426,-1.4111,-0.6466,-0.28986
1,4.1972,-5.1975,4.0992,-1.2098,-0.5342,-0.28039
1,4.6876,-6.4528,4.3934,-1.1078,-0.45143,-0.25595
1,5.1191,-6.8254,4.9622,-1.0376,-0.40378,-0.21686
1,5.1191,-5.9624,5.2564,-0.96333,-0.38759,-0.19456
1,4.8053,-5.2564,5.1779,-0.95173,-0.39492,0.12523
1,4.9426,-4.9426,5.0995,-0.97036,-0.43035,0.1463
1,5.2956,-5.1975,4.9622,-0.99052,-0.4612,-0.039706
1,5.4721,-5.5702,4.5111,-0.97372,-0.44899,-0.022602
1,5.5702,-4.9426,4.7856,-0.87965,-0.3882,-0.021686
1,5.3152,-4.8053,5.1779,-0.72632,-0.30085,-0.01069
1,5.4133,-5.1975,4.9818,-0.53603,-0.22083,0.022602
1,5.6879,-5.2564,4.9229,-0.31796,-0.16799,0.076969
1,5.6879,-5.0798,5.0995,1.0938,0.3485,-0.44929
1,5.5702,-5.021,5.2368,0.99876,0.3146,-0.47006
1,5.6879,-5.4525,5.3544,0.89125,0.26084,-0.27122
1,5.5113,-5.884,5.276,0.76603,0.20769,-0.26603
1,5.6094,-6.6685,4.3542,0.60628,0.1689,-0.28436
1,6.3939,-7.8061,3.7854,0.41692,0.10904,-0.31001
1,5.9428,-7.0019,4.9229,0.22907,0.014661,-0.34208
1,4.9033,-5.1779,6.4332,0.088575,-0.06353,-0.38668
1,4.5111,-4.2365,6.7077,0.078496,-0.12034,0.17471
1,4.7464,-4.5699,6.2763,0.26695,-0.14936,0.24618
0.96753,4.8837,-5.5898,5.7467,0.47892,-0.099876,-0.37477
0.77994,4.7464,-6.492,5.7467,0.68173,0.027489,-0.18387
0.62299,4.8445,-6.5901,6.1978,0.87323,0.14844,-0.040928
0.50543,4.5111,-5.8252,6.5312,0.87751,0.18754,-0.007025
0.3873,4.2169,-4.8053,6.6489,0.010996,0.25076,-0.0045815
0.25964,4.2169,-4.0207,6.1978,-0.0058032,0.34911,0.04612
0.13568,4.0992,-4.3345,6.3939,-0.029322,0.30116,0.040623
0.015106,3.7069,-5.0995,7.1785,-0.068722,0.18143,0.041539
-0.075623,3.3146,-5.884,6.9235,-0.034514,0.15699,0.15852
-0.14325,3.4127,-6.0409,6.7077,-0.045815,0.24832,0.024129
-0.17108,4.5307,-5.9036,6.1193,-0.14783,0.35888,-0.040317
-0.18198,4.5307,-5.8055,5.4917,-0.33414,0.43249,-0.014661
-0.17236,3.3931,-4.7856,6.9823,0.58399,0.44288,0.018937
-0.18866,3.8834,-2.7851,6.8647,0.20892,0.3879,0.038179
-0.24286,3.7461,-3.2166,6.5901,-0.048869,0.29871,-0.34239
-0.29803,3.805,-4.2561,5.4133,0.12095,0.29016,-0.30971
-0.33844,3.8638,-3.9423,5.9036,0.42791,0.33017,-0.44746
-0.35358,3.1185,-3.6285,6.5116,-0.30788,0.13439,0.12889
-0.33737,2.8635,-3.7658,7.2765,0.047953,0.29566,0.18754
-0.3027,3.2754,-5.7271,6.8058,0.35583,0.43219,0.20678
-0.21918,3.9423,-6.6881,6.3351,0.51404,0.48961,0.19884
-0.12476,3.4912,-5.8252,6.8058,0.51862,0.47098,0.19853
-0.022858,3.0793,-4.7072,7.3746,-0.15913,0.061087,-0.010079
0.080048,3.2754,-4.7072,7.4727,-0.17349,0.04948,-0.023824
0.17572,3.6285,-4.5111,7.4531,-0.18326,0.036957,0.045509
0.26126,3.7069,-4.7072,7.3746,-0.16921,0.021686,0.040623
0.34808,3.5696,-4.6091,7.4923,-0.12614,0.030238,0.026878
0.43674,3.5304,-4.2953,7.2961,-0.076053,0.053145,0.0097738
0.51196,3.6285,-4.2561,7.4531,-0.045204,0.071471,0.002138
0.57782,3.6481,-4.4914,7.4531,-0.04215,0.078496,-0.00030543
0.63309,3.7854,-4.8837,7.3942,-0.060476,0.07422,0.013134
0.66757,3.7265,-5.1191,7.2373,-0.085216,0.062308,0.014355
0.68704,3.4912,-5.1191,6.9235,-0.10476,0.053756,-0.031765
0.7128,3.3931,-5.0995,6.8254,-0.11851,0.043982,-0.023518
0.75687,3.1577,-4.9426,6.7666,-0.1295,0.033903,-0.010079
0.80313,3.4127,-4.9229,6.747,-0.135,0.026573,-0.0033598
0.82867,3.3343,-4.7268,6.845,-0.13531,0.02138,0.0012217
0.85349,3.4912,-4.766,6.9627,-0.13408,0.017104,0.009163
0.85593,3.4127,-4.3934,7.0019,-0.13378,0.01405,0
0.8342,3.4912,-4.5111,7.1589,-0.13378,0.014355,-0.00061087
0.83337,3.4127,-4.8249,7.2177,-0.13256,0.012523,0.013134
0.82394,3.5696,-4.9818,6.9235,-0.12737,0.0067195,0.012828
0.80008,3.6285,-5.276,6.8647,-0.12737,0.0067195,0.012828
0.77579,3.4323,-5.0995,6.9235,-0.13256,0.0073304,0.0076358
0.74432,3.3343,-4.7856,6.9235,-0.13622,0.0039706,0.0033598
0.72208,3.4323,-4.7856,6.9235,-0.12767,0.0009163,0.0015272
0.71707,3.3931,-4.4914,6.8647,-0.016799,0.12798,0.024435
0.69617,3.3146,-4.8641,6.9039,-0.023518,0.13042,0.042455
0.70053,3.3931,-5.0406,6.9235,-0.041233,0.12553,-0.009163
0.69427,3.3343,-5.021,6.8647,-0.074526,0.1179,-0.0054978
0.73291,3.3343,-4.9229,6.9627,-0.11606,0.10873,-0.01069
0.72064,3.2754,-4.9818,6.9823,-0.14386,0.10293,-0.016188
0.75116,3.5304,-4.8837,6.747,-0.14203,0.096822,-0.01741
0.74872,3.4912,-4.9818,6.747,-0.13897,0.082772,-0.0042761
0.7804,3.4127,-5.1191,6.747,0.016188,0.064752,-0.025962
0.81781,3.3146,-5.1191,6.747,-0.0009163,0.065363,-0.040928
0.85516,3.2558,-5.1191,6.6097,-0.0027489,0.062614,0.019242
0.88144,3.3146,-4.9818,6.8254,0.0061087,0.053451,0.027184
0.89612,3.4912,-5.1191,6.9235,0.0054978,0.046731,0.024435
0.91306,3.4127,-5.1975,6.6881,-0.013134,0.033598,0.009163
0.92047,3.4127,-4.9622,6.7077,0.050702,0.01405,-0.0018326
0.91367,3.4912,-5.021,6.8058,0.036041,-0.014966,-0.011912
0.91388,3.5304,-5.021,6.747,-0.02138,-0.053451,-0.15455
0.90408,3.3343,-5.1975,6.6489,0.026267,-0.10537,-0.17074
0.89951,3.1774,-5.1779,6.8254,0.08827,-0.16799,-0.06353
0.89227,3.2558,-5.1191,6.6097,0.11332,-0.21869,-0.1014
0.87955,3.3735,-5.1191,6.8058,0.049786,-0.25137,-0.14691
0.87836,3.3146,-5.0798,6.8254,-0.12156,-0.27458,-0.18723
0.87057,3.4912,-5.1191,6.747,-0.03146,-0.30513,-0.2022
0.87189,3.2754,-5.0406,6.6685,-0.036346,-0.3879,-0.18082
0.85788,3.3735,-5.2564,6.747,-0.010079,0.01741,-0.0015272
0.8436,3.6285,-5.3348,6.7077,-0.013439,0.0085521,-0.011301
0.84607,3.5696,-5.1191,6.6685,-0.023213,0.0036652,-0.0036652
0.83563,3.4323,-4.8837,6.6685,-0.036346,0.0018326,-0.0051924
0.8197,3.0793,-4.8053,6.8254,-0.047342,0.0045815,-0.0058032
0.80627,3.2558,-4.9818,6.9235,-0.048564,0.0088575,-0.0061087
0.79669,3.2558,-4.9426,6.9823,-0.037263,0.01405,-0.0018326
0.76993,3.4323,-5.1191,7.1196,-0.018937,0.018326,0.0012217
0.74301,3.3146,-5.2368,7.1589,-0.0064141,0.025351,-0.00061087
0.71616,3.4323,-5.0798,7.3746,0.0076358,0.041844,0.0085521
0.69958,3.3931,-5.1387,7.7473,0.029627,0.053451,-0.017104
0.70282,3.4127,-5.4917,7.9434,0.039706,0.065363,-0.017715
0.71548,3.6873,-5.5113,7.9434,0.040317,0.074526,-0.02138
0.73123,3.5892,-4.3934,8.2376,0.046731,0.076053,-0.024129
0.74811,3.3146,-4.158,8.4926,0.054062,0.07422,-0.018021
0.74615,3.2558,-4.7856,8.0022,0.057116,0.069944,-0.0079412
0.74301,5.7859,-5.3937,6.9823,0.12584,0.37293,-0.020769
0.76865,4.8837,-7.2961,5.9821,-0.030543,0.31307,-0.0562
0.80331,4.5111,-5.0798,6.6881,-0.15241,0.22816,0.16799
0.80099,4.2757,-3.8638,7.0019,-0.19212,0.1576,0.11606
0.75534,4.1188,-2.8243,7.1589,-0.14875,0.13317,0.072693
0.67816,3.7461,-2.6086,7.1785,-0.066584,0.14936,0.038179
0.56699,3.8442,-3.3735,6.6685,0.010996,0.19945,0.019242
0.42401,4.2169,-4.6287,6.1978,0.068111,0.27031,0.0085521
0.2959,4.668,-4.9426,5.9624,1.7969,0.098655,0.78741
0.14737,4.4326,-4.0207,6.0605,1.4426,0.0082467,0.79626
-0.030884,4.0207,-2.2948,6.0409,1.1313,-0.10263,0.80817
-0.23715,3.4323,-1.824,6.3743,0.9279,-0.19731,0.81734
-0.496,3.0597,-3.1381,7.2373,0.86315,-0.23885,0.78954
-0.7796,2.8635,-4.3149,7.7473,0.90683,-0.21411,0.75533
-0.98947,3.9423,-4.7856,7.9434,0.99907,-0.13836,0.74648
-0.99997,3.9619,-4.8053,7.7669,1.0977,-0.050702,0.75747
-0.99997,3.6285,-3.8638,7.2765,1.171,0.028711,0.45021
-0.99997,2.9224,-2.9028,7.5903,1.1747,0.094073,0.43005
-0.99997,2.7459,-2.8243,8.0807,1.1041,0.13042,0.7535
-0.99997,2.6086,-2.942,7.963,0.9612,0.13164,0.68845
-0.99997,2.8635,-3.3146,7.3354,0.74587,0.091019,0.62553
-0.99997,3.3735,-4.0011,6.6881,0.46914,0.015882,0.56444
-0.99997,3.5696,-4.3542,6.3547,0.19456,-0.062919,0.5061
-0.99997,3.55,-3.9815,6.8254,-0.025962,-0.11759,0.46701
-0.99997,2.8635,-3.5304,7.9042,-0.25076,-0.14325,0.24832
-0.99997,2.4713,-3.6088,8.4141,-0.29841,-0.13317,0.21533
-0.99997,2.8635,-3.9227,8.316,-0.29474,-0.10385,0.405
-0.99997,3.5696,-3.8834,7.9042,-0.19059,-0.055894,0.38454
-0.99997,4.0207,-3.7658,7.9042,-0.024435,0.044288,0.35277
-0.99997,3.6285,-3.4519,8.2572,0.15119,0.17929,0.30482
-0.99997,3.1774,-3.1577,8.3945,0.2532,0.30788,0.26634
-0.99997,3.0793,-2.5693,8.5514,0.23793,0.37629,0.25534
-0.99997,2.9028,-2.3144,9.0613,0.11301,0.043371,-0.062308
-0.99997,3.0793,-2.687,9.0417,0.16371,0.019853,-0.065363
-0.99997,2.942,-2.9028,8.7279,0.15821,0.024129,0.037263
-0.99997,3.0008,-3.0401,8.6495,0.16249,0.044593,0.0054978
-0.99997,3.0793,-2.8243,8.4337,0.16646,0.0562,0.0067195
-0.99997,2.8635,-2.7655,8.0807,0.10293,0.031765,0.014966
-0.99997,2.8047,-3.0793,7.7865,-0.0048869,0.018021,-0.011301
-0.99997,2.7851,-3.4519,8.0022,-0.011606,0.033903,-0.051924
-0.99997,2.8635,-2.8439,8.2572,-0.040623,0.082772,0.0042761
-0.99997,2.8635,-2.3536,8.9044,0.0058032,0.090103,0.0039706
-0.99997,2.7851,-2.589,8.4926,0.067195,0.10934,0.039095
-0.99997,3.0793,-2.9028,8.1003,0.074526,0.11118,0.029932
-0.99997,2.8047,-3.295,8.1787,0.02138,0.085521,0.041844
-0.99997,3.0793,-3.2362,8.0807,-0.057116,0.051618,0.043677
-0.99997,3.0793,-3.3539,8.2768,-0.12187,0.025351,0.030238
-0.99997,2.8635,-3.2558,8.2572,-0.15455,0.01405,0.012217
-0.99997,2.9224,-2.942,8.5514,-0.18051,0.012217,0.019853
-0.99997,2.9616,-2.9028,8.4926,-0.1854,0.012217,0.011606
-0.99997,3.0008,-2.9028,8.2376,-0.19731,0.016799,0.0045815
-0.99997,3.2166,-3.0989,8.2376,-0.21319,0.01741,0.01069
-0.96292,2.9224,-3.0008,8.218,-0.22541,0.0067195,0.02138
-0.92349,2.7851,-2.9028,8.2572,-0.23976,-0.0085521,0.028711
-0.90558,2.9224,-3.1381,8.2376,-0.17104,-0.017715,0.03146
-0.87378,2.8635,-3.1381,8.1787,-0.17837,-0.021686,0.027184
-0.86166,3.0597,-3.4519,8.1199,-0.26145,-0.021686,0.053451
-0.84589,2.6282,-3.4519,8.0022,-0.22663,-0.013439,0.063835
-0.8382,2.9224,-3.3539,7.9434,-0.15791,-0.0054978,0.013439
-0.85602,2.8047,-3.2558,8.5318,-0.057116,0.00061087,0.022907
-0.89706,2.9028,-3.3146,8.7083,0.055589,0.012523,0.025351
-0.98468,2.9224,-3.0008,8.1003,0.13561,0.033903,0.015577
-0.99997,3.0008,-3.0793,8.0022,-0.25626,0.059865,0.013439
-0.99997,3.0793,-3.7069,7.8061,-0.26695,0.065973,0.028711
-0.99997,3.0597,-3.6285,8.1787,0.12156,0.10324,0.04215
-0.99997,2.7851,-3.3539,8.5514,0.12248,0.092546,0.048869
-0.99997,2.8635,-2.687,8.316,0.10843,0.072998,-0.029016
-0.99997,2.9616,-2.432,8.1591,0.07758,0.04948,-0.0067195
-0.99997,2.8439,-2.687,8.3945,0.034819,0.029932,0.020769
-0.99997,2.9224,-3.0008,8.2572,-0.018326,0.011606,0.03879
-0.99997,3.0793,-3.0008,8.0022,-0.073609,-0.013744,0.055283
-0.99997,2.7066,-3.2166,8.0611,-0.11209,-0.030849,0.054062
-0.99997,2.8635,-3.3931,8.0022,-0.12798,-0.025656,-0.0009163
-0.99997,2.6478,-3.2558,8.2572,-0.14569,-0.0085521,-0.0039706
-0.96506,2.7459,-3.1381,8.4141,-0.18509,-0.0030543,0.059559
-0.84787,2.687,-3.2362,8.3749,-0.20708,-0.014355,0.051007
-0.69443,2.6086,-3.1381,8.3945,-0.18143,-0.025962,0.03146
-0.53574,2.687,-2.7459,8.316,-0.1127,-0.023824,0.014661
-0.34891,2.7851,-2.4517,8.6495,-0.021075,-0.0012217,0.0048869
-0.16562,2.9616,-2.5693,8.5514,0.073915,0.037263,0.0045815
0.018585,2.8439,-2.8832,8.6299,0.10079,0.068722,-0.029932
0.15118,3.1185,-3.2558,8.3749,0.071166,0.071166,-0.025962
0.25958,2.687,-3.2166,8.2572,-0.0027489,0.069639,-0.0024435
0.3201,3.0008,-3.3539,8.1787,-0.091324,0.053756,-0.020769
0.27902,2.9224,-3.5108,8.1787,-0.16371,0.029322,-0.026573
0.18338,2.8635,-3.3146,7.7865,-0.21258,0.0015272,-0.021075
0.056061,2.7851,-3.0401,8.2768,-0.22327,-0.016188,-0.020464
-0.061279,2.942,-2.7851,8.2376,-0.18479,-0.018326,-0.0281
-0.1564,2.687,-2.8832,8.4141,-0.11881,-0.0042761,0.01405
-0.2363,2.8439,-3.0597,8.316,-0.067195,0.015272,0.031154
-0.27179,2.9224,-3.2362,8.2768,-0.043371,0.030238,-0.016188
-0.2814,2.9616,-3.1381,8.316,-0.042455,0.032681,-0.0033598
-0.26584,2.6086,-3.0793,8.4141,-0.068722,0.029932,0.0042761
-0.24927,2.8635,-3.0597,8.4337,-0.10904,0.015272,0.0036652
-0.2309,2.6478,-3.0793,8.3945,-0.12767,-0.020769,0.0064141
-0.21344,2.7655,-3.1381,8.0807,-0.11851,-0.051618,0.011912
-0.19815,2.9224,-3.1381,8.1787,-0.23182,0.015272,-0.0085521
-0.16397,2.7655,-3.0989,8.218,-0.25626,-0.027184,0
-0.11203,2.8635,-3.2362,8.1591,-0.22907,-0.069333,0.0082467
-0.0672,3.0008,-3.1381,8.0807,-0.1741,-0.088881,0.01405
-0.0069275,2.7851,-3.2362,8.1787,-0.10415,-0.078191,0.0036652
0.044403,3.0793,-3.55,8.2572,-0.041233,-0.048258,-0.018326
0.07962,2.7851,-3.6088,8.0611,-0.057421,-0.011912,-0.023518
0.089142,2.7655,-3.6285,7.7865,-0.15424,0.018631,-0.016188
0.088654,2.8635,-3.5304,7.8061,0.010385,0.036346,-0.016799
0.057739,3.0008,-3.5304,8.0807,0.0045815,0.043371,-0.011912
0.030426,2.8047,-3.4716,8.1199,-0.007025,0.039095,0.002138
0.0069275,2.8047,-3.5304,7.9238,-0.021075,0.03207,0.0039706
-0.007843,3.0008,-3.7069,7.6884,-0.018937,0.020464,0.0082467
0.0026245,3.0989,-3.9423,7.7865,-0.0036652,-0.0015272,0.0079412
0.010559,2.942,-3.7069,8.1003,-0.002138,-0.0073304,-0.0036652
0.0098572,2.7851,-3.2362,8.0807,0.012217,0.00061087,-0.016188
0.036743,2.8635,-3.295,8.218,0.05284,0.014966,0.0042761
0.078735,2.7655,-3.2362,8.2572,0.07086,0.027794,0.035125
0.13434,2.9224,-3.8638,7.8061,0.10507,0.03879,-0.0054978
0.20386,3.0793,-4.0796,7.5315,0.16768,0.0562,-0.0042761
0.24622,3.1774,-3.9423,7.7865,0.27153,0.074526,-0.0064141
0.27814,2.8635,-3.6873,7.9434,0.35797,0.085827,-0.0015272
0.29657,2.9028,-3.5108,7.9434,0.019242,0.10721,-0.0039706
0.29504,2.9224,-3.7658,8.0611,0.036957,0.12737,-0.015272
0.29214,2.9028,-3.7854,7.9238,-0.20495,-0.02474,0.015272
0.25467,3.2166,-3.6873,7.8649,-0.15669,-0.018021,0.011301
0.2128,3.0008,-3.6873,7.8061,-0.080023,0.0048869,-0.045815
0.1655,2.9616,-3.7265,7.6884,-0.0024435,0.037263,-0.062919
0.10641,3.0008,-3.8246,7.6884,0.054672,0.062614,-0.058948
0.078186,2.687,-3.3735,8.1787,0.085216,0.077274,-0.04612
0.045898,2.5497,-3.0597,8.2376,0.082161,0.07422,-0.0281
0.042542,2.8635,-3.3931,8.1003,0.029932,0.050091,-0.0018326
0.042297,3.0008,-3.4716,7.9434,0.009163,0.038179,-0.010996
0.073181,2.9616,-4.158,7.9434,-0.024129,0.032681,-0.0082467
0.13257,3.0793,-3.7658,7.9434,-0.073609,0.018326,0.0085521
0.18222,3.0793,-3.4519,7.963,-0.11973,-0.0036652,0.009163
0.19067,3.0008,-3.3539,8.0807,-0.13928,-0.025962,0.010079
0.18054,2.9028,-3.3931,8.0218,-0.14722,-0.035125,0.011912
0.14676,2.942,-3.55,7.9042,-0.13836,-0.043677,0.0067195
0.10355,2.7066,-3.5696,7.6884,-0.10721,-0.036652,-0.00061087
0.070129,2.8047,-3.6285,8.1199,-0.075747,-0.01405,0.010996
0.029297,2.8635,-3.5304,8.0022,-0.053756,0.0033598,0.0012217
0.0068665,2.9224,-3.3735,8.0807,-0.053756,0.014966,0.002138
-0.0018311,2.942,-3.4127,7.963,-0.07422,0.019242,0.0048869
0.01123,2.9224,-3.5696,7.9238,-0.10232,0.013439,0.0085521
0.064117,3.0008,-3.6285,7.963,-0.12523,0.0024435,0.015577
0.1174,2.6478,-3.5696,8.0022,-0.12645,-0.010079,0.019242
0.19141,2.9028,-3.7069,7.8453,-0.10385,-0.016799,0.018631
0.26453,3.0597,-3.9423,7.8649,-0.11698,0.00030543,0.020769
0.34891,2.8635,-3.8834,7.7865,-0.15974,-0.018021,0.017715
0.43219,3.0204,-3.9815,7.7865,-0.18051,-0.033903,0.0079412
0.49814,3.0204,-3.6677,7.8061,-0.17959,-0.037263,0.012828
0.53894,3.0008,-3.4519,7.963,-0.16982,-0.032376,0.009163
0.56934,2.8047,-3.5304,7.963,-0.15608,-0.029016,0.0051924
0.58493,3.0008,-3.7854,7.9042,-0.15119,-0.029627,0.010079
0.59857,3.1185,-4.0796,7.7865,-0.14997,-0.035736,0.017104
0.61456,3.1774,-3.8442,7.6296,-0.146,-0.038485,-0.0058032
0.61331,3.0008,-3.7069,7.7669,-0.15027,-0.032376,0.0018326
0.6207,3.0597,-3.6873,7.9042,-0.16585,-0.033292,0.014966
0.62756,3.0204,-3.8246,7.9434,-0.16341,-0.041233,0.0094684
0.63327,2.8439,-3.8638,7.8061,-0.1347,-0.034514,-0.0024435
0.6391,3.0008,-3.8834,7.7865,-0.098349,-0.01405,-0.013439
0.65073,3.0793,-4.0207,7.7473,-0.054367,0.0073304,-0.015882
0.64902,2.9224,-3.7658,7.8061,-0.0082467,0.027794,-0.010079
0.63388,3.0204,-3.7265,7.9238,-0.048258,0.011912,-0.013439
0.63922,2.8635,-3.7658,7.9238,-0.034208,0.011912,-0.01069
0.63733,2.9616,-3.8638,7.7865,-0.023518,0.0054978,-0.0085521
0.64316,2.9224,-3.7854,7.7669,-0.022907,0.0073304,-0.0073304
0.63681,2.8635,-3.8246,7.7669,-0.029016,0.010996,-0.01069
0.62115,2.9616,-3.9423,7.8061,-0.036652,0.011301,-0.007025
0.61749,3.0793,-3.8638,7.8061,-0.046731,0.0088575,-0.0030543
0.59601,3.0597,-3.6873,7.7865,-0.052229,0.0067195,-0.0085521
0.57742,2.8047,-3.7069,7.8649,-0.03146,0.0061087,-0.0024435
0.56345,3.0008,-3.9423,7.7865,-0.034514,0.007025,-0.0054978
0.54327,3.0204,-3.9423,7.7865,-0.043371,0.015577,-0.0082467
0.52493,2.9224,-3.8638,7.708,-0.047037,0.020464,-0.010385
0.4942,3.1774,-3.8834,7.7669,-0.042455,0.017104,-0.0067195
0.45135,2.7655,-3.8442,7.9238,-0.040623,0.012828,-0.0018326
0.41293,3.0597,-3.7069,7.8649,-0.041539,0.0082467,-0.0009163
0.37241,2.9028,-3.7265,7.8649,-0.036957,0.002138,-0.0015272
0.33496,2.8635,-3.8246,7.8649,0.03543,0.0281,-0.0067195
0.27881,3.0008,-3.9423,7.8649,0.038179,0.028405,-0.0036652
0.23361,2.8635,-3.6677,7.7865,0.040012,0.027794,-0.019242
0.19034,2.8635,-3.8638,7.708,0.036041,0.026878,-0.018326
0.16568,3.0008,-3.9423,7.6492,0.022602,0.028711,-0.018326
0.14532,3.0793,-3.7658,7.8453,0.0042761,0.026878,-0.01741
0.12228,2.942,-3.6873,7.7865,-0.0094684,0.019853,-0.010079
0.10019,2.9224,-3.8246,7.7865,-0.015577,0.015577,-0.0073304
0.07962,3.0793,-4.0796,7.7865,-0.018937,0.011606,-0.002138
0.061676,2.8635,-3.8638,7.9042,-0.013134,0.0042761,-0.0079412
0.050873,3.1185,-3.8638,7.7865,-0.007025,0.0012217,-0.0033598
0.043793,2.9224,-3.7854,7.7473,-0.012217,0.0076358,-0.0076358
0.02887,3.0597,-3.9815,7.6492,-0.027489,0.013744,-0.01405
0.013519,2.8635,-3.8246,7.8061,-0.040317,0.016493,-0.015882
0.0070496,3.0597,-3.8638,7.9042,-0.017715,0.014661,-0.0097738
0.0028076,2.9028,-3.8834,8.0022,-0.019548,0.010996,-0.0009163
0.0023804,2.9616,-3.9423,7.7865,-0.024129,0.014661,-0.0009163
0.026672,2.7851,-4.158,7.963,-0.021686,0.015272,0.0024435
0.040619,3.1774,-3.7069,7.6492,-0.018937,0.015272,-0.0058032
0.056763,2.8047,-3.7658,7.4727,-0.016493,0.016188,-0.0051924
0.038544,2.7851,-3.7854,7.7865,-0.018631,0.01741,-0.0054978
0.054321,3.0989,-4.0207,7.8649,-0.030238,0.017104,-0.0030543
0.059906,3.0597,-3.9423,7.61,-0.042455,0.015882,-0.0036652
0.047546,3.0008,-3.8638,7.6884,-0.048869,0.011606,-0.0039706
0.043243,2.8635,-3.8638,7.9042,-0.018937,0.020159,-0.013744
0.045502,3.0204,-3.7069,7.9434,-0.024435,0.021991,-0.0048869
0.03949,3.0597,-3.8246,7.8649,-0.032681,0.016799,-0.0039706
0.040222,3.0597,-3.8246,7.7669,-0.037568,0.014355,-0.0064141
0.043518,2.9028,-3.8442,7.8061,-0.036041,0.012217,-0.0079412
0.053131,2.8439,-3.8246,7.7865,-0.030543,0.0085521,-0.0048869
0.060242,3.0008,-3.8638,7.6884,-0.021991,0.012217,-0.0064141
0.071167,3.0793,-4.0207,7.7865,-0.010079,0.021075,-0.013744
0.075806,3.0008,-3.9423,7.5903,0.00061087,0.025351,-0.0039706
0.095642,3.0793,-3.9227,7.7865,-0.002138,0.023213,-0.002138
0.085693,2.942,-3.7854,7.7865,-0.011301,0.020159,-0.0042761
0.08374,3.0793,-3.8834,7.8649,-0.025656,0.016493,-0.010079
0.091309,3.0597,-3.7854,7.708,-0.036041,0.014355,-0.010079
0.093872,3.1185,-3.8442,7.8061,-0.040623,0.010079,-0.0064141
0.089905,2.8047,-3.9227,7.8649,-0.044288,0.0073304,-0.0048869
0.078217,2.942,-4.0207,7.7865,-0.047953,0.0085521,-0.0054978
0.071106,3.1185,-3.8638,7.8649,-0.043982,0.0073304,-0.013439
0.062195,3.0008,-3.7658,7.7669,-0.034819,0.0033598,-0.0079412
0.044098,3.0008,-3.8834,7.6492,-0.021686,0.0033598,-0.0039706
0.027069,2.9224,-3.8834,7.61,-0.01069,0.009163,-0.009163
0.015106,3.0793,-3.8638,7.8061,-0.0082467,0.015882,-0.01405
0.0079041,2.9028,-3.7854,7.7669,-0.012217,0.017715,-0.011301
-0.0029907,3.0204,-3.9423,7.7865,-0.016493,0.01741,-0.0094684
-0.0074158,2.7851,-3.8638,7.9042,-0.021075,0.015577,-0.01405
-0.011932,3.0008,-4.0011,7.7865,-0.007025,0.014966,-0.0030543
-0.0015259,3.0989,-3.7658,7.6884,-0.011912,0.016799,-0.012217
0.0022888,3.0597,-3.8638,7.6884,-0.0082467,0.026573,-0.015882
-0.0029907,2.942,-3.9815,7.9042,-0.011606,0.032376,-0.010385
-0.0024719,3.0989,-3.8638,7.6884,-0.034208,0.024435,0.0018326
0.011536,2.8635,-3.8834,7.7865,-0.060781,0.0082467,0.011912
0.021637,2.8832,-3.8834,7.8649,-0.05284,0.012523,0.007025
0.028503,3.0793,-3.9815,7.7865,-0.0058032,0.039401,-0.00061087
0.042358,2.9224,-3.8834,7.8649,0.047037,0.0562,0.0064141
0.065796,2.8439,-4.0011,7.8453,0.10324,0.076969,0.0048869
0.07785,2.942,-4.0207,7.6884,0.16096,0.10599,-0.01741
0.084625,3.0793,-3.8834,7.7669,0.19578,0.1127,-0.016188
0.09198,3.0989,-3.7658,7.7473,0.2135,0.10415,-0.0079412
0.088257,3.0008,-3.7265,7.7669,0.21319,0.089186,0.0012217
0.086395,2.8635,-3.8638,7.8649,0.18509,0.068417,-0.00030543
0.069427,3.1185,-4.0403,7.61,0.14019,0.047342,0.0015272
0.061279,3.0989,-4.1972,7.5315,-0.046426,0.030849,-0.0088575
0.055847,3.0793,-4.0796,7.6296,-0.087965,0.01069,-0.0088575
0.078522,2.9224,-4.0207,7.9434,-0.11087,-0.011606,-0.0012217
0.11838,2.8047,-3.5304,8.0807,-0.13103,-0.020769,-0.0088575
0.15234,2.9224,-3.55,7.9238,-0.14661,-0.014355,-0.016188
0.16071,2.8047,-3.6873,7.7865,-0.14416,-0.0064141,-0.018631
0.17468,3.0793,-3.8638,7.8453,0.084605,-0.007025,-0.015882
0.14371,3.0793,-3.8246,7.7865,0.018021,-0.0030543,-0.012217
0.070648,3.0008,-4.0011,7.9238,-0.051618,0.0024435,-0.017104
-0.039246,2.9028,-3.9815,7.6296,-0.019548,0.0076358,-0.015272
-0.18823,3.0597,-3.8442,7.7865,-0.020769,0.021686,-0.011301
-0.33157,2.8047,-3.7069,7.7865,-0.04215,0.033598,-0.012217
-0.47952,2.9616,-3.7658,7.9238,-0.06689,0.034819,-0.010385
-0.60574,2.8047,-3.8246,7.9042,-0.091324,0.026267,-0.016188
-0.74576,3.0597,-3.8638,7.7865,-0.12523,0.014355,-0.022907
-0.85144,3.0008,-3.8246,7.8453,-0.093157,0.002138,-0.022297
-0.9068,2.9224,-3.8638,7.8649,-0.040012,-0.0009163,0.00030543
-0.93109,3.0597,-4.158,7.8061,-0.031765,0,-0.0009163
-0.90289,3.1774,-3.8638,7.6884,-0.015272,0.0061087,-0.0036652
-0.87155,2.8439,-3.8834,7.8453,0.0033598,0.013744,-0.010079
-0.81924,2.9616,-3.9815,7.6492,0.011301,0.021075,-0.0088575
-0.7767,2.9224,-3.8638,7.6296,0.0051924,0.022907,-0.0054978
-0.71631,2.9616,-3.7854,7.7669,-0.013439,0.018937,-0.0036652
-0.66083,2.9616,-3.8834,7.708,-0.034208,0.0079412,-0.0012217
-0.60062,3.0008,-3.9815,7.708,-0.042761,-0.0064141,0.0054978
-0.54019,2.9224,-4.0207,7.7865,-0.031765,-0.010079,0.0058032
-0.48553,2.9224,-3.8638,7.7473,-0.013744,-0.0009163,-0.0097738
-0.4231,3.0008,-4.0011,7.7473,0.0009163,0.011606,-0.012828
-0.35968,2.9224,-4.0011,7.8061,-0.00061087,0.020769,-0.0067195
-0.31818,2.9028,-3.9423,7.5511,-0.015272,0.023518,-0.0009163
-0.25558,3.0793,-3.8638,7.7865,-0.039706,0.019853,0.002138
-0.2211,3.0597,-3.9423,7.6884,-0.062003,0.013744,0.0054978
-0.18927,2.9616,-3.9423,7.61,-0.075442,0.0085521,0.0009163
-0.15295,3.0204,-3.9423,7.7865,-0.079412,0.0054978,-0.00061087
-0.12259,3.0008,-3.8442,7.7473,-0.059254,0.011301,0.0082467
-0.084229,2.9028,-4.0207,7.6296,-0.021991,0.022907,0.013744
-0.058624,3.0204,-4.0796,7.708,0.016799,0.039401,0.015272
-0.019165,3.0989,-3.8638,7.6884,0.062614,0.05681,0.0054978
-0.01712,2.7851,-3.8246,7.7669,0.11851,0.066584,-0.0076358
0.02356,2.9224,-3.8638,7.6884,0.15821,0.072998,-0.0076358
0.036102,3.0793,-4.0011,7.7669,-0.062003,0.077885,-0.018021
0.052673,2.9616,-4.158,7.5903,0.16554,0.074831,-0.0082467
0.049713,3.1185,-4.1384,7.4923,0.15547,0.055589,-0.0054978
0.07431,2.8635,-4.0207,7.61,0.11393,0.030543,0.0051924
0.12399,2.8439,-3.8246,7.963,0.046731,0.0015272,0.013134
0.18811,2.687,-3.6285,7.9042,-0.030543,-0.021075,0.0045815
0.26059,2.7655,-3.6285,7.9042,-0.081856,-0.025656,-0.0054978
0.33792,3.0793,-4.0207,7.61,-0.090713,-0.01405,-0.014661
0.40347,3.0597,-4.0796,7.6884,-0.032987,-0.015577,-0.0039706
0.45883,2.9028,-3.8638,7.9042,0.0012217,-0.010385,-0.011912
0.49432,3.0793,-3.6677,7.7865,0.018631,0.0061087,-0.0085521
0.50104,3.0793,-3.7265,7.708,0.011301,0.025656,-0.0094684
0.48907,2.9224,-3.9815,7.6296,-0.01405,0.036346,-0.002138
0.44836,3.0008,-4.1384,7.61,-0.040928,0.034514,0.0036652
0.37885,3.0793,-4.1384,7.61,-0.086437,0.023213,0.0042761
0.31055,2.9224,-4.0796,7.5511,-0.068417,0.0097738,0.0012217
0.23862,3.0008,-3.9423,7.7669,-0.02474,0.0030543,-0.026878
0.17865,2.9028,-3.8638,7.7865,0.0030543,0.0088575,-0.03543
0.11224,2.8047,-4.0403,7.7865,0.025045,0.023518,-0.015272
0.054504,3.0597,-4.0796,7.3942,0.035125,0.036652,-0.016493
0.012573,3.0204,-4.0207,7.4334,0.035125,0.047647,-0.017715
-0.03418,3.0989,-4.0207,7.5903,0.022297,0.054672,-0.022297
-0.065582,2.9028,-3.9423,7.708,-0.052229,0.057727,-0.027794
-0.083557,3.0008,-3.6873,7.9042,-0.045509,0.05284,-0.026878
-0.096252,2.7851,-3.6873,7.9434,-0.058948,0.043982,0.018021
-0.10345,3.0597,-3.9423,7.7669,-0.069944,0.03543,0.020769
-0.10004,2.8635,-4.158,7.7865,-0.069944,0.022907,-0.038179
-0.091248,3.1185,-4.0796,7.61,-0.064141,0.011912,-0.036957
-0.082642,3.0793,-3.8442,7.6492,-0.067806,0.0051924,-0.033598
-0.08255,2.8439,-3.8638,7.8649,-0.079107,-0.0018326,-0.018937
-0.078796,3.0793,-4.0403,7.7865,-0.0036652,-0.0085521,-0.0073304
-0.078186,3.1774,-4.0796,7.6884,-0.036041,-0.019242,0.0058032
-0.072205,2.942,-4.0403,7.6296,0.025045,0.054978,0.0012217
-0.082581,2.8047,-4.0403,7.5903,0.015882,0.054978,-0.0030543
-0.080566,2.7851,-3.7658,7.9434,0.022907,0.056505,-0.025962
-0.077576,3.1774,-3.6873,7.8649,0.023518,0.053451,-0.021991
-0.083588,2.9224,-3.7658,7.8649,0.0024435,0.04215,-0.0085521
-0.084412,2.7655,-3.8246,7.8649,-0.028711,0.025656,-0.0012217
-0.07547,2.6086,-3.8246,7.8649,-0.061087,0.0097738,-0.0015272
-0.055054,2.7851,-3.9423,7.7865,-0.083383,-0.007025,0.00030543
-0.040039,3.0793,-3.7658,7.6884,-0.011912,0.014661,-0.0073304
-0.019287,2.8047,-4.158,7.7473,-0.0085521,0.012828,-0.0054978
0.024872,3.0989,-4.0796,7.61,-0.0054978,0.014966,-0.0082467
0.043671,3.2558,-4.2561,7.4727,-0.0076358,0.018631,-0.0079412
0.084839,3.0989,-4.3345,7.4531,-0.010079,0.018937,-0.0085521
0.09436,3.1774,-4.158,7.61,-0.013744,0.020159,-0.009163
0.11542,2.8635,-4.0796,7.6884,-0.023213,0.019853,-0.0088575
0.13635,2.9616,-4.0796,7.6884,-0.032376,0.01741,-0.0088575
0.14871,2.9224,-4.0796,7.7669,-0.032681,0.013134,-0.0064141
0.16714,2.9224,-4.0207,7.61,-0.028405,0.009163,-0.0058032
0.18845,3.1774,-4.0796,7.6492,-0.022297,0.0097738,-0.0079412
0.19653,3.0793,-4.0796,7.5903,-0.016493,0.013134,-0.0094684
0.21347,3.0793,-4.158,7.61,-0.0079412,0.014355,-0.007025
0.21509,3.0008,-4.0796,7.61,-0.0033598,0.016799,-0.0067195
0.23071,3.1774,-4.0207,7.61,-0.0064141,0.019548,-0.0085521
0.24817,2.9028,-4.0207,7.6884,-0.014966,0.02138,-0.010385
0.26474,2.8439,-4.0796,7.6884,-0.020159,0.015882,-0.0064141
0.26007,3.0008,-4.0796,7.5511,-0.027489,0.0085521,-0.0061087
0.26138,3.1774,-4.158,7.4727,-0.032376,0.0067195,-0.0033598
0.25003,3.0793,-4.0796,7.6296,-0.035125,0.0082467,-0.0027489
0.25595,3.0008,-4.1384,7.5511,-0.032681,0.0088575,-0.0027489
0.2738,3.0597,-4.158,7.5903,-0.026267,0.0097738,-0.0042761
0.26315,3.0793,-4.0403,7.6884,-0.017715,0.012217,-0.0067195
0.24881,2.9224,-4.0207,7.61,-0.015272,0.013439,-0.0064141
0.23184,3.1577,-4.0796,7.5903,-0.019548,0.014355,-0.0085521
0.21866,3.0793,-4.0403,7.6492,-0.025962,0.016799,-0.0076358
0.21655,3.0008,-4.158,7.5903,-0.03146,0.013439,-0.0024435
0.19281,3.0008,-4.0403,7.61,-0.032681,0.010385,-0.0018326
0.18542,2.9616,-4.0796,7.5903,-0.031154,0.011606,-0.0033598
0.17661,3.0008,-4.0992,7.5903,-0.027489,0.014355,-0.0039706
0.17343,3.0008,-4.0796,7.5511,-0.021686,0.014966,-0.0054978
0.16217,3.0793,-4.2561,7.61,-0.014966,0.015272,-0.0073304
0.1539,3.1774,-4.0796,7.61,-0.019242,0.0097738,-0.0088575
0.15778,3.0793,-4.0796,7.61,-0.020464,0.0085521,-0.0073304
0.16354,2.942,-4.158,7.61,-0.023824,0.011301,-0.0064141
0.16043,3.0793,-4.0207,7.61,-0.021991,0.013134,-0.0051924
0.15967,2.8635,-4.0011,7.6884,-0.018326,0.012828,-0.0061087
0.15161,2.9224,-4.0796,7.5511,-0.014966,0.013439,-0.0073304
0.15607,3.0008,-4.158,7.6296,-0.020769,0.01405,-0.0082467
0.14212,3.0793,-4.0992,7.61,-0.020159,0.016188,-0.0082467
0.13193,3.0597,-4.158,7.61,-0.019548,0.01405,-0.0073304
0.14288,2.8047,-4.0796,7.6492,-0.022297,0.0082467,-0.0073304
0.15079,3.0008,-4.158,7.4727,-0.022297,0.0088575,-0.0045815
0.14542,3.0008,-4.1776,7.6296,-0.022297,0.011301,-0.0042761
0.16537,3.0989,-4.0207,7.61,-0.020769,0.012217,-0.0061087
0.17081,2.8635,-4.0207,7.6296,-0.015272,0.013439,-0.0082467
0.16766,2.942,-4.1384,7.5315,-0.010079,0.014966,-0.0076358
0.18143,2.9616,-4.1384,7.6884,-0.010079,0.016799,-0.0064141
0.18597,2.8635,-4.1384,7.6884,-0.012828,0.01741,-0.0082467
0.19873,3.0989,-4.0207,7.61,-0.015882,0.018937,-0.0088575
0.20197,3.0989,-4.1384,7.6492,-0.02138,0.017104,-0.0045815
0.21216,2.9224,-4.0796,7.6492,-0.028405,0.012523,-0.0027489
0.21384,3.0008,-4.158,7.61,-0.029627,0.011912,-0.0033598
0.20627,3.1577,-4.3345,7.5511,-0.028711,0.010385,-0.0061087
0.21164,3.0008,-3.9815,7.5903,-0.025045,0.0079412,-0.0067195
0.21896,3.0989,-4.0992,7.61,-0.018937,0.011606,-0.0064141
0.23505,2.9616,-4.158,7.6884,-0.013439,0.014966,-0.0085521
0.2182,2.9616,-4.158,7.4531,-0.015272,0.016799,-0.0088575
0.21518,3.0793,-4.0796,7.5903,-0.018326,0.017104,-0.0073304
0.20764,3.0597,-4.158,7.61,-0.018021,0.015272,-0.0061087
0.20737,3.0008,-4.158,7.6296,-0.019242,0.015882,-0.0064141
0.20343,3.0204,-4.158,7.61,-0.019548,0.016799,-0.0058032
0.20615,3.0989,-4.0207,7.61,-0.014966,0.016188,-0.0058032
0.19098,3.1774,-4.0207,7.61,-0.014355,0.010996,-0.0073304
0.17841,3.1577,-4.0207,7.5903,-0.017715,0.012523,-0.0073304
0.19122,2.8635,-4.3345,7.6884,-0.014661,0.015577,-0.0064141
0.20016,3.0793,-4.158,7.5903,-0.016188,0.015272,-0.0079412
0.18909,2.9616,-4.158,7.6884,-0.016799,0.014661,-0.009163
0.18698,3.0989,-4.0011,7.6884,-0.022602,0.015882,-0.0076358
0.18344,2.9224,-4.0403,7.6884,-0.0281,0.012523,-0.0051924
0.15814,3.0008,-4.1384,7.6296,-0.023213,0.01069,-0.0015272
0.14777,3.0597,-4.158,7.61,-0.015577,0.013439,-0.0030543
0.14511,2.9616,-4.1384,7.5903,-0.016188,0.016188,-0.0045815
0.12717,3.1185,-4.158,7.5903,-0.0088575,0.013744,-0.0045815
0.117,2.8635,-4.0403,7.6884,-0.0097738,0.014661,-0.009163
0.10193,3.1185,-4.0796,7.61,-0.01405,0.015882,-0.0085521
0.093048,3.1185,-4.0796,7.61,-0.018631,0.01741,-0.0064141
0.079803,3.0008,-4.0992,7.5903,-0.021686,0.016799,-0.0045815
0.062714,3.1577,-4.1776,7.5511,-0.024129,0.013134,-0.0042761
0.05307,3.1185,-4.0207,7.61,-0.029322,0.011606,-0.0036652
0.036163,2.8635,-4.0207,7.6492,-0.030543,0.010996,-0.0036652
0.016083,3.0793,-4.158,7.61,-0.026878,0.011912,-0.0042761
0.013428,3.1185,-4.0796,7.6296,-0.019548,0.0094684,-0.0033598
0.027985,3.1774,-4.0796,7.61,-0.01069,0.011301,-0.0073304
0.020233,3.2166,-4.0796,7.5903,-0.007025,0.015272,-0.010996
0.041626,2.8635,-4.0207,7.61,-0.0067195,0.020159,-0.0082467
0.059998,3.0793,-4.0796,7.61,-0.012828,0.022297,-0.0058032
0.079742,3.0793,-4.0207,7.61,-0.018937,0.020464,-0.0039706
0.1145,3.0989,-4.0796,7.61,-0.02474,0.014966,-0.0064141
0.1376,3.0989,-4.1384,7.61,-0.026573,0.0061087,-0.0058032
0.15134,3.0204,-4.1776,7.61,-0.025045,0.0061087,-0.0058032
0.16562,3.0597,-4.158,7.5903,-0.025656,0.011301,-0.0058032
0.18994,3.0793,-4.0796,7.61,-0.026878,0.0094684,-0.0039706
0.19748,3.1185,-4.0207,7.61,-0.026573,0.0067195,-0.0042761
0.20767,2.8635,-4.0796,7.6296,-0.025962,0.0079412,-0.0036652
0.23181,3.2166,-4.158,7.61,-0.022602,0.0097738,-0.0045815
0.23495,3.0008,-4.0992,7.5511,-0.023213,0.016493,-0.0058032
0.26163,2.9224,-4.1384,7.4531,-0.029322,0.012217,-0.0061087
0.28656,3.1185,-4.2953,7.61,-0.031154,0.011606,-0.0064141
0.31445,3.0008,-4.1776,7.5511,-0.029627,0.011301,-0.0076358
0.31332,3.0793,-4.1972,7.5511,-0.02474,0.0088575,-0.0067195
0.31619,3.1577,-4.2953,7.5511,-0.017104,0.0097738,-0.0061087
0.29953,2.9224,-4.0207,7.6492,-0.011606,0.01405,-0.0073304
0.29416,3.0597,-4.0207,7.61,-0.0088575,0.017715,-0.0082467
0.28787,3.0793,-4.158,7.61,-0.025656,0.01741,-0.011606
0.27914,2.942,-4.158,7.6492,-0.023213,0.015577,-0.013744
0.26602,3.0008,-4.0796,7.61,-0.019242,0.012217,-0.0073304
0.25528,3.0597,-4.0403,7.61,-0.016799,0.011606,-0.0079412
0.24973,3.0793,-4.06,7.61,-0.014966,0.013744,-0.0088575
0.24255,3.0989,-4.0403,7.61,-0.01405,0.014355,-0.0039706
0.242,2.9616,-4.1776,7.4923,-0.013134,0.011301,-0.0030543
0.2323,3.0008,-4.2365,7.61,-0.019853,0.0079412,-0.0067195
0.2337,3.1774,-4.0796,7.5511,-0.011301,0.010385,-0.0061087
0.22858,3.1577,-4.0796,7.5511,-0.019242,0.016188,-0.0067195
0.22018,2.9224,-4.0207,7.6884,-0.0281,0.016799,-0.011301
0.21597,3.1774,-4.158,7.5511,-0.032376,0.011912,-0.0061087
0.20807,2.9224,-4.1384,7.6884,-0.03146,0.0067195,-0.0061087
0.20206,3.0793,-4.158,7.61,-0.029016,0.0036652,-0.0067195
0.19742,3.1774,-4.0796,7.5903,-0.010385,0.0039706,-0.0051924
0.18323,3.0008,-4.0796,7.61,-0.0094684,0.0076358,-0.0058032
0.17365,3.0989,-4.0992,7.61,-0.013439,0.012523,-0.0082467
0.16663,3.1185,-4.0796,7.5903,-0.013744,0.012217,-0.007025
0.15091,2.9224,-4.0207,7.5511,-0.018021,0.012217,-0.0030543
0.13782,3.0008,-4.158,7.5511,-0.019853,0.011912,0.00030543
0.11667,3.0989,-4.0796,7.61,-0.018937,0.0094684,-0.0033598
0.10095,3.0008,-4.158,7.61,-0.016493,0.0094684,-0.0054978
0.089355,3.2166,-4.1384,7.4923,-0.022907,0.0085521,-0.0061087
0.077484,3.0793,-4.0796,7.5511,-0.01405,0.011606,-0.0079412
0.065613,3.0989,-4.0403,7.6492,-0.014661,0.013439,-0.010996
0.086914,2.9028,-4.4522,7.6492,-0.018631,0.007025,-0.0079412
0.11951,3.0989,-4.0403,7.5903,-0.022907,0.0082467,-0.0033598
0.13947,2.9616,-4.158,7.6884,-0.023824,0.011606,-0.0048869
0.16492,2.9616,-4.158,7.61,-0.020159,0.014661,-0.0048869
0.19568,3.1774,-4.0796,7.61,-0.019548,0.015272,-0.0058032
0.22095,2.9224,-4.0992,7.61,-0.01741,0.01741,-0.0094684
0.23068,3.1774,-4.2365,7.4727,-0.01741,0.018631,-0.012217
0.25781,3.0008,-4.1776,7.6492,-0.021075,0.018937,-0.0094684
0.27264,3.0008,-4.158,7.4923,-0.025351,0.020159,-0.0073304
0.29257,3.0793,-4.0992,7.5511,-0.026267,0.017104,-0.0058032
0.30054,3.0597,-4.0992,7.4923,-0.018937,0.016799,-0.0088575
0.29343,2.9616,-4.2561,7.4334,-0.0058032,0.01741,-0.011606
0.28464,3.0597,-4.2561,7.5511,0.007025,0.021991,-0.01405
0.30905,3.2166,-4.1384,7.4727,0.011912,0.026878,-0.012217
0.29349,3.1577,-4.0796,7.5903,0.0012217,0.025045,-0.01069
0.30038,2.8635,-4.0403,7.6492,-0.014661,0.019242,-0.0085521
0.29605,3.2362,-4.1972,7.5511,-0.032681,0.0088575,-0.007025
0.29541,3.0008,-4.1776,7.4531,-0.047953,0.0036652,-0.0054978
0.29443,3.0008,-4.1972,7.61,-0.051618,0.00061087,-0.0042761
0.27563,3.0008,-4.158,7.5903,-0.044593,0.0009163,-0.0033598
0.26981,3.1774,-4.0992,7.4923,-0.031154,0.0058032,-0.0058032
0.2713,3.2362,-4.2561,7.5511,-0.018021,0.011301,-0.0085521
0.26868,3.0793,-4.1384,7.5511,-0.0051924,0.015272,-0.0073304
0.25958,2.9224,-4.0992,7.5511,-0.036346,0.0009163,0.0015272
0.24591,3.0008,-4.0207,7.6296,-0.029932,0.0036652,-0.00030543
0.23074,3.1774,-4.0403,7.5903,-0.026878,0.0079412,0.0036652
0.21307,3.0008,-4.158,7.4923,-0.023213,0.010385,0.0009163
0.19507,3.0989,-4.2561,7.4923,-0.019853,0.012523,0.00030543
0.18182,3.1577,-4.1972,7.5511,-0.019242,0.014355,0.00030543
0.16843,2.9616,-4.0403,7.4727,-0.015272,0.016493,-0.0012217
0.14072,3.0204,-4.0992,7.61,-0.013439,0.017104,-0.00061087
0.14056,3.1774,-4.3934,7.5511,0.0064141,0.0079412,0.023213
0.14417,3.0793,-4.2561,7.5315,0.017715,0.025351,0.018937
0.1424,3.0008,-4.0796,7.5511,0.031765,0.033903,-0.0076358
0.14703,3.1774,-4.2561,7.5511,0.040928,0.040317,-0.0018326
0.14526,3.0793,-4.2561,7.7473,0.027184,0.0562,0.0042761
0.11887,3.0793,-4.158,7.61,0.00030543,0.07025,0.01069
0.1109,3.0989,-4.158,7.3746,-0.028711,0.067501,0.021075
0.089294,2.9616,-4.158,7.3158,-0.0076358,0.054672,0.027794
0.067566,2.9224,-4.1188,7.3158,-0.029932,0.040317,0.0027489
0.033234,2.9224,-4.0992,7.4531,-0.043677,0.0281,0.0015272
0.0083923,3.0204,-4.1384,7.3942,-0.051618,0.018937,0.023518
-0.020813,3.2362,-4.3542,7.4531,-0.047647,0.0045815,0.027184
-0.032318,3.0008,-4.2561,7.6492,-0.033598,-0.002138,0.018021
-0.038513,3.1774,-4.3934,8.0022,-0.02138,0.0036652,0.0012217
-0.031586,3.2558,-4.1776,7.5511,-0.022602,0.015272,-0.0061087
-0.02887,2.9028,-3.8638,7.2961,-0.026878,0.02138,-0.0015272
-0.026459,2.8047,-3.9423,7.4531,-0.018021,0.023518,0.0009163
-0.013214,2.942,-4.2953,7.4531,-0.019242,0.022297,0.00030543
-0.011658,3.0793,-4.2953,7.5511,-0.018326,0.023213,0.0018326
-0.0032654,3.2558,-4.158,7.4334,-0.017715,0.025045,0.0054978
-0.0010986,2.8635,-4.0207,7.3746,-0.025045,0.021991,0.0054978
0.0074768,2.942,-4.0403,7.1785,-0.034514,0.014355,0.0009163
0.021484,2.942,-4.0796,7.4531,-0.037568,0.0088575,-0.0033598
0.02887,3.1774,-4.3345,7.8649,-0.032987,0.009163,-0.0054978
0.032928,2.9224,-4.2561,7.9434,0.026573,0.015577,-0.0076358
0.064636,3.0793,-4.2953,7.61,0.042455,0.028405,-0.0094684
0.082977,3.2558,-4.0796,7.3354,0.021991,0.020769,-0.020769
0.087585,3.0793,-4.158,7.3746,-0.017104,0.0048869,-0.015577
0.11136,2.9224,-4.1776,7.6492,-0.05284,-0.007025,-0.014355
0.12506,3.1774,-4.2561,7.61,-0.071166,-0.011912,-0.014966
0.14664,3.0204,-4.0796,7.61,-0.067806,-0.012523,-0.010385
0.1586,3.0008,-4.2953,7.6296,-0.052534,-0.0067195,-0.0067195
0.17429,3.1185,-4.3345,7.5511,-0.037874,0.0076358,-0.0009163
0.20538,3.0989,-4.6287,7.61,-0.022297,0.015882,-0.0088575
0.21988,3.1774,-4.3345,7.4923,-0.014966,0.018326,-0.0061087
0.23474,3.0989,-4.0796,7.6296,-0.009163,0.015272,-0.0033598
0.25375,3.0793,-4.0992,7.4727,-0.0030543,0.014966,-0.0027489
0.25748,3.0793,-4.2561,7.4727,-0.0073304,0.01741,-0.007025
0.26178,3.0793,-4.2953,7.4923,-0.027794,0.014661,-0.0054978
0.26987,3.0989,-4.158,7.5511,-0.049786,0.0054978,0.0012217
0.27426,3.1185,-4.0207,7.61,-0.0562,-0.0048869,-0.0085521
0.27054,3.0204,-4.0796,7.5511,-0.04215,-0.0058032,-0.0085521
0.26917,2.9616,-4.1776,7.4531,-0.023213,0.0051924,-0.010079
0.26294,3.0008,-4.3345,7.3746,-0.013134,0.015272,-0.0054978
0.26996,3.2166,-4.2561,7.61,-0.016188,0.020769,-0.0018326
0.27441,3.0989,-4.0796,7.5511,-0.026878,0.018937,-0.00030543
0.26199,3.0989,-4.0992,7.5511,-0.034819,0.014355,-0.0015272
0.26025,2.8635,-4.1776,7.61,-0.03543,0.013134,-0.0051924
0.25662,3.1774,-4.158,7.5511,-0.011301,0.019242,-0.0042761
0.25677,2.9224,-4.158,7.61,-0.025962,0.014966,-0.0051924
0.25024,2.9224,-4.2365,7.6296,-0.03207,0.013134,-0.0048869
0.24719,3.1185,-4.158,7.5511,-0.032987,0.012828,-0.0079412
0.23825,2.9616,-4.2365,7.3746,-0.026878,0.012217,-0.0076358
0.22455,3.0793,-4.1972,7.4923,-0.020464,0.013134,-0.0027489
0.23099,3.2166,-4.2561,7.5511,-0.019242,0.014966,-0.0027489
0.23132,3.1774,-4.2561,7.5511,-0.018021,0.014966,-0.0036652
0.24316,2.9028,-4.1384,7.6296,-0.013744,0.014661,-0.0027489
0.25385,3.1185,-4.158,7.4923,-0.015882,0.012217,-0.0054978
0.259,2.9616,-4.158,7.4727,-0.020769,0.011912,-0.0045815
0.27124,2.9616,-4.3149,7.5511,-0.026878,0.010079,-0.0027489
0.27069,3.1185,-4.2953,7.4531,-0.036346,0.0076358,-0.0018326
0.28842,3.0597,-4.2561,7.4923,-0.04612,0.0036652,-0.00061087
0.29196,3.0989,-4.2561,7.4923,-0.051924,0.0024435,-0.00030543
0.26355,3.1774,-4.1776,7.4531,-0.050091,0.0045815,-0.0015272
0.30737,3.1185,-4.2561,7.61,-0.043371,0.030849,0.0042761
0.33365,2.9028,-4.0403,7.61,-0.043982,0.018021,0.0009163
0.35034,3.1185,-4.1972,7.5511,-0.041233,0.0079412,0.0073304
0.36215,3.0793,-4.2953,7.4531,-0.040623,0.0042761,0.0036652
0.36795,3.0793,-4.3345,7.4531,-0.03879,0.0064141,0.0064141
0.3602,3.2166,-4.4718,7.4531,-0.03543,0.0094684,0.007025
0.36261,3.0597,-4.158,7.4727,-0.0094684,0.012523,0.0061087
0.37543,3.0008,-4.1776,7.4531,-0.030238,0.014661,0.0054978
0.36041,3.0989,-4.158,7.5903,-0.014966,0.016799,-0.014966
0.35654,3.0204,-4.2561,7.4727,-0.012828,0.021991,-0.013744
0.3511,3.1774,-4.1972,7.5315,-0.012217,0.019548,-0.0054978
0.34656,3.0793,-4.3345,7.4531,-0.015577,0.015272,-0.0051924
0.34366,3.1774,-4.1776,7.5511,-0.02474,0.01069,-0.0064141
0.34158,2.9224,-4.158,7.5903,-0.037568,0.0015272,-0.0079412
0.33472,2.9616,-4.1972,7.4531,-0.04215,-0.0048869,-0.009163
0.32501,3.0008,-4.2953,7.6296,-0.036041,-0.0067195,-0.012828
0.31317,3.2362,-4.3345,7.5903,-0.020464,-0.0045815,-0.020159
0.29993,2.9616,-4.2561,7.4334,-0.031154,-0.0058032,-0.016493
0.27771,3.0793,-4.2561,7.4531,-0.044593,-0.0039706,-0.013439
0.25769,2.9028,-4.1776,7.5511,-0.052229,-0.0054978,-0.015272
0.23718,2.942,-4.3345,7.4531,-0.048564,-0.0097738,-0.01405
0.21112,3.0597,-4.2561,7.3354,-0.036346,-0.011301,-0.013134
0.17871,3.0597,-4.1776,7.3746,-0.025962,-0.007025,-0.015577
0.14697,2.8047,-4.1972,7.5511,-0.019242,0.0015272,-0.02138
0.11685,3.0008,-4.158,7.4531,-0.0045815,0.012217,0.0082467
0.090088,3.0008,-4.0796,7.5511,-0.0039706,0.02138,0.012828
0.058899,3.1577,-4.2953,7.6296,-0.0039706,0.02474,-0.014355
0.041351,2.9616,-4.2953,7.4727,-0.00061087,0.027794,-0.011301
0.017212,3.0597,-4.3149,7.3354,0.0067195,0.028405,-0.010385
0.0084534,3.1185,-4.1972,7.4923,0.0064141,0.029322,-0.009163
-0.0019531,3.1774,-4.3149,7.5511,-0.02138,0.03543,-0.0048869
-0.003479,2.9224,-4.2561,7.5511,-0.010996,0.039401,0.00030543
-0.019928,3.0989,-4.1384,7.5315,-0.063225,0.0027489,-0.010385
-0.0069275,3.0793,-4.5699,7.61,-0.052229,0.0082467,-0.014355
0.017181,3.0204,-4.3345,7.4923,-0.036041,0.012217,-0.010996
0.011902,3.1774,-4.4522,7.3746,-0.017104,0.017104,-0.010385
0.028931,3.0597,-4.158,7.4334,0.0018326,0.024435,-0.011301
0.03479,3.0793,-4.2561,7.5315,0.01741,0.033292,-0.011301
0.056702,3.2166,-4.4914,7.3942,0.019853,0.036957,-0.0085521
0.058167,3.1185,-4.4522,7.3354,0.012217,0.033598,-0.0079412
0.05304,2.9616,-4.0992,7.61,0.0018326,0.029932,-0.022602
0.055908,3.0008,-3.9423,7.7669,-0.0073304,0.025656,-0.015882
0.047791,2.942,-4.0207,7.5511,-0.0039706,0.025351,-0.01741
0.04187,3.0008,-4.3345,7.5511,0.0088575,0.03146,-0.025656
0.035004,3.0008,-4.3934,7.3158,0.023213,0.040317,-0.028711
0.018066,3.1774,-4.3345,7.4727,0.034208,0.047037,-0.027489
0.015015,3.2558,-4.2561,7.5315,0.03207,0.046426,-0.02474
0.014191,2.9224,-4.158,7.5315,0.019853,0.040012,-0.02474
0.014465,3.1774,-4.3934,7.4727,-0.016799,0.027184,0.027794
0.026123,3.1774,-4.3345,7.4727,-0.043677,0.012828,0.029016
0.043091,3.0008,-4.1972,7.4923,-0.078496,-0.00061087,-0.0061087
0.048615,3.0793,-3.9423,7.5903,-0.10507,-0.016799,0.0058032
0.066132,3.0008,-3.9227,7.6884,-0.1179,-0.027794,0.011912
0.088989,2.9616,-3.8834,7.7865,-0.11942,-0.032681,0.017104
0.10849,3.0597,-4.0403,7.61,-0.11332,-0.03543,0.026267
0.12781,2.9616,-4.3149,7.3942,-0.1066,-0.036652,0.029322
0.15405,3.0008,-4.3345,7.4923,-0.09896,-0.035736,-0.011606
0.16901,3.3146,-4.413,7.4334,-0.082467,-0.036957,-0.010385
0.1799,3.1774,-4.4914,7.2373,-0.063225,-0.033903,0.024435
0.18466,3.3146,-4.3345,7.3746,-0.053451,-0.024435,0.015882
0.18735,3.1577,-4.2561,7.3746,-0.044899,-0.014661,0.011606
0.18951,3.0597,-4.2365,7.4531,-0.03543,-0.007025,0.0045815
0.19501,3.0793,-4.3934,7.5511,-0.023824,0.0033598,-0.0076358
0.18884,3.2166,-4.1384,7.5511,-0.0094684,0.015577,-0.01405
0.18326,3.2362,-4.1972,7.4531,-0.025962,0.015577,-0.0073304
0.19525,2.9028,-4.2953,7.4727,-0.02474,0.019242,-0.0064141
0.20627,3.0793,-4.3345,7.3746,-0.023213,0.015882,-0.0061087
0.21399,3.0008,-4.3345,7.5511,-0.024435,0.013439,-0.0061087
0.20834,3.1185,-4.2953,7.4727,-0.026878,0.013439,-0.0058032
0.20044,2.9616,-4.3345,7.3942,-0.029016,0.011912,-0.0051924
0.19458,3.0597,-4.3149,7.3158,-0.03146,0.011301,-0.007025
0.19336,3.2166,-4.2365,7.4531,-0.032987,0.010996,-0.0079412
0.18283,3.2362,-4.3149,7.4531,-0.021686,0.011606,-0.0009163
0.17578,3.2558,-4.2561,7.5511,-0.011301,0.012828,-0.0030543
0.17688,3.2362,-4.2561,7.4531,-0.0067195,0.020464,-0.0033598
0.15039,2.9224,-4.1776,7.5511,-0.012828,0.023518,0.0015272
0.142,3.0597,-4.2561,7.4531,-0.02138,0.023213,0.0048869
0.13873,3.0008,-4.3542,7.5511,-0.024129,0.022602,0.0036652
0.13,3.2362,-4.2561,7.5511,-0.031154,0.018937,0.0033598
0.12421,3.1774,-4.2561,7.5511,-0.0281,0.016188,0.0009163
0.12433,3.1774,-4.3149,7.5511,-0.010996,0.014355,-0.0051924
0.1275,2.8635,-4.2365,7.5511,-0.017104,0.015882,-0.0051924
0.13757,3.0008,-4.2561,7.4334,-0.022907,0.018937,-0.0042761
0.14212,3.0793,-4.3345,7.4531,-0.022907,0.017715,-0.00030543
0.15747,3.0008,-4.4718,7.5511,-0.018326,0.013134,-0.0015272
0.15021,3.1577,-4.2561,7.4531,-0.015882,0.01069,-0.0076358
0.14221,3.0008,-4.1776,7.4531,-0.019853,0.010385,-0.011606
0.12024,3.1185,-4.3149,7.4531,-0.010996,0.013439,-0.009163
0.10092,3.0793,-4.3345,7.4531,-0.015272,0.014661,-0.0085521
0.076508,3.0008,-4.3542,7.4923,-0.016493,0.016799,-0.0073304
0.052826,3.0793,-4.3345,7.4727,-0.018326,0.016188,-0.007025
0.030334,3.1774,-4.2561,7.4334,-0.015272,0.015272,-0.0085521
0.009491,3.1774,-4.2953,7.4334,-0.015577,0.01405,-0.009163
0.010742,2.9224,-4.2953,7.4727,-0.015577,0.01405,-0.0088575
0.011444,3.1774,-4.3345,7.4531,-0.015882,0.014966,-0.0094684
0.013916,2.942,-4.2953,7.4334,-0.015272,0.015577,-0.0097738
0.0099487,3.0204,-4.3345,7.4727,-0.032681,0.021686,-0.0088575
0.040344,2.7851,-4.6091,7.6296,-0.030238,0.022602,-0.0088575
0.071136,3.0793,-4.3345,7.4531,-0.021991,0.022602,0.0058032
0.081665,2.9224,-4.1972,7.5511,-0.017715,0.022297,0.0039706
0.10648,3.0793,-4.3345,7.4531,-0.022602,0.020464,-0.00030543
0.11044,2.9224,-4.3345,7.3158,-0.025351,0.016799,-0.00061087
0.12329,3.1774,-4.1972,7.4727,-0.019853,0.015272,-0.0024435
0.12561,3.2166,-4.2561,7.61,-0.011606,0.016493,-0.007025
0.12262,3.1774,-4.1972,7.4531,-0.0085521,0.01741,-0.009163
0.11667,2.942,-4.2561,7.4727,-0.013439,0.013134,-0.0088575
0.12408,3.0793,-4.2953,7.4531,-0.023518,0.011606,-0.009163
0.12595,2.9224,-4.3345,7.5511,-0.027794,0.0085521,-0.0061087
0.12137,3.1774,-4.2561,7.5511,-0.024435,0.0073304,-0.0039706
0.11935,3.1774,-4.2365,7.4531,-0.020159,0.0094684,-0.007025
0.10959,2.8635,-4.2561,7.4923,-0.013439,0.01069,-0.007025
0.10706,3.0204,-4.3934,7.3354,-0.010079,0.012828,-0.0073304
0.10248,2.9616,-4.2953,7.5511,-0.016188,0.015882,-0.0088575
0.089966,3.1577,-4.3149,7.3942,-0.023213,0.017715,-0.0085521
0.075439,2.9028,-4.2953,7.4923,-0.023824,0.014355,-0.0094684
0.029114,2.9616,-4.2953,7.4531,-0.02138,0.01069,-0.0094684
0.0014954,2.9224,-4.2953,7.5511,-0.018021,0.012217,-0.010996
-0.047668,3.0989,-4.3345,7.3746,-0.011912,0.015272,-0.012828
-0.082245,2.9028,-4.2561,7.5903,-0.0073304,0.017104,-0.011912
-0.11557,2.942,-4.3934,7.5511,-0.0073304,0.018021,-0.010079
-0.1524,3.1185,-4.3934,7.4727,-0.017104,0.015882,-0.0048869
-0.16995,3.2362,-4.2561,7.3942,-0.018021,0.01741,0.0018326
-0.18384,3.1774,-4.2561,7.4531,-0.021075,0.014355,-0.0064141
-0.20349,3.0793,-4.2561,7.3942,-0.022907,0.013134,-0.0079412
-0.20544,3.0793,-4.3345,7.4531,-0.024435,0.013439,-0.0085521
-0.19534,3.1774,-4.3542,7.4923,-0.022602,0.016493,-0.0082467
-0.18643,3.0597,-4.3542,7.4923,-0.021075,0.018631,-0.0064141
-0.16821,2.9224,-4.3738,7.5903,-0.022297,0.019853,-0.007025
-0.14325,3.2166,-4.2561,7.4334,-0.014661,0.016188,-0.007025
-0.11667,3.1774,-4.3345,7.4727,-0.018631,0.01405,-0.0076358
-0.069641,3.1774,-4.3345,7.4531,-0.022907,0.011606,-0.0073304
-0.036102,2.8047,-4.2561,7.5315,-0.024129,0.01069,-0.007025
-0.021393,3.1774,-4.1776,7.4923,-0.023824,0.010079,-0.0058032
-0.0031433,3.0597,-4.2561,7.4531,-0.018937,0.0094684,-0.0067195
0.010986,3.0008,-4.3149,7.3746,-0.011912,0.0097738,-0.0073304
0.020355,3.0008,-4.3542,7.3158,-0.012217,0.012217,-0.0079412
0.03302,3.1774,-4.2561,7.4531,-0.010079,0.014966,-0.0054978
0.051544,3.0793,-4.2561,7.4334,-0.011606,0.016799,-0.0076358
0.047211,3.0793,-4.2953,7.4531,-0.012217,0.016799,-0.010385
0.049255,3.0008,-4.3345,7.5315,-0.016188,0.016493,-0.0097738
0.06192,3.0989,-4.3345,7.4923,-0.021686,0.015882,-0.0073304
0.060852,3.1774,-4.1972,7.4531,-0.025351,0.014966,-0.0051924
0.086639,3.1774,-4.2365,7.4531,-0.014966,0.013744,-0.0051924
0.080109,2.9616,-4.2561,7.5511,-0.011912,0.011301,-0.0042761
0.07843,3.1185,-4.3934,7.3746,-0.022297,0.0094684,-0.009163
0.052368,3.0008,-4.3345,7.3354,-0.018631,0.0088575,-0.0082467
0.074127,3.0793,-4.3542,7.4531,-0.017715,0.012828,-0.0079412
0.072021,3.1774,-4.3149,7.4727,-0.016493,0.015882,-0.0073304
0.071442,3.1185,-4.2953,7.4334,-0.018021,0.015577,-0.0064141
0.066193,3.1774,-4.2561,7.4923,-0.021686,0.013134,-0.0064141
0.056976,2.9028,-4.1972,7.5511,-0.022297,0.011912,-0.0073304
0.050232,3.0597,-4.3542,7.4334,-0.02138,0.013439,-0.0085521
0.047791,3.1774,-4.2561,7.3942,-0.016493,0.017715,-0.009163
0.032227,3.0793,-4.2953,7.4334,-0.013134,0.021075,-0.0073304
0.023926,3.0008,-4.3345,7.4531,-0.014355,0.016799,-0.0082467
0.0075378,3.1185,-4.2561,7.4531,-0.015577,0.014966,-0.0085521
-0.010376,3.1774,-4.2561,7.4531,-0.017715,0.01405,-0.0079412
-0.016754,3.1774,-4.3934,7.3746,-0.018937,0.012217,-0.0067195
-0.021301,3.0989,-4.3149,7.4531,-0.018021,0.012523,-0.007025
-0.030243,3.0008,-4.3345,7.5315,-0.016188,0.014966,-0.0094684
-0.0448,3.0793,-4.3542,7.4727,0.0033598,0.013439,-0.016493
-0.03717,3.0793,-4.5111,7.5511,0.010996,0.01741,-0.012828
-0.025604,3.0008,-4.3149,7.3746,0.0079412,0.019853,-0.013134
-0.037476,3.0008,-4.3934,7.4727,-0.0051924,0.01741,-0.012828
-0.030548,3.1774,-4.4914,7.4531,-0.01741,0.0061087,-0.010385
-0.047058,3.2558,-4.2953,7.5315,-0.01069,0.0097738,-0.010996
-0.039703,2.9224,-4.2953,7.5315,-0.0048869,0.027794,-0.020464
-0.033813,3.1774,-4.3149,7.4531,-0.012828,0.037568,-0.021686
-0.029022,3.1774,-4.4718,7.3354,-0.014966,0.033292,-0.01069
-0.034393,3.0597,-4.3542,7.5511,-0.014661,0.028711,-0.0073304
-0.019501,3.0597,-4.3934,7.4531,-0.0042761,0.023213,-0.0042761
-0.0093994,3.2166,-4.2561,7.4531,0.00030543,0.019853,0.002138
0.0097046,2.9224,-4.2561,7.4531,-0.0027489,0.019242,0.0076358
0.014832,3.1774,-4.3345,7.3746,-0.015577,0.016799,0.0009163
0.02478,3.1774,-4.3345,7.4923,-0.041539,0.0061087,-0.0073304
0.03418,3.0793,-4.3345,7.4727,-0.065363,-0.0054978,-0.0079412
0.042938,2.9616,-4.2365,7.3354,-0.009163,0.015882,-0.0058032
0.053345,3.2166,-4.3934,7.3158,-0.013439,0.015272,-0.0067195
0.042969,3.2558,-4.5699,7.3746,-0.020159,0.012217,-0.0051924
0.045563,3.1774,-4.3345,7.4531,-0.025351,0.0082467,-0.002138
0.054657,3.2166,-4.3149,7.4923,-0.027794,0.0064141,-0.0012217
0.049286,2.9224,-4.3934,7.5511,-0.026267,0.0085521,-0.0024435
0.051758,2.9616,-4.3345,7.2961,-0.022602,0.012217,-0.0048869
0.055237,3.2362,-4.3542,7.4334,-0.01741,0.014661,-0.007025
0.048401,3.2166,-4.3542,7.4923,-0.010385,0.01741,-0.0097738
0.053284,2.9224,-4.2365,7.6492,-0.0082467,0.020464,-0.013134
0.030579,3.0793,-4.1972,7.4531,-0.010079,0.020769,-0.0085521
0.028717,3.2558,-4.3345,7.0608,-0.014355,0.017104,-0.0079412
0.013428,2.9028,-4.3345,7.4727,-0.020159,0.013134,-0.0064141
0.014282,3.2362,-4.5699,7.6884,-0.022602,0.012523,-0.0058032
0.01004,3.0793,-4.1776,7.4923,-0.021686,0.011301,-0.0061087
0.0089111,2.9616,-4.1384,7.3746,-0.013744,0.009163,-0.0079412
0.0016785,2.8635,-4.3345,7.4531,-0.016799,0.017104,-0.0048869
-0.0024109,3.1774,-4.4914,7.3746,-0.024129,0.017715,-0.0042761
0.0098267,3.0989,-4.3345,7.4531,-0.026267,0.014355,-0.0064141
0.023956,3.0793,-4.2561,7.4334,-0.02138,0.011912,-0.0061087
0.020081,2.9224,-4.2953,7.3354,-0.015882,0.012828,-0.0073304
0.016998,3.0008,-4.2953,7.4531,-0.01069,0.012828,-0.0073304
0.0027466,3.1577,-4.3934,7.3746,-0.0097738,0.014661,-0.0064141
-0.0064087,3.0597,-4.2953,7.4334,-0.010385,0.01741,-0.0045815
-0.0089417,3.1774,-4.5503,7.4334,-0.031765,0.0085521,-0.0054978
-0.025208,3.0989,-4.4522,7.4334,-0.025962,0.0076358,-0.0042761
-0.028046,3.0008,-4.2561,7.4531,-0.021686,0.011912,-0.0051924
-0.030182,3.1774,-4.3345,7.4334,-0.015272,0.016493,-0.0054978
-0.048981,2.7851,-4.2561,7.4923,-0.013439,0.017715,-0.0067195
-0.042267,3.1185,-4.2561,7.4531,-0.015272,0.016493,-0.0064141
-0.059357,3.0597,-4.2561,7.4531,-0.016188,0.016188,-0.0058032
-0.054474,3.0597,-4.3934,7.4531,-0.018631,0.014966,-0.0058032
-0.075775,3.2166,-4.4914,7.4531,-0.023213,0.015272,-0.0076358
-0.098328,3.0008,-4.2561,7.4727,-0.02474,0.017715,-0.007025
-0.098236,3.1774,-4.3345,7.4531,-0.024129,0.015272,-0.0045815
-0.080627,3.1774,-4.3345,7.4531,-0.018326,0.012523,-0.0064141
-0.075134,3.1774,-4.3345,7.4334,-0.013439,0.012523,-0.007025
-0.057159,3.2166,-4.2953,7.4334,-0.010996,0.012828,-0.0085521
-0.044037,3.0793,-4.2561,7.4334,-0.020159,0.014661,-0.0085521
-0.032959,2.8635,-4.2561,7.4923,-0.021991,0.015882,-0.007025
-0.028259,3.0204,-4.3934,7.3354,-0.015272,0.015577,-0.0048869
-0.021729,3.2166,-4.1972,7.4334,-0.019548,0.011912,-0.0051924
-0.0089722,3.0793,-4.2561,7.3746,-0.022602,0.012217,-0.0061087
-0.0065918,3.1774,-4.3345,7.4727,-0.020464,0.011606,-0.0042761
0.0016479,3.0008,-4.2561,7.4334,-0.014355,0.010385,-0.0039706
0.0042419,3.1774,-4.3934,7.3746,-0.010385,0.011912,-0.0045815
0.016632,3.0597,-4.3934,7.2961,-0.010079,0.015577,-0.0045815
0.025299,3.0597,-4.3934,7.4531,-0.011301,0.016493,-0.0054978
0.033386,3.2166,-4.1776,7.4334,-0.019548,0.013439,-0.0058032
0.035431,2.9224,-4.5699,7.5903,-0.019548,0.011606,-0.0054978
0.07547,3.0793,-4.3149,7.4531,-0.01741,0.014966,-0.0045815
0.077087,2.9028,-4.3345,7.5315,-0.013134,0.018631,-0.0058032
0.07605,3.1774,-4.2561,7.3942,-0.010079,0.019853,-0.0067195
0.094818,2.9224,-4.2561,7.4334,-0.013439,0.018937,-0.0073304
0.091492,3.1185,-4.2561,7.4531,-0.016493,0.015882,-0.0064141
0.085815,2.8635,-4.2953,7.5315,-0.019242,0.013134,-0.0058032
0.09137,3.1577,-4.3345,7.4531,-0.020159,0.012523,-0.0076358
0.093292,3.1774,-4.1972,7.4727,-0.016799,0.014966,-0.0082467
0.091248,2.9616,-4.3345,7.4923,-0.013744,0.017104,-0.0067195
0.079651,3.0597,-4.3345,7.3354,-0.01405,0.018326,-0.007025
0.071472,3.0793,-4.2561,7.4531,-0.015882,0.018631,-0.0082467
0.068604,3.0008,-4.3934,7.4923,-0.017715,0.018021,-0.0088575
0.064484,3.2362,-4.2561,7.4334,-0.020464,0.015272,-0.0085521
0.051056,3.0793,-4.2561,7.4531,-0.022297,0.012828,-0.0073304
0.043549,2.942,-4.3149,7.5511,-0.026267,0.013439,-0.0067195
0.02774,3.0793,-4.3345,7.4334,-0.025045,0.015577,-0.0067195
0.015686,3.1774,-4.3345,7.4334,-0.023213,0.015577,-0.0082467
0.018463,3.0597,-4.3542,7.3746,-0.021075,0.016493,-0.0079412
0.011078,3.0204,-4.3542,7.4531,-0.018631,0.016493,-0.0085521
0.0097046,3.1774,-4.2561,7.3942,-0.016493,0.015272,-0.0076358
0.00088501,2.9224,-4.2561,7.4531,-0.013439,0.016188,-0.0064141
-0.019073,3.0008,-4.3345,7.3746,-0.012828,0.018021,-0.0064141
-0.023254,3.0989,-4.3345,7.4531,-0.014355,0.017104,-0.0076358
-0.033844,3.1774,-4.3345,7.4727,-0.01741,0.012217,-0.0076358
-0.037567,3.1185,-4.3149,7.4531,-0.023213,0.010996,-0.0045815
-0.063019,3.1774,-4.4914,7.4334,-0.026878,0.010079,-0.0039706
-0.072784,3.2166,-4.3542,7.3746,-0.026573,0.01069,-0.0033598
-0.075897,3.1774,-4.4522,7.3942,-0.019853,0.012217,-0.0042761
-0.082489,3.0793,-4.3542,7.3354,-0.011301,0.015272,-0.0036652
-0.081177,3.2362,-4.3345,7.5903,-0.009163,0.017715,-0.0064141
-0.075409,3.0008,-4.1776,7.2961,-0.017715,0.013439,-0.0039706
-0.050415,2.9224,-4.2953,7.5511,-0.010385,0.015272,-0.0054978
-0.016907,3.1774,-4.5699,7.4531,-0.0064141,0.019242,-0.0076358
0.013916,3.2754,-4.3934,7.4531,-0.0064141,0.019853,-0.007025
0.039764,2.9616,-4.2953,7.4531,-0.0082467,0.018631,-0.0061087
0.034637,3.0793,-4.3345,7.3942,-0.013439,0.015882,-0.0061087
0.060394,3.2558,-4.3345,7.4531,-0.020769,0.01405,-0.0054978
0.061981,3.0597,-4.3542,7.5315,-0.029627,0.011301,-0.0045815
0.070313,3.0597,-4.3345,7.4923,-0.031154,0.0082467,-0.012828
0.073547,3.1774,-4.1776,7.4531,-0.020769,0.0094684,-0.015577
0.077423,3.2166,-4.3149,7.4531,-0.010079,0.0085521,-0.0067195
0.080658,3.1185,-4.3345,7.4531,-0.0051924,0.010996,-0.0079412
0.082275,3.0793,-4.3345,7.3746,-0.007025,0.014966,-0.0094684
0.099731,3.0204,-4.3934,7.3158,-0.017104,0.015577,-0.010079
0.095551,3.0008,-4.2561,7.4531,-0.034514,0.013134,-0.011606
0.092926,3.0989,-4.3149,7.3942,-0.035125,0.0054978,-0.012828
0.11136,2.8635,-4.3345,7.5315,-0.035736,-0.0054978,-0.012828
0.11105,3.0597,-4.3345,7.3354,-0.029016,-0.011912,-0.009163
0.11258,2.9616,-4.158,7.4923,-0.026267,-0.007025,-0.018631
0.11023,3.1577,-4.3345,7.3942,-0.024435,-0.0009163,-0.017104
0.11832,3.0597,-4.3934,7.3158,-0.016188,0.0042761,-0.015882
0.11243,3.2166,-4.3542,7.4923,-0.013744,0.0073304,-0.016799
0.1095,2.9616,-4.3149,7.5315,-0.031154,0.013134,-0.014966
0.095215,3.1185,-4.3542,7.5511,-0.037568,0.018631,-0.013744
0.090729,3.0793,-4.3738,7.5315,-0.016799,0.013134,-0.0097738
0.069855,3.2362,-4.4914,7.4531,-0.013134,0.018021,-0.0097738
0.061005,3.2362,-4.3345,7.3354,-0.011301,0.01741,-0.0061087
0.044403,3.0597,-4.3149,7.2373,-0.013439,0.015882,-0.0054978
0.030182,3.1185,-4.3934,7.3746,-0.018937,0.015272,-0.0054978
0.010071,2.9028,-4.3149,7.4531,-0.025351,0.011912,-0.0064141
0.0023193,3.0793,-4.3345,7.3354,-0.027184,0.0088575,-0.0064141
-0.011292,3.1774,-4.158,7.4531,-0.022907,0.010079,-0.0067195
-0.013458,2.942,-4.2953,7.61,-0.029322,0.028711,0.0024435
-0.029755,3.0793,-4.7072,7.61,-0.028711,0.03146,-0.0012217
0.0014038,3.0597,-4.3345,7.3158,-0.025962,0.03207,0.0018326
0.0072021,2.9616,-4.3345,7.4727,-0.019242,0.0281,-0.012828
0.0062561,3.0989,-4.3345,7.4334,-0.016188,0.025656,-0.010996
0.015076,3.0793,-4.3934,7.3746,-0.020769,0.022297,-0.0051924
0.0040283,3.0793,-4.4522,7.4531,-0.040317,0.015577,-0.0027489
-0.002533,3.0008,-4.2953,7.4531,-0.071166,0.0064141,-0.0012217
0.010742,3.2558,-4.3934,7.4531,-0.087659,-0.0085521,-0.0045815
0.012543,3.0793,-4.2953,7.4334,-0.076053,-0.01405,-0.0067195
0.018524,3.1577,-4.2561,7.4531,-0.045815,-0.01069,-0.018021
0.043427,2.9224,-4.2561,7.3746,-0.012217,0.0027489,-0.019242
0.050812,3.0204,-4.3934,7.3158,0.0064141,0.014355,-0.010996
0.06546,3.0597,-4.3345,7.3746,-0.0009163,0.014661,-0.0067195
0.083588,3.1185,-4.3934,7.3942,-0.025962,0.0073304,-0.0012217
0.10123,3.0793,-4.3934,7.5315,-0.053756,-0.0033598,0.0009163
0.12634,3.0793,-4.1776,7.3942,0.0015272,-0.013744,-0.020159
0.14468,3.1774,-4.3149,7.5707,-0.06353,-0.01741,-0.0058032
0.14526,3.2558,-4.3934,7.3158,-0.05681,-0.011606,-0.009163
0.11414,3.0793,-4.4522,7.4334,-0.038179,-0.0054978,-0.012828
0.061951,3.2558,-4.1776,7.4531,-0.025962,0.0094684,-0.0094684
0.015045,2.8635,-4.158,7.5315,-0.020159,0.014966,-0.0045815
-0.0271,3.1185,-4.2561,7.4531,-0.02138,0.013134,-0.0012217
-0.066742,3.1381,-4.6484,7.3746,-0.0088575,0.013439,-0.010996
-0.084106,3.2166,-4.3934,7.3746,-0.019853,0.021075,0.016188
-0.096832,2.9224,-4.3345,7.4727,-0.018326,0.02138,0.016799
-0.090149,3.0008,-4.3149,7.4727,-0.01405,0.024435,-0.0079412
-0.074493,3.0204,-4.2561,7.2961,-0.018937,0.023824,-0.01069
-0.064362,3.0793,-4.4914,7.3158,-0.025351,0.019853,-0.0058032
-0.047882,3.2558,-4.413,7.5511,-0.035736,0.016799,0.0048869
-0.036804,3.2558,-4.3345,7.2961,-0.047037,0.02138,0.010385
-0.026215,3.0793,-4.3345,7.4531,-0.041539,0.023824,0.009163
-0.016479,3.1185,-4.3149,7.5315,-0.041233,0.0042761,-0.0042761
0.01416,3.0793,-4.3345,7.4531,-0.072693,-0.00030543,-0.0097738
0.017151,3.0597,-4.3345,7.3158,-0.097738,-0.011301,0.0039706
0.008728,2.9616,-4.3934,7.4334,-0.094684,-0.025045,0.009163
-0.018585,3.0008,-4.4718,7.3942,-0.071166,-0.025656,-0.00061087
-0.041656,2.9224,-4.3345,7.5903,-0.037568,-0.021991,-0.013744
-0.072205,3.2362,-4.1972,7.4531,0.0018326,-0.013134,-0.007025
-0.092987,2.8047,-4.4914,7.2961,-0.021075,-0.0033598,0.0045815
-0.12305,3.1774,-4.5699,7.3942,-0.037263,0.020769,-0.0088575
-0.15506,3.2166,-4.2953,7.5511,-0.036957,0.015882,0.0061087
-0.18289,2.9028,-4.2561,7.4531,-0.022907,0.0042761,0.0082467
-0.19504,3.0204,-4.3542,7.4531,-0.017715,0.007025,-0.0082467
-0.20593,3.0793,-4.3542,7.3354,-0.017104,0.0076358,-0.027489
-0.22131,3.0204,-4.3934,7.2961,-0.012217,0.0054978,-0.011606
-0.21274,3.2362,-4.3934,7.4531,0.0036652,0.0018326,-0.0048869
-0.21631,2.9224,-4.3345,7.3158,-0.0085521,0.0042761,-0.01069
-0.20511,3.0793,-4.3934,7.3354,-0.029932,0.0018326,-0.0058032
-0.18948,3.2558,-4.5699,7.3158,-0.021991,0.0061087,-0.0048869
-0.16898,3.2558,-4.3934,7.4531,-0.018021,0.0045815,-0.0088575
-0.14868,3.2362,-4.3345,7.4531,-0.016799,0.0039706,-0.010079
-0.11978,2.9224,-4.4914,7.3746,-0.018326,0.0042761,-0.010996
-0.089386,3.2754,-4.5111,7.4531,-0.019548,0.0012217,-0.0079412
-0.059601,3.0597,-4.2953,7.5315,-0.021991,0.00061087,-0.0051924
-0.032288,2.9616,-4.2561,7.3746,-0.021686,0.0039706,-0.0076358
-0.012604,3.2166,-4.3345,7.3158,-0.011606,0.0094684,-0.0082467
-0.0061646,3.2362,-4.4914,7.3746,-0.015272,0.011606,-0.0045815
0.0058899,3.4127,-4.2953,7.2961,-0.021075,0.015882,-0.0042761
0.035889,3.1185,-4.3934,7.61,-0.016799,0.017715,-0.0039706
0.036713,3.2558,-4.3345,7.2373,0.0097738,0.013134,-0.0082467
0.043823,2.8635,-4.3542,7.4923,0.019548,0.0045815,-0.0094684
0.063843,3.2166,-4.6484,7.3158,-0.01741,0.0073304,-0.0054978
0.072205,3.0597,-4.3149,7.3746,-0.012217,0.0067195,-0.0073304
0.071259,3.1774,-4.413,7.3158,-0.012217,0.027794,-0.0039706
0.088898,2.9616,-4.7072,7.5315,-0.0094684,0.032987,-0.0039706
0.083313,3.2558,-4.3345,7.4531,-0.0082467,0.027489,-0.0054978
0.081757,3.2166,-4.6287,7.4727,-0.01405,0.02138,-0.0045815
0.069733,3.1774,-4.3345,7.4334,-0.018326,0.018631,-0.0076358
0.047333,3.2362,-4.3542,7.3746,-0.019853,0.016799,-0.0076358
0.026245,3.0989,-4.4522,7.2961,-0.019242,0.015882,-0.0042761
0.013977,3.2754,-4.4914,7.3158,-0.019242,0.017104,-0.0036652
-0.0015259,3.3146,-4.4914,7.1589,-0.059559,-0.0039706,-0.0015272
-0.012054,3.2362,-4.7072,7.3354,-0.10446,-0.02138,-0.0033598
-0.031464,3.0008,-4.3542,7.6884,-0.13195,-0.034208,-0.014966
-0.056885,3.2166,-4.0403,7.3354,-0.13225,-0.03146,-0.01069
-0.08374,2.8635,-4.1972,7.3354,-0.11698,-0.023518,-0.011301
-0.10931,3.2362,-4.4718,7.3158,-0.097128,-0.012523,-0.012828
-0.12741,3.3146,-4.5111,7.2373,-0.073915,0.0030543,-0.0054978
-0.1366,3.2166,-4.5503,7.0216,-0.048869,0.020159,0.00030543
-0.1586,2.9028,-4.4914,7.2177,-0.036346,0.035125,-0.0061087
-0.17999,3.1774,-4.6876,7.3158,-0.037568,0.041233,-0.0094684
-0.18567,3.2362,-4.5699,7.3746,-0.047037,0.031154,-0.0018326
-0.19061,3.3735,-4.3542,7.2765,-0.058643,0.02138,-0.0048869
-0.20917,2.9616,-4.3542,7.3746,-0.061087,0.018326,-0.01069
-0.21585,3.0793,-4.3934,7.2765,-0.052229,0.02474,-0.013134
-0.22348,3.0793,-4.4914,7.2177,-0.042455,0.03146,-0.011912
-0.24109,3.3146,-4.766,7.2373,-0.039706,0.032376,-0.0073304
-0.25861,3.2558,-4.5699,7.2765,-0.048564,0.031154,-0.010079
-0.26416,3.1185,-4.5699,7.2765,-0.058032,0.028711,-0.0085521
-0.26376,3.1185,-4.7268,7.2765,-0.066584,0.022297,-0.011301
-0.25974,3.2754,-4.3542,7.3158,-0.073915,0.015577,-0.0094684
-0.25424,3.0989,-4.3934,7.3158,-0.073609,0.010996,-0.0079412
-0.26044,3.0793,-4.5699,7.3158,-0.06017,0.010385,-0.0079412
-0.25479,3.2558,-4.413,7.2765,-0.037874,0.012828,-0.0094684
-0.24576,3.3146,-4.4718,7.3158,-0.020769,0.020464,-0.011301
-0.23154,3.0008,-4.4718,7.3942,-0.025045,0.014661,-0.0018326
-0.19318,3.2166,-4.4522,7.2961,-0.025351,0.014966,-0.0048869
-0.15701,3.2558,-4.4914,7.3158,-0.026573,0.013744,-0.0039706
-0.11563,3.2362,-4.4718,7.3158,-0.022907,0.013744,-0.0067195
-0.087311,3.2558,-4.4718,7.2961,-0.019548,0.017715,-0.0073304
-0.06897,3.2362,-4.4914,7.3158,-0.018326,0.020159,-0.0061087
-0.044891,3.0793,-4.4914,7.3158,-0.014966,0.022297,-0.0039706
-0.032104,3.2362,-4.413,7.3158,-0.0094684,0.02474,-0.002138
-0.014496,3.1577,-4.3934,7.2373,-0.0045815,0.027184,-0.007025
0.0031128,3.0204,-4.4718,7.2373,-0.0054978,0.0281,-0.0058032
0.017914,3.0989,-4.4914,7.1589,-0.0054978,0.025656,-0.0024435
0.022247,3.2754,-4.4718,7.3158,-0.0094684,0.021686,-0.002138
0.029205,3.1577,-4.5111,7.2765,-0.01741,0.018021,-0.0051924
0.05127,3.1774,-4.4522,7.2961,-0.019853,0.015577,-0.0054978
0.050903,3.2166,-4.766,7.2765,-0.018326,0.015882,-0.0048869
0.049622,3.1774,-4.5111,7.3158,-0.013439,0.017715,-0.0079412
0.044647,3.2558,-4.3542,7.3158,0.00030543,0.019242,-0.0097738
0.054779,3.2558,-4.4522,7.3158,-0.0079412,0.019853,-0.010385
0.041504,3.0204,-4.4522,7.3158,-0.019548,0.024129,-0.0073304
0.024231,3.0989,-4.4914,7.2765,-0.016799,0.023824,-0.0085521
0.016235,3.1774,-4.4522,7.2765,-0.011301,0.018326,-0.009163
0.010834,3.1185,-4.5503,7.3746,-0.010079,0.016188,-0.0082467
-0.00021362,3.2362,-4.4914,7.3158,-0.0058032,0.018631,-0.007025
-0.0024109,3.1185,-4.4914,7.2961,0.00030543,0.018631,-0.009163
-0.008606,3.0008,-4.5699,7.3746,-0.01069,0.019548,-0.0094684
-0.016937,3.0008,-4.5111,7.1589,-0.012523,0.021991,-0.0097738
-0.024841,3.2166,-4.5503,7.3158,-0.016188,0.019853,-0.011301
-0.03949,3.0989,-4.4914,7.2765,-0.013439,0.016188,-0.0094684
-0.051849,3.2558,-4.6091,7.1589,-0.009163,0.014355,-0.0079412
-0.059021,3.1185,-4.5503,7.2177,-0.0033598,0.013439,-0.009163
-0.076233,3.2166,-4.7072,7.2765,-0.0097738,0.016493,-0.0076358
-0.074646,3.2362,-4.766,7.2765,-0.011606,0.021075,-0.0088575
-0.085724,3.0989,-4.4718,7.3354,0.0064141,0.022297,-0.018937
-0.070679,3.0793,-4.766,7.4531,0.033292,0.03207,-0.014966
-0.05304,3.0793,-4.1972,7.3746,0.036041,0.031765,-0.012828
-0.05838,3.1185,-4.2561,7.5511,0.021991,0.028711,-0.010996
-0.051178,3.0008,-4.413,7.4531,0.0079412,0.029322,-0.010079
-0.061646,3.2362,-4.7072,7.2961,-0.0088575,0.030238,-0.011912
-0.063965,3.2362,-4.5699,7.3354,-0.039401,0.020464,-0.01405
-0.061401,3.0008,-4.4914,7.3746,-0.050702,0.013439,-0.015272
-0.079773,3.1774,-4.4914,7.2961,0.0058032,0.02138,-0.0079412
-0.09317,3.2558,-4.3934,7.3158,0.030543,0.03543,-0.0036652
-0.086823,3.0008,-4.4718,7.2765,0.033598,0.044288,-0.007025
-0.076202,3.3146,-4.4914,7.3158,0.0082467,0.042455,-0.0012217
-0.079132,3.3146,-4.6091,7.2373,-0.032681,0.026878,0.0024435
-0.086151,3.4127,-4.668,7.1392,-0.062614,0.0054978,0.0030543
-0.074158,3.2166,-4.8053,7.1589,-0.062919,-0.0061087,-0.0039706
-0.069122,3.0597,-4.3542,7.2961,-0.03543,-0.0015272,-0.010079
-0.060242,3.0989,-4.3345,7.0216,-0.0039706,0.012523,-0.0058032
-0.053894,3.0597,-4.668,7.2765,0.014355,0.024435,-0.0051924
-0.035309,3.2558,-4.4914,7.3158,0.01069,0.028711,-0.00061087
-0.033356,2.9616,-4.3542,7.4531,-0.0085521,0.024129,0.00030543
-0.022614,3.1774,-4.3345,7.3746,-0.025656,0.016188,0.00030543
-0.018066,3.0793,-4.5503,7.4531,-0.034514,0.010079,0
-0.0046692,3.1185,-4.668,7.2373,-0.032681,0.0048869,-0.0024435
0.0071106,3.0793,-4.4914,7.2373,-0.020464,0.0054978,-0.0042761
-0.0018616,3.0989,-4.3934,7.3158,-0.0085521,0.011301,-0.0036652
-0.010315,3.0008,-4.4914,7.3746,-0.0030543,0.016188,-0.0054978
-0.014038,3.2362,-4.4914,7.3158,-0.0064141,0.016188,-0.0042761
-0.023529,3.2362,-4.4914,7.3354,-0.016799,0.01405,-0.0054978
-0.024902,3.1185,-4.4914,7.2373,-0.025351,0.012828,-0.0067195
-0.02121,3.0793,-4.5503,7.3746,-0.027489,0.012523,-0.0039706
-0.01712,3.2558,-4.413,7.3158,-0.027489,0.011912,-0.0045815
-0.025604,3.2558,-4.4718,7.3158,-0.023518,0.014355,-0.0042761
-0.029449,3.2558,-4.4914,7.3746,-0.038485,0.018631,-0.0042761
-0.02478,3.0597,-4.5503,7.3746,-0.046426,0.013134,-0.0076358
-0.023468,3.2166,-4.4718,7.3158,-0.039706,0.0036652,0
-0.030273,3.2558,-4.413,7.2373,-0.027794,-0.00061087,-0.0042761
-0.054138,2.9224,-4.3934,7.4531,-0.020464,0.0018326,-0.007025
-0.08252,3.2362,-4.5503,7.3158,-0.017104,0.0076358,-0.0064141
-0.11984,3.2362,-4.5111,7.1589,-0.0045815,0.012523,-0.0051924
-0.15634,3.2166,-4.4718,7.1392,-0.019853,0.015272,-0.0048869
-0.19052,3.0793,-4.7072,7.2373,-0.020464,0.017104,-0.0039706
-0.20645,3.0597,-4.6287,7.2765,-0.02474,0.011606,-0.0061087
-0.23062,3.3343,-4.4718,7.3942,-0.020159,0.010079,-0.010079
-0.25275,2.9224,-4.3149,7.3158,-0.013439,0.0082467,-0.0082467
-0.2504,3.0793,-4.1776,7.5315,-0.011606,0.009163,-0.009163
-0.28018,3.1774,-4.3934,7.3158,-0.013134,0.012828,-0.009163
-0.26862,3.1774,-4.7072,7.3158,-0.012828,0.01405,-0.0033598
-0.25598,3.2166,-4.5503,7.1785,-0.014661,0.013744,-0.0015272
-0.25815,3.0008,-4.3934,7.4727,-0.026878,0.013134,-0.0076358
-0.24939,3.0204,-4.3934,7.2373,-0.021991,0.017104,-0.01069
-0.25061,3.0989,-4.4718,7.3354,-0.019853,0.01405,-0.0073304
-0.24356,3.2558,-4.6287,7.2961,-0.014355,0.011606,-0.0088575
-0.22601,3.0793,-4.5699,7.3746,-0.009163,0.014355,-0.0082467
-0.2168,3.1774,-4.5111,7.3158,-0.0073304,0.016799,-0.007025
-0.21756,3.2558,-4.3934,7.3158,-0.020464,0.017715,-0.0079412
-0.20306,3.0204,-4.3934,7.3158,-0.0281,0.019548,-0.0073304
-0.19543,3.0597,-4.4914,7.1589,0.0058032,0.0027489,-0.0058032
-0.18317,3.0793,-4.3542,7.3158,-0.049786,-0.017715,-0.0009163
-0.16223,3.0793,-4.4522,7.2373,-0.087048,-0.023824,-0.01069
-0.15738,3.1185,-4.5699,7.2373,-0.094379,-0.015577,-0.014355
-0.13928,3.0793,-4.413,7.2765,-0.07086,0.0027489,-0.014355
-0.12299,3.2558,-4.5699,7.2373,-0.0281,0.02138,-0.012217
-0.12662,3.1774,-4.5111,7.3158,0.0094684,0.026878,-0.0054978
-0.10565,3.0008,-4.4914,7.4334,0.018021,0.022602,-0.002138
-0.093689,3.2362,-4.4718,7.2765,-0.019242,0.016188,-0.013134
-0.070801,3.1774,-4.8053,7.3746,-0.022297,0.011606,-0.015577
-0.040497,3.1577,-4.3934,7.2961,-0.025045,0.012828,-0.0076358
-0.040375,3.0597,-4.5699,7.3746,-0.026267,0.013134,-0.0076358
-0.023621,3.2362,-4.4522,7.2373,-0.020769,0.015577,-0.0082467
-0.01767,2.9224,-4.3934,7.3158,-0.020464,0.017104,-0.010996
-0.011444,3.0008,-4.5699,7.2765,-0.021075,0.015272,-0.011606
-0.0053406,3.0989,-4.413,7.3746,-0.015882,0.01405,-0.010079
0.0064697,3.2166,-4.6287,7.3158,-0.0085521,0.016799,-0.0048869
0.0095825,3.0793,-4.413,7.3158,-0.0085521,0.020464,0.0027489
0.013763,3.1774,-4.5699,7.2765,-0.011912,0.020769,-0.012217
0.015289,3.2558,-4.7856,7.2373,-0.01741,0.018326,-0.0061087
0.02066,3.1774,-4.3934,7.3942,-0.023213,0.01405,-0.0064141
0.021362,3.1185,-4.3345,7.3746,-0.023213,0.011912,-0.007025
0.024658,3.0008,-4.4914,7.3746,-0.0067195,0.011912,-0.0045815
0.023682,3.2362,-4.4914,7.2961,0.022907,0.018937,-0.0054978
0.006134,3.1185,-4.3934,7.3158,-0.015577,0.015577,-0.007025
0.0023499,3.1774,-4.4914,7.2765,0.0045815,0.023518,-0.0058032
0.0086975,3.0793,-4.4914,7.2373,0.012828,0.025656,-0.0054978
-0.011841,3.2558,-4.7072,7.2765,0.0067195,0.023824,-0.0045815
-0.013763,3.0793,-4.3934,7.2961,-0.0076358,0.01741,-0.0051924
-0.029419,3.2558,-4.4914,7.3158,-0.022297,0.011301,-0.0082467
-0.040222,3.0989,-4.4718,7.2765,-0.026573,0.01069,-0.0079412
-0.046387,3.0793,-4.4914,7.3354,-0.021991,0.012217,-0.0085521
-0.049927,3.0793,-4.5503,7.1589,-0.01405,0.015272,-0.0048869
-0.060516,3.0989,-4.4914,7.3158,-0.0094684,0.019242,-0.0067195
-0.067627,3.1774,-4.3542,7.3158,-0.010079,0.01741,-0.0045815
-0.079102,2.942,-4.4914,7.3746,-0.013744,0.014355,-0.0067195
-0.090393,3.0793,-4.5699,7.1589,-0.016493,0.013439,-0.0067195
-0.10699,2.9028,-4.6091,7.4727,-0.016493,0.015272,-0.0064141
-0.11026,3.0793,-4.7268,7.3746,-0.014355,0.016799,-0.0076358
-0.12167,3.3735,-4.4522,7.2373,-0.014355,0.018021,-0.0064141
-0.15146,3.1185,-4.5111,7.5511,-0.031765,0.013134,-0.0088575
-0.17313,3.0008,-4.6484,7.0608,-0.044899,0.0024435,-0.01069
-0.1843,2.8635,-4.4718,7.2373,-0.052229,-0.0024435,0.0018326
-0.20096,3.0793,-4.0796,7.2765,-0.054672,-0.0039706,0.00030543
-0.21561,3.2166,-4.158,7.2765,-0.054367,-0.002138,0.00030543
-0.23901,3.1774,-4.4914,7.3746,-0.048869,0.0009163,-0.0048869
-0.25006,3.3735,-4.8249,7.1785,-0.00030543,0.0024435,-0.0079412
-0.25058,3.2362,-4.4522,7.1589,-0.013439,0.0067195,-0.0079412
-0.24585,2.942,-4.3149,7.4531,-0.0064141,0.011912,-0.015882
-0.23087,2.7851,-4.1776,7.6296,-0.037874,0.016799,-0.014966
-0.21909,3.0008,-4.158,7.5903,-0.026267,0.01741,-0.010385
-0.19641,3.0793,-4.1776,7.5511,-0.01741,0.016493,-0.0097738
-0.17184,2.9224,-4.2365,7.4727,-0.012523,0.01405,-0.012523
-0.15594,3.0793,-4.3345,7.3746,-0.012523,0.013134,-0.014966
-0.14246,3.0008,-4.5111,7.4531,-0.012217,0.016188,-0.018021
-0.11636,3.3146,-4.7856,7.2765,-0.010385,0.021075,-0.018937
-0.10687,3.3931,-4.8837,7.0608,-0.12248,-0.042455,0.0042761
-0.090942,3.0008,-4.766,7.1392,-0.12004,-0.045509,0.0051924
-0.078186,3.0597,-4.3934,7.3354,-0.097128,-0.03543,0.026267
-0.084442,3.2166,-4.1972,7.4531,-0.052534,-0.012828,0.0054978
-0.077179,3.2558,-4.3934,7.4531,0.0009163,0.011912,-0.0039706
-0.073792,3.2558,-4.4914,7.3158,0.047342,0.033292,-0.0015272
-0.073792,3.1774,-4.3345,7.2765,0.070555,0.047342,0
-0.092682,3.1577,-4.3345,7.3746,0.067195,0.044593,0.0024435
-0.10229,3.1774,-4.3934,7.3354,-0.014966,0.030543,-0.00061087
-0.12009,3.3146,-4.4522,7.2961,-0.018021,0.015577,0.0036652
-0.13876,3.2362,-4.4522,7.1785,-0.012217,0.0045815,-0.0009163
-0.1463,3.2558,-4.6091,7.2373,-0.0018326,0.002138,-0.0073304
-0.15521,3.0597,-4.6091,7.3746,0.007025,0.0042761,-0.0079412
-0.16357,3.2558,-4.4914,7.3746,0.0064141,0.010385,-0.010996
-0.1813,3.1185,-4.4914,7.2373,0.039706,0.016799,-0.011912
-0.19528,3.0989,-4.5503,7.3158,0.0045815,0.018631,-0.0076358
-0.19711,3.1774,-4.3542,7.3158,-0.076358,-0.012828,-0.030543
-0.19077,3.0008,-4.7072,7.3746,-0.044593,-0.0064141,-0.025656
-0.17581,3.0989,-4.3345,7.4334,0.0073304,0.010079,-0.0045815
-0.18155,3.0793,-4.3542,7.3158,0.054062,0.035736,-0.023213
-0.1814,3.1185,-4.4914,7.1392,0.068111,0.055589,-0.025045
-0.19034,3.2362,-4.5111,7.3354,0.050091,0.054978,-0.014661
-0.19257,3.2558,-4.4914,7.4334,0.017104,0.042455,-0.012523
-0.18933,3.2558,-4.3934,7.4531,-0.0079412,0.027184,-0.025962
-0.1936,3.2362,-4.4522,7.3746,-0.024435,0.011606,-0.009163
-0.20197,3.0793,-4.5699,7.2373,-0.025962,0.007025,-0.0079412
-0.20224,3.1774,-4.3934,7.2961,-0.022297,0.01069,-0.0061087
-0.20825,3.0597,-4.4914,7.3746,-0.016493,0.015272,-0.0067195
-0.21884,3.2558,-4.3345,7.3158,-0.010385,0.018326,-0.0061087
-0.22348,3.0989,-4.3934,7.3746,-0.011912,0.018326,-0.0039706
-0.22186,3.0793,-4.4914,7.2373,-0.01741,0.01741,-0.0058032
-0.22623,3.0793,-4.4914,7.2177,-0.019242,0.014966,-0.0097738
-0.20892,3.2558,-4.6484,7.2961,-0.016799,0.01405,-0.021686
-0.21249,3.1774,-4.4914,7.2961,-0.010079,0.017104,-0.025045
-0.1965,3.0989,-4.4718,7.3158,-0.0067195,0.019242,-0.0088575
-0.17896,3.0008,-4.3934,7.3942,-0.010996,0.018631,-0.007025
-0.16904,3.2558,-4.5111,7.2961,-0.021686,0.01741,-0.0061087
-0.15796,3.3146,-4.7072,7.2961,-0.032681,0.013439,-0.0079412
-0.14465,3.2558,-4.4718,7.2765,-0.038179,0.012217,-0.010996
-0.12302,3.0793,-4.413,7.2373,-0.036652,0.011912,-0.016188
-0.11722,2.8635,-4.2561,7.4531,-0.016493,0.016799,0.012217
-0.097656,3.1774,-4.5699,7.4531,0.013744,0.030849,0.0094684
-0.082733,3.1185,-4.6484,7.2961,0.025351,0.046426,-0.021991
-0.062042,3.5696,-4.8053,7.2961,0.010079,0.048869,-0.013439
-0.041656,3.4127,-4.5699,7.1785,-0.023824,0.040012,0.0009163
-0.02652,2.7851,-4.3934,7.3746,-0.06353,0.021686,0.011301
0.0011597,3.0793,-4.3934,7.4531,-0.08827,0.0027489,0.014661
0.009491,2.9616,-4.413,7.4531,-0.089492,-0.0085521,0.015882
0.026794,3.0008,-4.3934,7.2373,-0.036346,-0.0015272,-0.0051924
0.055878,3.2362,-4.3542,7.3746,-0.026878,-0.0042761,-0.0033598
0.072479,3.0008,-4.2953,7.4334,-0.01405,0.0030543,-0.0024435
0.090515,3.1774,-4.413,7.2961,-0.0036652,0.010385,-0.0015272
0.095642,2.9616,-4.4914,7.4531,-0.00030543,0.015577,0.0009163
0.096924,3.2558,-4.6484,7.3158,-0.0094684,0.016188,0.002138
0.10608,3.1774,-4.5699,7.3354,-0.019548,0.01405,0
0.10852,3.1774,-4.5699,7.3158,-0.022602,0.01405,-0.0042761
0.10422,3.1185,-4.5699,7.3158,-0.016799,0.013439,0.0018326
0.10693,3.2362,-4.3934,7.3158,-0.024435,0.011912,0.00061087
0.098785,3.0793,-4.3345,7.3746,-0.031154,0.014966,-0.0051924
0.075775,3.0793,-4.4914,7.3354,-0.038485,0.013439,-0.0018326
0.053925,3.0793,-4.668,7.2373,-0.041844,0.010385,0.00061087
0.022675,3.0793,-4.5111,7.1392,-0.043066,0.010996,0.0015272
-0.016693,3.0793,-4.4522,7.1785,-0.020769,0.01069,0.0015272
-0.038452,3.2558,-4.3934,7.3158,-0.014966,0.0088575,-0.00030543
-0.072296,3.0793,-4.5111,7.3158,-0.024435,0.0079412,-0.0015272
-0.097748,3.1774,-4.3934,7.3158,-0.019242,0.0079412,0.00061087
-0.11893,3.2362,-4.4522,7.3746,-0.020464,0.010385,0.0009163
-0.13199,3.0597,-4.4914,7.3746,-0.027489,0.011301,0.0033598
-0.14484,3.0597,-4.6091,7.2961,-0.032987,0.01069,0.0064141
-0.14377,3.0597,-4.5699,7.2177,-0.034208,0.0085521,0.0061087
-0.15262,3.0793,-4.4718,7.3158,-0.042761,0.0067195,0.0042761
-0.16226,3.2558,-4.5699,7.2373,-0.034819,0.0079412,0.00030543
-0.16956,3.0989,-4.5111,7.2373,-0.017715,0.0088575,-0.0061087
-0.17441,3.0793,-4.5699,7.3746,-0.0079412,0.010079,-0.0076358
-0.17981,3.0008,-4.6091,7.3158,-0.0054978,0.014661,-0.0018326
-0.17355,3.1774,-4.3934,7.2373,-0.01069,0.019548,-0.0048869
-0.16409,3.2362,-4.4718,7.3746,-0.019242,0.020769,-0.002138
-0.1521,2.942,-4.4914,7.3746,-0.023213,0.016188,-0.002138
-0.14404,3.2166,-4.4914,7.3158,-0.032681,0.011912,-0.0024435
-0.1319,3.1774,-4.3934,7.3158,-0.027794,0.009163,-0.0024435
-0.12466,3.0597,-4.5699,7.4334,-0.0048869,0.018326,-0.013134
-0.094971,3.1774,-4.9229,7.3158,0.0079412,0.020159,-0.0054978
-0.073151,3.0989,-4.5111,7.2961,0.0051924,0.024129,-0.002138
-0.065582,3.2558,-4.5503,7.3942,-0.012523,0.019853,-0.00030543
-0.05719,3.0597,-4.4914,7.3942,-0.038485,0.0061087,-0.0048869
-0.043793,3.1774,-4.4914,7.2373,-0.053145,0,-0.010996
-0.0448,3.1577,-4.4522,7.2373,-0.053145,0.0024435,-0.015577
-0.061279,3.0793,-4.5699,7.0608,-0.04612,0.010079,-0.01741
-0.077148,3.0793,-4.668,7.1589,-0.051313,0.016799,-0.0027489
-0.080841,3.2558,-4.4914,7.2373,-0.06689,0.017104,0.007025
-0.091217,3.2558,-4.4718,7.3746,-0.077885,0.0073304,0.0030543
-0.10941,3.0008,-4.3345,7.3942,-0.080023,-0.0024435,0.0058032
-0.10526,3.2362,-4.4914,7.2373,-0.064141,-0.0045815,0.0015272
-0.11313,3.0597,-4.4914,7.2177,-0.036346,-0.00030543,-0.0015272
-0.11801,3.2558,-4.668,7.3354,-0.0033598,0.0097738,-0.0024435
-0.12573,3.2754,-4.6091,7.2961,0.016188,0.023824,-0.0061087
-0.10837,3.2558,-4.4522,7.3158,0.0085521,0.029932,-0.0036652
-0.082428,3.0008,-4.3934,7.4334,-0.016493,0.020464,-0.0042761
-0.090607,3.0204,-4.4914,7.3158,-0.049786,0.007025,0.007025
-0.075592,3.0793,-4.4914,7.1392,-0.069944,-0.0073304,0.00061087
-0.068878,2.9224,-4.3542,7.2373,-0.065057,-0.012828,-0.0048869
-0.057739,3.0793,-4.6484,7.2177,-0.040928,-0.0085521,-0.010079
-0.058563,3.1185,-4.8249,7.3746,-0.017715,0.0039706,-0.0088575
-0.046356,3.4127,-4.5699,7.2373,-0.0076358,0.01069,-0.0067195
-0.042419,3.2166,-4.3934,7.3746,-0.0015272,0.027184,-0.0048869
-0.041504,2.9224,-4.4522,7.3942,-0.014355,0.021686,-0.0064141
-0.042023,3.0793,-4.6484,7.1785,-0.023213,0.017715,0.0030543
-0.040894,3.3146,-4.7072,7.1589,-0.030543,0.015882,0.0012217
-0.041656,3.2362,-4.6091,7.3354,-0.032987,0.015882,0.00030543
-0.046997,3.1774,-4.4914,7.3746,-0.032681,0.015577,-0.00030543
-0.047852,3.2558,-4.4914,7.3354,-0.029016,0.015577,-0.0009163
-0.058868,3.1577,-4.7856,7.3158,-0.020159,0.015882,-0.0024435
-0.071838,3.1774,-4.4914,7.3158,0.053451,0.048258,-0.019853
-0.0672,3.2558,-4.5699,6.9627,0.037568,0.048869,-0.019548
-0.072662,3.0793,-4.5699,6.9235,0.024129,0.044288,-0.011301
-0.060425,3.0793,-4.5111,6.9823,0.017104,0.036957,-0.013134
-0.064514,3.1774,-4.668,6.9823,0.017715,0.03146,-0.017104
-0.051941,3.0793,-4.5699,7.1785,0.018631,0.029322,-0.020769
-0.04071,3.0793,-4.4914,7.3158,0.051313,0.031765,-0.020464
-0.031128,3.3146,-4.5111,7.3354,0.059865,0.033903,-0.020464
0.00097656,2.9224,-4.4914,7.3158,-0.0018326,0.03146,-0.018021
0.017548,3.0793,-4.5699,7.1196,-0.0061087,0.027794,-0.012523
0.0383,3.0793,-4.4914,7.1785,-0.0076358,0.023213,-0.020159
0.066284,3.0793,-4.7856,7.2961,-0.0082467,0.021991,-0.020464
0.093994,3.2754,-4.5699,7.2373,-0.0024435,0.022907,-0.019242
0.10138,3.1577,-4.4914,7.2765,-0.00061087,0.024129,-0.018021
0.1301,3.0793,-4.5111,7.2765,0.016188,0.025962,-0.017104
0.13751,3.0989,-4.6287,7.2961,0.0088575,0.026267,-0.018326
0.15033,3.2754,-4.8641,7.2373,-0.018631,0.02138,-0.0079412
0.16852,3.2558,-4.6287,7.2765,-0.0281,0.013744,0
0.18094,2.9224,-4.6484,7.2765,-0.029322,0.01069,-0.0058032
0.20612,3.0793,-4.4914,7.1589,-0.020769,0.0073304,-0.0054978
0.23105,3.2362,-4.5699,7.3158,-0.0064141,0.0073304,-0.0067195
0.24472,3.0597,-4.5111,7.1589,0.0076358,0.0097738,-0.007025
0.26831,3.1185,-4.4914,7.3354,-0.0030543,0.018021,-0.0094684
0.2818,2.9616,-4.4914,7.3354,-0.007025,0.028405,-0.011301
0.29184,3.2558,-4.5699,7.2961,0.00030543,0.026573,-0.0067195
0.29663,3.0989,-4.4914,7.2373,-0.016799,0.019853,-0.0088575
0.29996,3.0793,-4.5111,7.1589,-0.029016,0.014355,0.0036652
0.30338,3.2166,-4.6287,7.3158,-0.034208,0.010996,-0.00061087
0.29874,3.1774,-4.4914,7.2765,-0.027489,0.012217,-0.0061087
0.29044,3.1774,-4.7072,7.1785,-0.011301,0.019242,-0.0088575
0.28143,3.1774,-4.668,7.1589,0.01069,0.030238,-0.0082467
0.25931,3.2754,-4.4914,7.2373,0.036346,0.042455,-0.0079412
0.23044,3.0793,-4.3345,7.3158,-0.0036652,0.0094684,-0.0042761
0.25906,3.1774,-4.766,7.4531,-0.0061087,0.014966,-0.002138
0.25369,3.1577,-4.5503,7.2373,-0.018631,0.013134,-0.010996
0.24902,3.2558,-4.5111,7.2373,-0.033903,0.0079412,-0.0061087
0.24573,3.0597,-4.5699,7.1589,-0.042761,0.0042761,-0.007025
0.22946,3.0793,-4.5699,7.1589,-0.037263,0.0051924,-0.010079
0.21774,3.1774,-4.5111,7.2765,-0.021991,0.01069,-0.0088575
0.1987,3.0989,-4.5699,7.2765,-0.0082467,0.016799,-0.0061087
0.18661,3.0793,-4.4914,7.3158,0.0058032,0.023213,-0.00030543
0.16788,3.2166,-4.6091,7.3158,0.009163,0.026878,0.0012217
0.14825,3.0989,-4.5699,7.2177,-0.0012217,0.030238,-0.0015272
0.14496,3.2362,-4.5699,7.1785,-0.015882,0.028405,0.0027489
0.13702,2.8439,-4.3934,7.3158,-0.025962,0.021075,0.0048869
0.13879,3.0793,-4.4914,7.3746,-0.024129,0.014661,0.0030543
0.13678,3.2754,-4.8053,7.3158,-0.015272,0.015272,0.0009163
0.15109,3.2362,-4.4914,7.1785,-0.010996,0.019242,-0.0009163
0.16852,3.0793,-4.5699,7.2177,-0.00061087,0.023824,-0.0054978
0.17755,3.1774,-4.4718,7.2373,-0.016188,0.018021,-0.0048869
0.19324,3.1577,-4.4914,7.3158,-0.036346,0.0039706,0.0039706
0.2049,3.3343,-4.8053,7.2373,-0.049175,-0.0058032,0.00061087
0.23029,3.2362,-4.5111,7.3746,-0.045815,-0.0042761,-0.0048869
0.2261,3.2166,-4.4914,7.2765,-0.029322,0.0079412,-0.010996
0.24478,3.1577,-4.3934,7.1589,-0.0088575,0.019853,-0.011301
0.24213,3.0008,-4.4914,7.0608,0.0009163,0.025962,-0.0082467
0.23682,3.2558,-4.4914,7.1785,-0.0076358,0.023518,-0.015577
0.23422,3.0008,-4.4914,7.2765,-0.022297,0.012217,-0.016188
0.2254,3.1774,-4.5111,7.1589,-0.034208,0.0048869,-0.0042761
0.22137,3.2166,-4.3934,7.3354,-0.029932,0.0027489,-0.0051924
0.22729,3.1774,-4.4914,7.3354,-0.020159,0.0051924,-0.0088575
0.23578,3.1774,-4.5503,7.2765,-0.014966,0.0082467,-0.011606
0.224,3.0008,-4.6484,7.3158,-0.011301,0.0067195,-0.010385
0.2222,2.9224,-4.5699,7.3354,-0.0079412,0.0061087,-0.011301
0.23453,3.2362,-4.7856,7.1392,0.32773,0.29596,-0.032987
0.25629,3.2166,-4.4914,7.2765,0.52351,0.10293,0.011606
0.28741,3.2558,-4.4522,7.3158,0.58521,0.0956,-0.19731
0.2894,3.1185,-4.4914,7.2765,0.56474,0.21625,-0.20586
0.30194,3.0008,-4.4914,7.2961,0.58613,0.37629,-0.17226
0.3201,3.2166,-4.5503,7.2373,0.6411,0.45051,-0.13408
0.31012,3.1185,-4.5111,7.2961,0.59346,0.49205,-0.10721
0.32169,3.1185,-4.5699,7.1392,0.28191,0.44074,-0.092241
0.3118,3.2362,-4.5699,7.2765,0.00030543,0.022907,0.017715
0.30902,3.0008,-4.4914,7.3158,0.00030543,0.027184,0.024129
0.29892,3.2558,-4.668,7.3158,-0.0012217,0.027489,-0.0018326
0.29645,2.9224,-4.4718,7.3158,0,0.029932,-0.0036652
0.28915,3.0793,-4.5699,7.1589,0.0085521,0.039706,-0.0051924
0.28232,3.3146,-4.7856,7.1589,0.025351,0.055894,-0.002138
0.2706,3.1577,-4.5111,7.2177,0.060781,0.068111,0.0054978
0.24155,3.0204,-4.7268,7.0608,0.15394,0.067195,0.011606
0.21545,3.1774,-4.7856,7.1589,0.26634,0.090408,-0.041539
0.18216,3.2362,-4.0207,7.6492,0.32132,0.11301,-0.11301
0.1564,2.8047,-3.9815,7.7865,0.28253,0.10904,0.024129
0.12445,2.9224,-4.6091,7.708,0.17562,0.064446,0.029932
0.08255,3.2166,-5.5113,7.3746,0.065363,0.015882,0.031154
-0.04071,3.7461,-6.1782,6.4332,-0.037874,-0.030543,0.032987
-0.22873,4.2169,-5.5506,6.1978,-0.10904,-0.092852,0.029016
-0.53027,3.6285,-4.0011,6.9235,-0.077885,-0.15669,0.0076358
-0.89569,2.7655,-2.8243,8.2572,0.78496,-0.17746,-0.11576
-0.99997,2.2948,-2.9028,7.61,1.0834,-0.11484,-0.16341
-0.99997,2.589,-3.5304,7.3746,1.2941,0.030543,-0.18387
-0.99997,2.3732,-2.589,7.0608,1.3564,0.20556,-0.22449
-0.99997,1.9221,-2.0006,7.5315,1.2755,0.37843,-0.22144
-0.99997,1.6867,-3.3735,9.0417,0.98471,0.48655,-0.19975
-0.99997,2.687,-3.8442,8.6299,0.10599,0.47953,-0.16188
-0.99997,3.2558,-3.197,8.8652,0.43066,0.42211,-0.11118
-0.99997,3.2362,-3.0989,8.5514,1.701,0.27397,0.50305
-0.99997,3.1774,-3.2362,8.5514,0.2865,0.45204,0.48778
-0.99997,3.3146,-3.2558,8.316,0.90561,0.6634,0.72632
-0.96075,2.942,-3.0989,8.2768,1.4731,0.85857,0.72785
-0.7482,2.7655,-2.8243,8.5514,1.8821,0.93126,0.70524
-0.54425,2.4713,-2.2751,8.7083,2.0745,0.93615,0.6634
-0.39151,2.334,-2.1378,8.8652,2.058,1.0037,0.57788
-0.26736,2.2359,-1.9809,8.8652,1.9111,1.0018,0.49847
-0.1568,2.0594,-2.0986,9.434,-1.1167,-0.85521,-0.74128
-0.030945,2.2948,-2.5105,9.179,-1.1936,-0.93401,-0.94134
0.13,2.687,-3.2166,9.6694,-1.3854,-1.0525,-0.50121
0.29938,2.4517,-4.1972,10.062,-1.7694,-1.1842,-0.58368
0.48975,2.7851,-4.3542,9.3163,-2.2849,-1.2178,-0.60964
0.66452,2.9616,-4.0403,8.7083,-2.7226,-1.2547,-0.58826
0.84097,3.4912,-3.8834,9.4144,-2.9273,-1.3573,-0.53634
0.97873,2.6282,-4.158,9.8066,-2.8271,-1.394,-0.56047
1,2.432,-3.8246,9.2575,-1.7996,-1.2648,-0.039095
1,3.4127,-1.7848,6.6097,-0.90683,-1.0033,0.082772
1,3.2754,-3.5304,5.1191,0.13592,-0.63041,-0.95173
1,4.668,-6.3743,4.0207,1.0021,-0.20342,-0.80634
1,6.2174,-6.845,3.3931,1.4875,0.16249,-0.60751
1,5.0602,-4.7856,4.3542,1.6157,0.39309,-0.43158
1,4.0403,-1.7456,5.0798,1.4731,0.47739,-0.30665
1,3.7461,-0.27459,5.6094,1.1603,0.44532,-0.17776
1,3.903,-0.23536,5.8055,0.73701,0.35613,0.63958
1,3.7069,-1.0395,6.0213,0.20953,0.29199,0.6915
1,3.7069,-3.5304,6.1782,-0.30971,0.23366,0.18845
1,4.1188,-5.9624,5.9036,-0.69425,0.14936,0.3091
1,4.5895,-7.2177,6.1782,-0.87262,0.067195,0.43555
1,4.7464,-7.0019,6.3547,-0.81153,0.0036652,0.53756
1,4.1972,-6.2174,8.316,-0.50274,0.03207,0.59346
1,4.3738,-3.6873,8.3749,-0.0048869,0.1347,0.60934
0.86392,3.3931,-2.9028,7.6492,-0.089797,0.2022,0.15394
0.31235,2.9616,-2.2555,4.6484,0.016799,0.24099,0.10996
-0.29724,1.5298,-1.824,5.5898,0.1573,0.2923,0.10354
-0.8562,1.1768,-3.8834,8.8456,0.27794,0.33995,0.1179
-0.99997,3.0597,-5.8644,11.69,0.35308,0.36102,0.14172
-0.99997,3.3735,-6.5901,12.474,0.36835,0.3598,0.17929
-0.99997,2.7851,-5.2564,10.748,0.31368,0.32956,0.1909
-0.99997,2.5301,-3.3539,9.1202,0.21655,0.26114,0.17746
-0.99997,2.6086,-2.8832,8.1199,-0.039095,0.17532,0.0045815
-0.99997,2.7655,-2.6086,7.7669,-0.0039706,0.089797,0.01741
-0.99997,2.4909,-2.0006,7.4923,0.097433,0.037874,0.051007
-0.99997,2.2751,-1.8829,6.747,0.22052,0.04612,-0.0058032
-0.99997,2.1771,-1.8829,6.6097,0.30604,0.10232,-0.035736
-0.99997,2.4713,-2.7655,7.2373,0.32009,0.17043,-0.037874
-0.99997,2.942,-3.7854,8.1787,0.11729,0.22297,-0.037263
-0.99203,3.2362,-3.6873,8.9633,0.01405,0.24312,-0.024129
-0.93628,3.0008,-3.2362,8.9437,0.11484,0.22633,-0.036041
-0.90109,2.9028,-2.9028,8.9437,0.10751,0.18601,-0.027184
-0.8598,2.589,-3.1381,9.0613,0.15027,0.15638,0.00061087
-0.81821,2.4909,-3.5304,8.5318,0.22694,0.146,-0.018326
-0.78018,2.432,-3.4716,7.7865,0.30513,0.14111,-0.018021
-0.73059,2.334,-2.7262,7.9434,0.36774,0.14569,-0.0082467
-0.6759,2.2359,-2.5301,8.4926,0.26053,0.15608,-0.016799
-0.64203,2.2948,-2.9028,8.6887,0.17562,0.17349,-0.030543
-0.62091,2.3732,-2.9812,8.7868,0.13164,0.17226,-0.043066
-0.59827,2.2359,-3.0793,8.5906,0.016799,0.14539,-0.031765
-0.57907,2.0202,-3.0008,9.0025,-0.042761,0.10782,-0.022907
-0.57663,2.1378,-2.6282,8.7475,-0.037263,0.065057,-0.034514
-0.58304,2.1575,-2.2751,8.7868,0.0085521,0.031154,-0.044593
-0.59836,1.9613,-2.3732,8.5514,0.068111,0.022602,-0.047037
-0.62671,2.2948,-2.7459,8.4926,0.35552,0.032376,-0.047342
-0.65778,2.2751,-2.7262,8.7083,0.25901,0.047342,-0.047953
-0.68839,2.2359,-2.589,8.5514,0.050396,0.04612,-0.016799
-0.71301,1.9221,-2.3144,9.0417,0.047953,0.043677,-0.011912
-0.70596,1.9809,-2.0006,8.8848,0.037263,0.036652,0.0054978
-0.74051,2.0006,-2.432,8.8064,0.020159,0.029932,0.0015272
-0.7373,2.3732,-2.6086,8.7083,-0.0039706,0.025962,-0.00030543
-0.71664,2.2948,-2.4517,8.6299,-0.025962,0.02474,-0.002138
-0.69958,2.2948,-2.2948,8.4926,-0.037874,0.025351,-0.0097738
-0.67126,2.0006,-2.5301,8.4729,-0.045204,0.0281,-0.015882
-0.6398,2.334,-2.8832,8.6299,-0.037263,0.036041,-0.0073304
-0.60864,2.3732,-2.8243,8.7083,-0.0085521,0.041844,-0.01405
-0.57571,2.1575,-2.5105,8.6887,0.019548,0.052229,-0.0076358
-0.53394,2.1182,-2.2751,8.5514,0.034514,0.058032,-0.0024435
-0.48517,2.2751,-2.0006,8.6887,0.027794,0.055589,0.0030543
-0.4332,2.1378,-2.3144,8.7083,0.010996,0.04948,0.0039706
-0.37955,2.1182,-2.5693,8.7279,-0.010996,0.044899,-0.00030543
-0.29929,2.2948,-2.687,8.7083,-0.025656,0.044899,-0.0033598
-0.24146,2.3732,-2.589,8.8064,-0.030238,0.050091,0.0009163
-0.1687,2.2948,-2.3536,8.7475,-0.03879,0.048258,0.0009163
-0.11581,2.2751,-2.2751,8.7083,-0.039095,0.036041,-0.015577
-0.056702,2.1575,-2.3732,8.5514,-0.015882,0.035125,-0.029627
-0.0092468,2.2948,-2.5693,8.7083,0.022602,0.05284,-0.051007
0.036957,2.432,-2.7262,8.6299,0.040012,0.07086,-0.04948
0.080872,2.1575,-2.4517,8.6887,0.013744,0.074526,-0.023824
0.1181,2.2359,-2.2948,8.7279,-0.024435,0.0562,-0.0045815
0.14136,2.1575,-2.3732,8.7868,0.0073304,0.036652,0.0009163
0.13913,2.1771,-2.1967,8.5906,-0.038485,0.023824,0.0036652
0.14224,2.0594,-2.4713,8.7083,-0.065668,0.01069,0.0015272
0.12067,2.1182,-2.589,8.6887,-0.058948,0.007025,0.0009163
0.099426,2.1771,-2.3144,8.7475,-0.029627,0.016188,-0.0042761
0.048828,2.0594,-2.0594,8.9437,-0.0030543,0.026267,0.0030543
0.0054016,2.1182,-2.3732,8.8064,0.025656,0.036652,0.0094684
-0.031128,2.2359,-2.432,8.7083,0.041844,0.042455,0.0045815
-0.065063,2.1771,-2.4713,8.7475,0.041539,-0.0051924,-0.0061087
-0.074493,2.1771,-2.6086,8.8652,0.043982,-0.0015272,-0.0088575
-0.068756,1.9809,-2.432,8.7475,0.040012,0,0.0079412
-0.044312,2.2163,-2.2948,8.4926,0.022907,0.0048869,0.0036652
-0.016083,2.0006,-2.2751,8.6299,-0.0033598,0.010079,0.0009163
0.041656,2.0006,-2.5693,8.8064,-0.020769,0.012523,0.0033598
0.055237,2.2359,-2.6086,8.4729,0.021075,0.0094684,0.0024435
0.096985,2.2359,-2.432,8.6299,0.033292,0.0061087,-0.00061087
0.12085,2.0006,-2.432,8.6299,0.018021,0.009163,0.0012217
0.11755,2.1575,-2.589,8.5514,0.035125,0.020464,0.0030543
0.12393,2.2948,-2.5105,8.7475,0.037263,0.034514,-0.0088575
0.11478,2.079,-2.3732,8.9437,0.02138,0.043677,-0.0067195
0.10275,2.0006,-2.3732,8.8848,-0.0051924,0.04215,-0.0030543
0.082703,2.2751,-2.6086,8.6495,-0.030849,0.029932,0.0061087
0.060669,2.079,-2.4713,8.7083,-0.021991,0.013134,0.013744
0.055176,2.079,-2.432,8.7083,-0.0033598,-0.0045815,0.0082467
0.039642,2.0006,-2.432,8.7083,0.055894,0.061697,0.010996
0.024841,2.0594,-2.5105,8.7083,0.028405,0.047953,0.023824
0.046387,2.1771,-2.6086,8.5514,-0.029016,0.018631,0.031765
0.056824,2.2948,-2.589,8.5514,-0.075747,-0.010385,0.031154
0.080719,2.1182,-2.5693,8.4926,-0.089797,-0.02138,0.019548
0.099548,2.1575,-2.5693,8.7083,-0.082772,-0.016188,0.010079
0.12402,2.1378,-2.4124,8.5514,-0.062003,-0.002138,0.0094684
0.15292,2.1378,-2.432,8.5514,-0.035125,0.0094684,0.0067195
0.17194,2.2751,-2.5105,8.5514,-0.03879,0.0097738,0.0039706
0.20172,2.2948,-2.4713,8.6299,-0.061392,0,0.0067195
0.18671,2.0006,-2.3732,8.7083,-0.06689,-0.014355,0.030238
0.18661,2.0006,-2.4124,8.7279,-0.050091,-0.028405,0.024129
0.17685,2.0594,-2.432,8.7475,-0.021991,-0.036957,0.01405
0.16547,2.2359,-2.4713,8.5514,0.0033598,-0.03543,0.009163
0.15729,2.2948,-2.432,8.5514,-0.020159,-0.025656,0.0048869
0.14975,2.1378,-2.5105,8.3945,-0.019548,-0.013134,0.0039706
0.14499,2.1575,-2.7459,8.5514,-0.041233,-0.0018326,0.00030543
0.13449,2.1182,-2.8243,8.9437,-0.024435,0.010385,-0.0036652
0.13196,1.8633,-2.3536,8.9437,-0.020159,0.023518,0.002138
0.13919,2.0202,-2.3732,8.4926,-0.030543,0.03146,0.0058032
0.12872,2.1575,-2.3536,8.4926,-0.043066,0.027184,0.0073304
0.11804,2.2359,-2.4517,8.6299,-0.054062,0.017104,0.0079412
0.095459,2.2751,-2.9028,8.4926,-0.061697,0.0097738,0.0058032
0.065063,2.3928,-2.6086,8.7083,-0.058032,0.002138,0.0015272
0.035522,1.9221,-2.3732,8.8652,-0.041539,0.0015272,-0.0094684
-0.0050049,2.0594,-2.4124,8.7279,-0.018021,0.011301,-0.0082467
-0.036194,2.1771,-2.432,8.6887,-0.00030543,0.017104,-0.009163
-0.063202,2.1771,-2.3732,8.7083,0.0054978,0.018326,-0.0058032
-0.086182,2.2163,-2.6086,8.7083,0,0.022297,0.0009163
-0.10135,2.1575,-2.687,8.5514,-0.0042761,0.027184,-0.0015272
-0.12091,2.1575,-2.5693,8.6887,0.0015272,0.034208,-0.0079412
-0.14188,2.0594,-2.6086,8.4926,0.013744,0.043982,-0.0097738
-0.15253,2.1575,-2.5301,8.5514,-0.027794,0.029627,0.0009163
-0.1687,2.0202,-2.6086,8.5514,-0.032987,0.028711,0.0027489
-0.18091,2.079,-2.687,8.7083,-0.053145,0.018937,0.0097738
-0.18906,2.1575,-2.4124,8.7083,-0.067501,0.013744,0.0082467
-0.1911,2.0594,-2.432,8.7083,-0.065057,0.018631,-0.0039706
-0.20575,2.079,-2.589,8.6887,-0.052229,0.025962,-0.012828
-0.23032,2.0594,-2.7459,8.4926,-0.034208,0.033598,-0.0054978
-0.2388,2.2948,-2.7459,8.5514,-0.020159,0.036041,0.0024435
-0.24487,2.0594,-2.7262,8.6887,-0.04215,0.035736,-0.0030543
-0.24905,2.1575,-2.5301,8.7083,-0.067806,0.033292,-0.0009163
-0.23511,2.1182,-2.6086,8.6299,-0.086437,0.026573,0.0061087
