-0.035889,0.56879,1.1572,9.5909,-0.014966,0.014966,-0.0024435
-0.022675,0.49033,1.2553,9.5321,-0.015577,0.011301,-0.0027489
-0.024933,0.56879,1.1768,9.3752,-0.017104,0.013439,-0.0036652
-0.020905,0.56879,1.1964,9.4928,-0.015882,0.016493,-0.0042761
-0.023407,0.49033,1.1964,9.5713,-0.014661,0.015882,-0.0015272
-0.025452,0.54917,1.0983,9.5713,-0.014966,0.016188,-0.0015272
-0.024536,0.54917,1.2945,9.5909,-0.014966,0.016188,-0.0027489
-0.029785,0.54917,1.1572,9.3752,-0.013439,0.015882,-0.0048869
-0.033691,0.74531,1.1572,9.4732,-0.021075,0.013134,-0.002138
-0.033783,0.74531,1.1768,9.6694,-0.019853,0.014355,-0.0015272
-0.035797,0.72569,1.1572,9.434,-0.018937,0.015882,-0.0018326
-0.024261,0.80415,1.1964,9.4144,-0.02138,0.014661,-0.0030543
-0.030731,0.74531,1.2945,9.6301,-0.018631,0.015577,-0.0033598
-0.024475,0.66685,1.2356,9.4732,-0.014355,0.016188,-0.0009163
-0.021362,0.72569,1.2356,9.5125,-0.015577,0.014966,-0.0012217
-0.010742,0.64724,1.1572,9.5125,-0.017104,0.014661,-0.0018326
-0.021606,0.74531,1.1964,9.6497,-0.016493,0.015882,-0.0018326
-0.022522,0.56879,1.1572,9.3555,-0.014966,0.013744,-0.00061087
-0.03183,0.54917,1.2553,9.5125,-0.014355,0.013134,-0.0009163
-0.027161,0.5884,1.2553,9.5125,-0.016799,0.016188,-0.0018326
-0.034851,0.54917,1.1572,9.434,-0.016493,0.016493,-0.0018326
-0.022339,0.66685,1.2945,9.5125,-0.014661,0.015882,-0.0015272
-0.022247,0.76492,1.2553,9.5713,-0.015577,0.015577,-0.002138
-0.016602,0.70608,1.1768,9.5321,-0.016188,0.015577,-0.002138
-0.018921,0.74531,1.1376,9.5125,-0.016799,0.016799,-0.002138
-0.023346,0.56879,1.2553,9.4928,-0.016493,0.019548,-0.002138
-0.020721,0.74531,1.0003,9.5125,-0.015272,0.017104,-0.0015272
-0.021484,0.76492,1.0983,9.4928,-0.015577,0.014966,-0.0009163
-0.031464,0.74531,1.0787,9.5125,-0.016799,0.015577,0.00030543
-0.026367,0.66685,1.2553,9.4732,-0.017715,0.015577,-0.0018326
-0.026947,0.56879,1.2553,9.5125,-0.017715,0.01405,-0.0036652
-0.019043,0.41188,1.1964,9.5713,-0.015882,0.014661,-0.0027489
-0.020538,0.74531,1.1768,9.5713,-0.014355,0.015882,0.00030543
-0.02002,0.27459,1.0983,9.689,-0.013744,0.013439,-0.0009163
-0.02597,0.5884,1.1376,9.6301,-0.015272,0.015272,-0.0033598
-0.020691,0.56879,1.1768,9.4732,-0.015272,0.016799,-0.0039706
-0.011963,0.5884,1.2553,9.5125,-0.015577,0.016188,-0.0039706
-0.025635,0.45111,1.2553,9.5713,-0.016188,0.015272,-0.0030543
-0.028564,0.74531,1.2553,9.5713,-0.016799,0.015272,-0.0030543
-0.029175,0.60801,1.1768,9.5713,-0.015272,0.016493,-0.0009163
-0.029236,0.56879,1.1964,9.4928,-0.017104,0.015272,-0.0033598
-0.017059,0.72569,1.2356,9.5713,-0.018326,0.012217,-0.0018326
-0.023651,0.56879,1.1768,9.4928,-0.018021,0.014355,-0.0015272
-0.021362,0.49033,1.2356,9.6497,-0.016799,0.015577,-0.0015272
-0.025879,0.60801,1.1964,9.5713,-0.015882,0.014661,-0.00061087
-0.027313,0.50995,1.1964,9.4732,-0.016493,0.01405,-0.0018326
-0.029755,0.56879,1.1768,9.4732,-0.015882,0.01405,-0.0027489
-0.029083,0.70608,1.2553,9.4928,-0.014966,0.015577,-0.0033598
-0.033051,0.74531,1.2553,9.5713,-0.015882,0.016799,-0.002138
-0.031677,0.5884,1.1964,9.3752,-0.015577,0.018326,-0.0015272
-0.019775,0.54917,1.1964,9.434,-0.016188,0.017104,-0.0012217
-0.015503,0.54917,1.2356,9.5321,-0.015882,0.015272,-0.002138
-0.014771,0.41188,1.2553,9.5909,-0.015882,0.014966,-0.0027489
-0.024353,0.74531,1.1572,9.434,-0.01405,0.016188,-0.002138
-0.028046,0.74531,1.1768,9.5321,-0.013134,0.017104,-0.0018326
-0.030273,0.56879,1.1572,9.5713,-0.014355,0.015272,-0.0024435
-0.02597,0.56879,1.1964,9.434,-0.015272,0.01405,-0.0030543
-0.018372,0.72569,1.1572,9.5125,-0.015882,0.015577,-0.0024435
-0.01123,0.74531,1.1964,9.5713,-0.017104,0.014355,-0.002138
-0.013214,0.74531,1.1768,9.5713,-0.014355,0.015272,-0.0024435
-0.02179,0.74531,1.2553,9.5321,-0.014966,0.015882,-0.0024435
-0.019897,0.74531,1.2945,9.5321,-0.017104,0.015272,-0.0033598
-0.025391,0.72569,1.2553,9.5713,-0.015272,0.015577,-0.0033598
-0.024506,0.45111,1.2945,9.5713,-0.015577,0.016799,-0.0033598
-0.028656,0.60801,1.2553,9.4928,-0.014966,0.016188,-0.0024435
-0.02179,0.60801,1.1964,9.5125,-0.016799,0.015577,-0.0036652
-0.021423,0.66685,1.1768,9.5125,-0.015577,0.016188,-0.0018326
-0.012939,0.74531,1.2553,9.5713,-0.015882,0.015272,-0.0012217
-0.021271,0.74531,1.1768,9.5125,-0.015272,0.015272,-0.0012217
-0.029236,0.74531,1.0199,9.5125,-0.014355,0.015577,-0.0009163
-0.03183,0.41188,1.2553,9.5713,-0.014966,0.015577,-0.0015272
-0.03183,0.49033,1.2553,9.6301,-0.014355,0.015577,-0.0036652
-0.030975,0.72569,1.0199,9.5125,-0.013134,0.015882,-0.002138
-0.017944,0.5884,1.2553,9.5125,-0.014355,0.013439,-0.0030543
-0.020447,0.72569,1.1768,9.5125,-0.014966,0.015577,-0.002138
-0.015106,0.41188,1.2356,9.5321,-0.015272,0.016188,-0.0009163
-0.015381,0.56879,1.2553,9.4928,-0.014661,0.014966,-0.0012217
-0.020538,0.72569,1.3141,9.5321,-0.014966,0.014661,-0.0024435
-0.028503,0.66685,1.1572,9.4928,-0.01405,0.015272,-0.0024435
-0.028748,0.49033,1.2553,9.6301,-0.012828,0.016188,-0.002138
-0.019531,0.66685,1.2553,9.5713,-0.016493,0.01741,-0.0018326
-0.013855,0.66685,1.2553,9.4928,-0.016493,0.021075,-0.0015272
-0.017517,0.70608,1.1572,9.5321,-0.016188,0.018326,-0.0030543
-0.021484,0.49033,1.1376,9.6301,-0.014966,0.016493,-0.0030543
-0.024841,0.49033,1.1964,9.6301,-0.016188,0.015577,-0.002138
-0.030487,0.49033,1.1964,9.5713,-0.017104,0.015577,-0.0015272
-0.024384,0.39227,1.2356,9.5909,-0.016188,0.015577,-0.0018326
-0.019226,0.5884,1.1964,9.434,-0.016799,0.015882,-0.0012217
-0.020752,0.74531,1.2945,9.5713,-0.014966,0.01405,-0.0024435
-0.01947,0.5884,1.1964,9.5125,-0.016188,0.011912,-0.0030543
-0.019806,0.72569,1.1964,9.5713,-0.017715,0.013134,-0.0015272
-0.02243,0.74531,1.1768,9.5125,-0.017715,0.014355,-0.0018326
-0.023315,0.74531,1.1376,9.5321,-0.018021,0.015272,-0.0018326
-0.018372,0.49033,1.2553,9.6301,-0.01741,0.015882,-0.002138
-0.024078,0.41188,1.1964,9.6301,-0.015882,0.015577,-0.002138
-0.022278,0.66685,1.2945,9.5321,-0.014355,0.014966,-0.002138
-0.02002,0.72569,1.0787,9.5125,-0.014355,0.014355,-0.0015272
-0.01767,0.56879,1.1376,9.6694,-0.014355,0.010385,-0.0015272
-0.024017,0.66685,1.3141,9.5125,-0.016493,0.012217,-0.0030543
-0.019928,0.72569,1.2356,9.5713,-0.016493,0.014966,-0.0027489
-0.011414,0.41188,1.2945,9.5713,-0.017104,0.014966,-0.0027489
-0.0112,0.66685,1.3141,9.5321,-0.016188,0.015577,-0.0030543
-0.0075378,0.70608,1.1964,9.5125,-0.015577,0.015882,-0.0018326
-0.018921,0.70608,1.1768,9.5713,-0.015882,0.015272,-0.0015272
-0.020233,0.43149,1.2553,9.5125,-0.017104,0.015577,-0.0030543
-0.012665,0.56879,1.2553,9.5125,-0.017104,0.018631,-0.0027489
-0.02832,0.5884,1.2553,9.5125,-0.016799,0.018021,-0.0030543
-0.022644,0.66685,1.2553,9.5321,-0.014966,0.015882,-0.0030543
-0.022552,0.5884,1.2553,9.5713,-0.014661,0.014661,-0.0051924
-0.026978,0.74531,1.1768,9.5125,-0.016493,0.014355,-0.0045815
-0.019379,0.70608,1.1572,9.5125,-0.017104,0.013744,-0.0027489
-0.022369,0.5884,1.1572,9.3752,-0.016188,0.014355,-0.0030543
-0.039856,0.74531,1.1376,9.5125,-0.018021,0.015882,-0.002138
-0.023865,0.72569,1.2553,9.5713,-0.018326,0.013439,-0.0018326
-0.019836,0.74531,1.1376,9.5125,-0.015882,0.014355,-0.002138
-0.018829,0.56879,1.1768,9.5321,-0.017104,0.015577,-0.0027489
-0.013672,0.41188,1.1964,9.6301,-0.018021,0.015577,-0.0012217
-0.018616,0.70608,1.1572,9.434,-0.016188,0.015882,-0.0024435
-0.022186,0.74531,1.2553,9.5321,-0.015272,0.016493,-0.0033598
-0.024445,0.56879,1.1572,9.6301,-0.017104,0.016799,-0.002138
-0.016724,0.49033,1.2553,9.5713,-0.017715,0.012828,-0.0024435
-0.017914,0.72569,1.2553,9.5321,-0.01741,0.018021,-0.0024435
-0.024536,0.41188,1.2553,9.6301,-0.015577,0.016188,-0.0033598
-0.022095,0.54917,1.2356,9.5321,-0.014966,0.013744,-0.0042761
-0.017944,0.39227,1.2553,9.5713,-0.015272,0.014661,-0.0030543
-0.013702,0.66685,1.2945,9.5125,-0.016493,0.014661,-0.0024435
-0.016144,0.74531,1.1964,9.5125,-0.014966,0.014355,-0.0027489
-0.014526,0.72569,1.2553,9.5125,-0.013134,0.015577,-0.0027489
-0.021332,0.74531,1.1572,9.4732,-0.017104,0.016188,-0.0015272
-0.013367,0.72569,1.2553,9.5125,-0.01741,0.013439,-0.0027489
-0.019592,0.54917,1.1572,9.5125,-0.014355,0.012217,-0.0024435
-0.017426,0.54917,1.1768,9.4732,-0.014966,0.013439,-0.002138
-0.01532,0.49033,1.2356,9.5321,-0.016493,0.015577,-0.0027489
-0.018311,0.39227,1.2553,9.6301,-0.017104,0.014355,-0.0036652
-0.039978,0.54917,1.2945,9.4732,-0.015577,0.013439,-0.0030543
-0.020325,0.56879,1.1572,9.434,-0.015272,0.016493,-0.0018326
-0.024536,0.70608,1.2553,9.4928,-0.016188,0.016188,-0.0024435
-0.019958,0.74531,1.2553,9.5713,-0.015272,0.01741,-0.0024435
-0.017212,0.72569,1.1768,9.5321,-0.014661,0.016799,-0.0036652
-0.028473,0.60801,1.2356,9.5125,-0.014966,0.014661,-0.0048869
-0.023132,0.56879,1.1964,9.4928,-0.015577,0.015272,-0.0048869
-0.02301,0.56879,1.1572,9.3752,-0.014355,0.016799,-0.002138
-0.018005,0.54917,1.1964,9.4732,-0.016188,0.016799,-0.0027489
-0.012268,0.74531,1.1964,9.5909,-0.01741,0.01741,-0.0024435
-0.010315,0.64724,1.2553,9.5125,-0.015272,0.014661,-0.0027489
-0.01532,0.49033,1.1964,9.4732,-0.016799,0.010996,-0.0030543
-0.023102,0.72569,1.1768,9.5125,-0.016799,0.013134,-0.002138
-0.02832,0.64724,1.1768,9.5125,-0.015882,0.014966,-0.0009163
-0.023163,0.49033,1.2553,9.5713,-0.015882,0.016188,-0.00061087
-0.016571,0.56879,1.1964,9.5125,-0.016493,0.015882,-0.0030543
-0.013916,0.41188,1.2553,9.6301,-0.015577,0.015272,-0.0030543
-0.016663,0.74531,1.1572,9.5125,-0.014966,0.016188,-0.0027489
-0.020355,0.66685,1.1768,9.5125,-0.015882,0.015272,-0.0018326
-0.020111,0.74531,1.2553,9.4928,-0.016493,0.014661,-0.0018326
-0.016663,0.54917,1.2945,9.4732,-0.016799,0.014966,-0.0039706
-0.0085754,0.50995,1.1572,9.5713,-0.016799,0.015577,-0.0036652
-0.0086365,0.66685,1.1572,9.5321,-0.017715,0.015272,-0.0030543
-0.020935,0.70608,1.2945,9.4928,-0.015272,0.015272,-0.0018326
-0.024078,0.72569,1.2553,9.5321,-0.01405,0.017104,-0.002138
-0.021271,0.74531,1.0395,9.5125,-0.015577,0.018631,-0.002138
-0.018341,0.5884,1.1964,9.5125,-0.015577,0.014661,-0.0018326
-0.019318,0.56879,1.0003,9.6301,-0.015882,0.016799,-0.0024435
-0.012726,0.56879,1.2553,9.4928,-0.015882,0.016799,-0.002138
-0.020569,0.60801,1.1964,9.5125,-0.016188,0.016188,-0.0030543
-0.021179,0.66685,1.2553,9.5125,-0.016799,0.015272,-0.0030543
-0.024231,0.74531,1.0395,9.5125,-0.018326,0.016493,-0.0048869
-0.039948,0.70608,1.2553,9.5125,-0.017715,0.016799,-0.0039706
-0.021393,0.74531,1.2553,9.5321,-0.016493,0.016799,-0.002138
-0.012115,0.72569,1.2553,9.5321,-0.018021,0.016188,-0.0009163
-0.0070801,0.49033,1.1964,9.5125,-0.01741,0.014661,-0.0015272
-0.024597,0.80415,1.0787,9.5125,-0.015882,0.014661,-0.0030543
-0.020142,0.66685,1.1964,9.6301,-0.015882,0.016799,-0.0027489
-0.018951,0.54917,1.2553,9.434,-0.015882,0.01741,-0.0015272
-0.018616,0.74531,1.2945,9.5125,-0.015577,0.015577,-0.00061087
-0.020386,0.60801,1.2553,9.4928,-0.015577,0.015272,-0.0024435
-0.013855,0.76492,1.2553,9.5125,-0.015272,0.016493,-0.0024435
-0.01535,0.74531,1.1572,9.5125,-0.016493,0.015882,-0.0015272
-0.011322,0.66685,1.1964,9.5125,-0.018326,0.018937,-0.0024435
-0.026215,0.41188,1.1964,9.5909,-0.018021,0.016799,-0.002138
-0.022339,0.66685,1.2945,9.5125,-0.01741,0.015577,0.00030543
-0.018341,0.49033,1.1768,9.5321,-0.01741,0.016188,0
-0.015045,0.66685,1.2553,9.5125,-0.016493,0.015882,-0.0024435
-0.024811,0.72569,1.1572,9.5321,-0.015882,0.016493,-0.0024435
-0.022858,0.60801,1.2553,9.5125,-0.013744,0.016188,-0.0009163
-0.01825,0.49033,1.1768,9.5713,-0.017104,0.015577,-0.0018326
-0.019379,0.56879,1.1964,9.5125,-0.016188,0.014355,-0.0015272
-0.011108,0.70608,1.1964,9.5321,-0.016188,0.014661,-0.0030543
-0.015259,0.60801,1.2553,9.5125,-0.016188,0.015882,-0.0018326
-0.016083,0.66685,1.1768,9.5321,-0.017715,0.016188,-0.0015272
-0.017975,0.74531,1.1964,9.5713,-0.018326,0.013744,-0.0015272
-0.015747,0.56879,1.1964,9.4928,-0.016188,0.013744,-0.0012217
-0.020813,0.74531,1.0395,9.5125,-0.015577,0.013439,-0.0012217
-0.017487,0.66685,1.1964,9.5125,-0.016799,0.015882,-0.0024435
-0.011597,0.72569,1.1376,9.4928,-0.01741,0.018326,-0.0042761
-0.014221,0.39227,1.2553,9.5713,-0.015882,0.016799,-0.0027489
-0.013306,0.74531,1.1768,9.5125,-0.016493,0.015577,-0.0036652
-0.024872,0.54917,1.2945,9.6301,-0.018326,0.014661,-0.0024435
-0.027649,0.54917,1.1572,9.6497,-0.016799,0.015272,-0.0024435
-0.0087585,0.56879,1.2553,9.4928,-0.017104,0.016493,-0.0027489
-0.010193,0.74531,1.0395,9.5125,-0.018326,0.016799,-0.0015272
-0.0092773,0.39227,1.2553,9.5321,-0.016493,0.015882,-0.0036652
-0.0159,0.60801,1.2553,9.5125,-0.014966,0.018631,-0.0036652
-0.019104,0.49033,1.2553,9.6301,-0.014355,0.01741,-0.0033598
-0.014191,0.60801,1.2356,9.5713,-0.016493,0.015882,-0.0030543
-0.0050354,0.72569,1.1964,9.5125,-0.017715,0.015272,-0.0024435
-0.01358,0.74531,1.1768,9.5713,-0.015882,0.015272,-0.0027489
-0.014465,0.74531,1.1572,9.5125,-0.014966,0.014966,-0.002138
-0.016998,0.56879,1.2553,9.4928,-0.015577,0.016188,-0.002138
-0.024536,0.74531,1.1768,9.434,-0.016493,0.015882,-0.0009163
-0.035248,0.5884,1.1572,9.434,-0.014966,0.014661,-0.0015272
-0.013275,0.56879,1.1768,9.5713,-0.014966,0.015272,-0.002138
-0.016113,0.54917,1.2553,9.5125,-0.015882,0.015577,-0.0015272
-0.017761,0.66685,1.2356,9.5125,-0.015882,0.014966,-0.002138
-0.015869,0.74531,1.0395,9.4732,-0.015882,0.015272,-0.0030543
-0.016174,0.74531,1.1964,9.5713,-0.017104,0.015272,-0.0030543
-0.012054,0.74531,1.2553,9.5125,-0.018326,0.015882,-0.002138
-0.0071106,0.74531,1.2356,9.5125,-0.014661,0.014966,-0.0036652
-0.019836,0.54917,1.2356,9.6301,-0.016493,0.013134,-0.0033598
-0.013245,0.72569,1.1964,9.5713,-0.015882,0.013439,-0.0024435
-0.01416,0.41188,1.2553,9.6497,-0.016799,0.015882,-0.0018326
0.0039978,0.74531,1.1572,9.4928,-0.016799,0.016493,-0.0015272
-0.007843,0.49033,1.2553,9.6301,-0.017104,0.015577,-0.0039706
-0.0088501,0.43149,1.2553,9.5713,-0.014966,0.014966,-0.0033598
-0.012787,0.72569,1.1964,9.5713,-0.014966,0.015882,-0.0030543
-0.019318,0.66685,1.2553,9.5125,-0.016493,0.014661,-0.002138
-0.01474,0.56879,1.0199,9.6694,-0.015272,0.014661,-0.0030543
-0.0020447,0.80415,1.1964,9.5125,-0.014966,0.015577,-0.0015272
-0.023041,0.70608,1.2553,9.5713,-0.015577,0.016799,-0.002138
-0.016846,0.56879,1.2553,9.5125,-0.016493,0.015272,-0.0036652
-0.012451,0.76492,1.2553,9.5321,-0.015882,0.015272,-0.0012217
-0.009552,0.41188,1.2553,9.5321,-0.015882,0.017104,-0.0009163
-0.0099182,0.50995,1.1964,9.5125,-0.014966,0.016188,-0.002138
-0.01825,0.56879,1.1768,9.434,-0.01741,0.015577,-0.002138
-0.015717,0.74531,1.1572,9.5125,-0.018021,0.018326,-0.0015272
-0.014526,0.74531,1.1964,9.5321,-0.016188,0.017104,-0.0042761
-0.013428,0.45111,1.3141,9.5713,-0.016493,0.014661,-0.0027489
-0.012665,0.49033,1.1964,9.5909,-0.016493,0.015577,-0.0015272
-0.022888,0.5884,1.1572,9.5321,-0.014966,0.015577,-0.0036652
-0.0095215,0.70608,1.2945,9.5125,-0.015577,0.015272,-0.0036652
-0.015991,0.74531,1.2945,9.5713,-0.016799,0.014661,-0.0018326
-0.019684,0.5884,1.1768,9.5125,-0.016493,0.01405,-0.0024435
-0.013397,0.74531,1.1964,9.5713,-0.016493,0.0094684,-0.0024435
-0.0090942,0.74531,1.1964,9.5713,-0.015577,0.011912,-0.00061087
-0.02066,0.72569,1.1768,9.5125,-0.014966,0.015272,-0.0018326
-0.017944,0.43149,1.3141,9.5713,-0.015577,0.016493,-0.0030543
-0.012939,0.41188,1.2356,9.6301,-0.015882,0.016493,-0.002138
-0.014526,0.45111,1.2553,9.5909,-0.015272,0.01741,-0.002138
-0.016327,0.54917,1.1768,9.3752,-0.013744,0.016188,-0.0018326
-0.011322,0.56879,1.2553,9.434,-0.013744,0.015882,-0.0033598
-0.01712,0.70608,1.0199,9.5125,-0.015577,0.018326,-0.0030543
-0.015167,0.56879,1.2553,9.434,-0.016493,0.017104,-0.0027489
-0.011902,0.56879,1.1964,9.5125,-0.015882,0.016188,-0.0039706
-0.018219,0.41188,1.2553,9.5713,-0.016799,0.016188,-0.0042761
-0.016083,0.66685,1.1964,9.4928,-0.016799,0.015882,-0.0024435
-0.015259,0.76492,1.1964,9.6301,-0.015577,0.016493,-0.0012217
-0.019012,0.56879,1.1376,9.6301,-0.015882,0.016188,-0.0027489
-0.01239,0.49033,1.2553,9.5713,-0.015882,0.017104,-0.0033598
-0.0033569,0.49033,1.2553,9.5713,-0.014661,0.019548,-0.0024435
-0.007782,0.39227,1.2945,9.5713,-0.014966,0.016188,-0.0015272
-0.019409,0.62763,1.1964,9.434,-0.014355,0.014966,-0.0015272
-0.015442,0.54917,1.1572,9.6301,-0.014355,0.015577,-0.0030543
-0.013733,0.74531,1.1572,9.5125,-0.016493,0.015882,-0.0036652
-0.011475,0.64724,1.1768,9.5125,-0.016493,0.015882,-0.0033598
-0.012329,0.64724,1.2356,9.434,-0.014355,0.016188,-0.0045815
-0.0040588,0.74531,1.2553,9.5321,-0.015272,0.016188,-0.002138
-0.013641,0.56879,1.1768,9.5321,-0.017104,0.016188,-0.0033598
-0.013702,0.49033,1.2553,9.5713,-0.01741,0.015882,-0.0030543
-0.0072632,0.74531,1.1964,9.5321,-0.014966,0.015882,-0.0015272
-0.0056458,0.60801,1.1572,9.5713,-0.017104,0.01741,-0.00030543
-0.01236,0.60801,1.1964,9.5125,-0.017104,0.01741,-0.0009163
-0.01181,0.5884,1.2356,9.5321,-0.014355,0.017104,-0.0024435
-0.011658,0.5884,1.1572,9.5713,-0.016493,0.016493,-0.0024435
-0.015289,0.66685,1.2553,9.4928,-0.016799,0.01405,-0.0030543
-0.012054,0.74531,1.1572,9.5321,-0.016493,0.011912,-0.0024435
-0.0072632,0.41188,1.2945,9.5321,-0.015882,0.013744,-0.0027489
-0.016541,0.66685,1.2945,9.4928,-0.018937,0.01405,-0.0018326
-0.018677,0.74531,1.2945,9.5713,-0.01741,0.013439,-0.0036652
-0.01355,0.56879,1.1572,9.434,-0.016799,0.01405,-0.0027489
-0.012024,0.74531,1.2553,9.5321,-0.015272,0.014966,-0.002138
-0.013214,0.60801,1.1964,9.5125,-0.014355,0.015577,-0.002138
-0.012512,0.49033,1.2553,9.5713,-0.017715,0.015882,-0.0027489
-0.016541,0.74531,1.1768,9.5125,-0.016188,0.017104,-0.0027489
-0.018921,0.60801,1.2553,9.5125,-0.014966,0.015272,-0.0027489
-0.00082397,0.5884,1.1572,9.3752,-0.016493,0.016188,-0.002138
-0.0061646,0.54917,1.1572,9.5713,-0.017715,0.01741,-0.002138
-0.00088501,0.66685,1.2553,9.5125,-0.017104,0.015882,-0.0030543
-0.0086365,0.72569,1.0395,9.5125,-0.018326,0.015882,-0.0030543
-0.013306,0.66685,1.1964,9.5125,-0.019548,0.015882,-0.0033598
-0.01532,0.66685,1.2553,9.5125,-0.017104,0.016799,-0.0030543
-0.0066223,0.54917,1.0787,9.6694,-0.018937,0.018021,-0.002138
-0.022888,0.54917,1.1572,9.6497,-0.018021,0.015882,-0.0030543
-0.017731,0.5884,1.2553,9.4928,-0.015577,0.015882,-0.0018326
-0.014069,0.72569,1.0395,9.5125,-0.015272,0.014661,-0.002138
-0.011627,0.5884,1.1768,9.4928,-0.015272,0.014355,-0.0033598
-0.0040588,0.66685,1.2945,9.5713,-0.015272,0.014966,-0.0027489
-0.0024109,0.5884,1.1572,9.5125,-0.014966,0.015272,-0.0012217
-0.0066833,0.49033,1.2553,9.5909,-0.013134,0.014661,-0.0033598
-0.022858,0.74531,1.2356,9.5713,-0.012828,0.011606,-0.0024435
-0.022614,0.56879,1.1768,9.4732,-0.01405,0.014966,-0.0027489
-0.0099792,0.76492,1.0199,9.5125,-0.015577,0.015577,-0.0027489
0.0013428,0.56879,1.1964,9.434,-0.014966,0.016493,-0.0036652
0.0047607,0.39227,1.2553,9.5909,-0.014355,0.016493,-0.0024435
-0.016418,0.74531,1.2356,9.5125,-0.014661,0.014661,-0.002138
-0.021484,0.72569,1.1964,9.5713,-0.01405,0.015577,-0.002138
-0.0099792,0.70608,1.0395,9.4928,-0.015577,0.01741,-0.0015272
-0.0018616,0.66685,1.2553,9.5125,-0.016799,0.020159,-0.002138
-0.011169,0.49033,1.2553,9.5125,-0.016188,0.018326,-0.0012217
-0.017273,0.60801,1.1572,9.5713,-0.015272,0.015272,-0.0015272
-0.018768,0.74531,1.2553,9.5125,-0.015272,0.014355,-0.0015272
-0.0088806,0.54917,1.2553,9.5713,-0.014355,0.016188,-0.0024435
-0.0078735,0.72569,1.1964,9.5125,-0.014355,0.016493,-0.0030543
-0.015503,0.60801,1.1768,9.4928,-0.014966,0.015882,-0.0018326
-0.012665,0.54917,1.2553,9.5713,-0.016493,0.015882,-0.0027489
-0.01178,0.56879,1.1572,9.434,-0.016493,0.013439,-0.0039706
-0.013916,0.66685,1.2553,9.4928,-0.015882,0.015272,-0.0015272
-0.012756,0.54917,1.1964,9.5713,-0.015577,0.01741,-0.0033598
-0.013153,0.41188,1.2945,9.6497,-0.01741,0.015577,-0.0033598
-0.013092,0.72569,1.1768,9.5321,-0.017104,0.015882,-0.0036652
-0.020111,0.49033,1.2553,9.5909,-0.017104,0.017104,-0.0030543
0.00030518,0.54917,1.2553,9.5321,-0.018937,0.015272,-0.0015272
-0.0074158,0.41188,1.2553,9.6301,-0.018021,0.014966,-0.0036652
-0.0074463,0.72569,1.1572,9.4928,-0.016493,0.014355,-0.0027489
-0.010986,0.74531,1.1572,9.5713,-0.016493,0.014355,-0.0030543
-0.017151,0.45111,1.2553,9.5909,-0.016799,0.015882,-0.0030543
-0.010712,0.49033,1.2553,9.5713,-0.016188,0.015272,-0.0036652
-0.0091248,0.74531,1.1572,9.4928,-0.016799,0.014966,-0.0033598
-0.018433,0.70608,1.1572,9.4928,-0.016799,0.016188,-0.0051924
-0.015289,0.56879,1.2356,9.5125,-0.018631,0.016188,-0.0054978
-0.0059509,0.41188,1.2945,9.5909,-0.016188,0.015272,-0.0027489
-0.0065613,0.56879,1.1768,9.4732,-0.015577,0.01405,-0.0030543
-0.011261,0.56879,1.1572,9.434,-0.014966,0.014355,-0.0033598
-0.0068054,0.74531,1.1964,9.5125,-0.016493,0.015577,-0.0033598
-0.012482,0.49033,1.2945,9.6497,-0.018326,0.016188,-0.0030543
-0.010101,0.60801,1.1964,9.5125,-0.016188,0.015882,-0.0024435
-0.015991,0.41188,1.2553,9.5909,-0.015882,0.014661,-0.0027489
-0.0061646,0.74531,1.1768,9.5125,-0.01405,0.014966,-0.0027489
-0.019409,0.66685,1.1572,9.5713,-0.016493,0.015272,-0.0030543
-0.014496,0.66685,1.2356,9.5125,-0.016188,0.012523,-0.0042761
-0.010498,0.74531,1.0395,9.4928,-0.016188,0.013134,-0.0009163
-0.0084229,0.64724,1.2553,9.5321,-0.015577,0.013744,-0.0012217
-0.012665,0.56879,1.2356,9.5125,-0.015272,0.014661,-0.0024435
-0.013916,0.74531,1.1572,9.6301,-0.016493,0.014661,-0.0030543
-0.01181,0.49033,1.2553,9.5713,-0.016188,0.014966,-0.0027489
-0.012451,0.56879,1.1572,9.5909,-0.015577,0.015577,-0.0015272
-0.0085449,0.70608,1.3141,9.5125,-0.016493,0.015577,-0.002138
0.0015259,0.5884,1.1964,9.5321,-0.018021,0.018326,-0.002138
-0.010864,0.72569,1.2553,9.5321,-0.015577,0.016493,-0.0036652
-0.023895,0.70608,1.2356,9.5909,-0.014355,0.015577,-0.0027489
-0.017334,0.70608,1.1768,9.5321,-0.016493,0.016799,-0.0027489
-0.002655,0.72569,1.2356,9.5125,-0.015882,0.016188,-0.0036652
-0.010529,0.56879,1.1964,9.3555,-0.015577,0.014661,-0.0036652
-0.0094604,0.56879,1.1964,9.4732,-0.017104,0.01405,-0.0042761
-0.015686,0.70608,1.2553,9.5125,-0.014966,0.01405,-0.0015272
-0.012115,0.56879,1.0983,9.689,-0.014966,0.010996,-0.0015272
-0.014587,0.60801,1.1768,9.4928,-0.015272,0.01405,-0.0027489
-0.011902,0.72569,1.1572,9.4928,-0.015272,0.016799,-0.0027489
-0.0037537,0.74531,1.1768,9.5713,-0.014661,0.016799,-0.0015272
-0.0054626,0.56879,1.1768,9.5713,-0.013744,0.015272,-0.0024435
-0.0083923,0.49033,1.2553,9.5713,-0.014966,0.015272,-0.0030543
-0.011108,0.5884,1.1964,9.4144,-0.016493,0.015882,-0.0027489
-0.011475,0.74531,1.2553,9.5713,-0.016188,0.016188,-0.0027489
-0.011963,0.66685,1.2553,9.5125,-0.014355,0.016799,-0.0033598
-0.010834,0.72569,1.2553,9.5125,-0.015882,0.015882,-0.0036652
-0.011414,0.74531,1.2553,9.5713,-0.017104,0.015272,-0.0030543
-0.0072327,0.74531,1.0199,9.4732,-0.015272,0.015272,-0.0024435
-0.0086975,0.64724,1.1964,9.4732,-0.015577,0.016188,-0.0027489
-0.012665,0.49033,1.2945,9.5713,-0.014966,0.016799,-0.0039706
-0.014648,0.66685,1.2553,9.5321,-0.015272,0.016493,-0.0024435
-0.013336,0.66685,1.1768,9.434,-0.016493,0.016799,-0.0009163
-0.0010681,0.72569,1.1964,9.5713,-0.016188,0.014355,-0.0015272
-0.0060425,0.56879,1.1572,9.3555,-0.018021,0.01405,-0.0036652
-0.0084534,0.66685,1.1964,9.5321,-0.018937,0.014661,-0.0033598
-0.026337,0.66685,1.2553,9.5713,-0.018326,0.015577,-0.0027489
-0.013763,0.56879,1.1572,9.5713,-0.017715,0.014355,-0.002138
-0.0052185,0.50995,1.2553,9.5713,-0.014966,0.014355,-0.0024435
-0.013031,0.41188,1.2553,9.6497,-0.014966,0.015272,-0.0024435
-0.015594,0.66685,1.2553,9.5125,-0.018326,0.015272,-0.0036652
-0.019897,0.41188,1.2553,9.5713,-0.018937,0.019853,-0.0024435
-0.013519,0.56879,1.1768,9.4732,-0.017715,0.018631,-0.002138
-0.012451,0.66685,1.2553,9.5321,-0.016188,0.016188,-0.0030543
-0.012115,0.56879,1.1376,9.5713,-0.014966,0.017104,-0.0036652
-0.014252,0.50995,1.1964,9.434,-0.015882,0.017104,-0.0027489
-0.012115,0.72569,1.1768,9.5125,-0.017104,0.015577,-0.002138
-0.01828,0.56879,1.1572,9.4732,-0.015882,0.014966,-0.0027489
-0.011414,0.74531,1.1964,9.5909,-0.016493,0.015577,-0.0015272
0.00054932,0.66685,1.1768,9.5125,-0.01741,0.01405,-0.0015272
-0.015656,0.66685,1.1572,9.5321,-0.016799,0.01405,-0.0036652
-0.013855,0.74531,1.0003,9.4928,-0.018021,0.014966,-0.0039706
-0.019073,0.56879,1.2553,9.5125,-0.017715,0.015577,-0.0045815
-0.0054321,0.56879,1.1768,9.4732,-0.016493,0.016799,-0.0048869
-0.0035095,0.74531,1.1768,9.5713,-0.014966,0.014661,-0.0036652
-0.015045,0.64724,1.1964,9.4928,-0.014661,0.01405,-0.0012217
-0.011353,0.74531,1.0395,9.4928,-0.018326,0.012828,-0.002138
-0.020477,0.74531,1.3141,9.5125,-0.018326,0.011606,-0.0030543
-0.010925,0.74531,1.1768,9.6301,-0.016799,0.013439,-0.00030543
-0.0049133,0.74531,1.1964,9.5713,-0.016799,0.01741,-0.00030543
-0.01416,0.54917,1.1572,9.6301,-0.016188,0.01741,-0.0012217
-0.014435,0.60801,1.2553,9.434,-0.015882,0.015272,-0.0024435
-0.01001,0.80415,1.1964,9.5321,-0.016493,0.014661,-0.0036652
-0.0075073,0.56879,1.1572,9.5713,-0.016188,0.015577,-0.0027489
-0.010193,0.56879,1.2553,9.4928,-0.015272,0.016799,-0.0030543
-0.0055847,0.49033,1.2553,9.5713,-0.018326,0.018021,-0.0033598
0.0041199,0.72569,1.1768,9.5713,-0.016799,0.015882,-0.0048869
-0.0067444,0.56879,1.2553,9.4732,-0.018021,0.015882,-0.0030543
-0.0062256,0.54917,1.1572,9.3752,-0.01741,0.015577,-0.0015272
-0.016296,0.66685,1.2356,9.5125,-0.014661,0.015577,-0.0027489
-0.015839,0.49033,1.1964,9.5713,-0.016799,0.015577,-0.0042761
-0.0047607,0.74531,1.1964,9.5713,-0.015577,0.015272,-0.0042761
-0.0048523,0.39227,1.2553,9.5713,-0.018021,0.015272,-0.0042761
-0.02005,0.50995,1.2553,9.6497,-0.014966,0.015577,-0.0030543
-0.012787,0.56879,1.1768,9.5125,-0.016493,0.016188,-0.0045815
-0.011536,0.74531,1.2553,9.5713,-0.018326,0.016188,-0.0024435
-0.011749,0.45111,1.1768,9.5321,-0.018021,0.014661,-0.0024435
-0.00048828,0.60801,1.1964,9.5125,-0.016188,0.015272,-0.0042761
-0.01181,0.5884,1.2356,9.5125,-0.015882,0.015577,-0.0045815
-0.0062561,0.74531,1.1572,9.5713,-0.019242,0.014966,-0.0058032
-0.0099182,0.56879,1.1964,9.5321,-0.01741,0.016188,-0.0027489
-0.0097656,0.41188,1.0395,9.5321,-0.017715,0.015272,-0.0045815
-0.0048828,0.60801,1.2553,9.5125,-0.017104,0.01405,-0.0024435
-0.015015,0.56879,1.2553,9.4732,-0.016188,0.014966,-0.0027489
-0.016449,0.74531,1.1768,9.5713,-0.01741,0.015577,-0.0033598
-0.0087891,0.56879,1.2553,9.5125,-0.01741,0.015577,-0.0024435
-0.0076294,0.74531,1.1768,9.5713,-0.017715,0.015882,-0.0036652
-0.009613,0.49033,1.1964,9.5713,-0.017104,0.015882,-0.0042761
-0.0070496,0.72569,1.0199,9.5125,-0.015272,0.015577,-0.0042761
-0.0047607,0.74531,1.1572,9.4928,-0.016493,0.013134,-0.0018326
-0.0056152,0.56879,1.1964,9.5125,-0.018021,0.013134,-0.0048869
-0.013184,0.56879,1.1572,9.5909,-0.018021,0.014661,-0.0042761
-0.018585,0.66685,1.2945,9.4928,-0.016493,0.014661,-0.0036652
-0.013916,0.70608,1.0787,9.4928,-0.017104,0.015577,-0.0033598
-0.010681,0.66685,1.2356,9.5125,-0.016493,0.016188,-0.0039706
-0.0097961,0.56879,1.2356,9.4928,-0.014355,0.016188,-0.0036652
-0.0048218,0.66685,1.2553,9.5321,-0.016799,0.015272,-0.0039706
-0.0060425,0.41188,1.1768,9.6301,-0.017104,0.018326,-0.0036652
-0.0098877,0.74531,1.2356,9.5321,-0.016493,0.018021,-0.002138
-0.0036926,0.74531,1.1572,9.5713,-0.016493,0.016188,-0.0027489
-0.011169,0.60801,1.2356,9.5321,-0.016188,0.014355,-0.0030543
-0.015839,0.72569,1.1964,9.5909,-0.016799,0.013439,-0.0036652
-0.0090637,0.49033,1.2553,9.5713,-0.018937,0.013439,-0.0033598
-0.012604,0.60801,1.1964,9.4732,-0.018326,0.014355,-0.0039706
-0.0088806,0.56879,1.2553,9.4928,-0.015882,0.014966,-0.0015272
-0.0090942,0.56879,1.1768,9.434,-0.016188,0.011301,-0.0015272
-0.011902,0.66685,1.1964,9.4928,-0.015577,0.012828,-0.0024435
-0.018372,0.56879,1.2553,9.4928,-0.015882,0.015882,-0.0045815
-0.0054321,0.74531,1.1964,9.5125,-0.016493,0.015577,-0.0045815
-0.013977,0.56879,1.2553,9.4928,-0.017104,0.014966,-0.0027489
-0.016144,0.45111,1.2553,9.5713,-0.016188,0.014966,-0.0030543
-0.024628,0.74531,1.0199,9.5125,-0.016799,0.015272,-0.0036652
-0.0095825,0.72569,1.1964,9.5125,-0.015272,0.014355,-0.0027489
-0.00067139,0.56879,1.2553,9.434,-0.015882,0.0097738,-0.0033598
-0.011414,0.74531,1.0787,9.5321,-0.016188,0.012217,-0.0036652
-0.016541,0.66685,1.2553,9.5125,-0.016799,0.015272,-0.0045815
-0.0067139,0.72569,1.2356,9.5125,-0.017715,0.014966,-0.0058032
-0.007019,0.60801,1.1768,9.5321,-0.016493,0.015577,-0.0045815
-0.0065613,0.56879,1.1964,9.4928,-0.016188,0.015882,-0.0036652
-0.0059204,0.74531,1.0199,9.5125,-0.015272,0.015272,-0.0030543
-0.011658,0.56879,1.1572,9.4732,-0.014966,0.015272,-0.0036652
-0.0042725,0.49033,1.2553,9.5713,-0.015272,0.01741,-0.0030543
0.0023804,0.60801,1.1572,9.5321,-0.014661,0.015577,-0.0030543
-0.003418,0.74531,1.1768,9.6301,-0.015882,0.015882,-0.0030543
-0.0050049,0.74531,1.2553,9.5713,-0.015577,0.017104,-0.0036652
-0.0062256,0.74531,1.1572,9.5321,-0.015577,0.015272,-0.0027489
-0.015839,0.74531,1.2356,9.6301,-0.017715,0.015577,-0.0015272
-0.0091248,0.74531,1.1572,9.6301,-0.015577,0.014966,-0.0036652
-0.012268,0.74531,1.1964,9.5909,-0.015577,0.015272,-0.002138
-0.0054932,0.49033,1.2945,9.6301,-0.016799,0.015882,-0.0024435
-0.0053101,0.74531,1.2356,9.5321,-0.015577,0.015882,-0.0027489
6.1035e-05,0.54917,1.2553,9.6301,-0.01405,0.016188,-0.0027489
0.0093994,0.76492,1.0395,9.5713,-0.013439,0.015577,-0.0036652
-0.0065613,0.5884,1.2356,9.5125,-0.014355,0.015882,-0.0018326
-0.0031738,0.74531,1.2553,9.5125,-0.016493,0.016493,-0.0030543
-0.0083618,0.74531,1.1964,9.5125,-0.015882,0.017715,-0.0027489
-0.013702,0.56879,1.2553,9.5125,-0.017104,0.016493,-0.0027489
-0.021667,0.41188,1.2356,9.5713,-0.018326,0.019548,-0.0030543
-0.014404,0.66685,1.1376,9.4928,-0.019242,0.016799,-0.0027489
-0.0015259,0.72569,1.1572,9.5321,-0.01741,0.014355,-0.0009163
-0.0059814,0.50995,1.1572,9.5713,-0.015272,0.015272,-0.0030543
-0.01709,0.45111,1.2553,9.5321,-0.016493,0.014661,-0.0030543
-0.018127,0.49033,1.1768,9.5713,-0.017104,0.014661,-0.0009163
-0.010437,0.56879,1.1964,9.5125,-0.016188,0.015577,-0.002138
-0.0063782,0.66685,1.1964,9.4928,-0.016799,0.013439,-0.0030543
-0.0050964,0.54917,1.1376,9.6497,-0.016493,0.012523,-0.0024435
-0.0082703,0.39227,1.2553,9.5909,-0.017715,0.013744,-0.002138
-0.020538,0.66685,1.1964,9.4928,-0.014966,0.015577,-0.0030543
-0.0059814,0.74531,1.1964,9.5713,-0.013744,0.015882,-0.0018326
-0.0061035,0.74531,1.2553,9.5125,-0.014355,0.017104,-0.0030543
-0.0042725,0.74531,1.2553,9.5713,-0.015272,0.018021,-0.0039706
-0.0039978,0.74531,1.0787,9.4732,-0.016493,0.016799,-0.0039706
-0.012177,0.70608,1.1964,9.5713,-0.016799,0.016799,-0.0033598
-0.0075073,0.56879,1.1964,9.5125,-0.016799,0.018326,-0.0027489
-0.0084534,0.74531,1.1572,9.5713,-0.015577,0.015882,-0.0012217
-0.014618,0.74531,1.0395,9.5321,-0.015882,0.014966,-0.002138
-0.0077515,0.72569,1.2553,9.5713,-0.017104,0.016799,-0.0039706
-0.017578,0.66685,1.2356,9.4928,-0.016188,0.01741,-0.0042761
-0.011353,0.74531,1.2553,9.5125,-0.016188,0.015272,-0.0030543
-0.0078125,0.72569,1.2356,9.5713,-0.016799,0.015882,-0.0030543
-0.0032654,0.74531,1.1964,9.5125,-0.016188,0.016188,-0.0024435
-0.0065613,0.66685,1.1964,9.5125,-0.015882,0.011301,-0.0018326
-0.0089111,0.54917,1.2553,9.6301,-0.01405,0.013134,-0.0030543
-0.0080872,0.72569,1.1572,9.5321,-0.014966,0.014661,-0.0042761
-0.008667,0.50995,1.2553,9.5713,-0.016188,0.014661,-0.0024435
-0.010193,0.35304,1.2553,9.6497,-0.016799,0.014355,-0.002138
-0.01239,0.56879,1.1964,9.4732,-0.017104,0.015577,-0.002138
-0.009491,0.56879,1.1572,9.434,-0.017104,0.016188,-0.0024435
-0.0056152,0.54917,1.1964,9.5321,-0.018937,0.016188,-0.0036652
0.00076294,0.74531,1.2553,9.5713,-0.01741,0.015577,-0.0015272
-0.012085,0.74531,1.1768,9.5713,-0.016799,0.014661,-0.0036652
-0.010529,0.66685,1.1572,9.5125,-0.016799,0.014661,-0.0030543
-0.0063477,0.56879,1.2553,9.4928,-0.016493,0.014661,-0.0027489
-0.0070496,0.74531,1.1768,9.6301,-0.015882,0.013744,-0.0027489
-0.0081482,0.74531,1.2553,9.5125,-0.014966,0.016188,-0.0030543
-0.017883,0.49033,1.2553,9.5321,-0.016188,0.015882,-0.0042761
-0.016113,0.74531,1.1964,9.5125,-0.016188,0.017104,-0.002138
-0.009613,0.72569,1.1768,9.5713,-0.016188,0.020159,-0.0024435
-0.0019226,0.56879,1.2553,9.4732,-0.016493,0.01741,-0.0027489
-0.0058594,0.74531,1.3141,9.5321,-0.015272,0.016188,-0.002138
-0.0020752,0.74531,1.1964,9.5125,-0.015272,0.015272,-0.0036652
-0.0065918,0.74531,1.2553,9.5321,-0.014966,0.014661,-0.0036652
-0.0054016,0.56879,1.1964,9.4732,-0.016493,0.015272,-0.0027489
-0.0022583,0.74531,1.2553,9.5125,-0.016493,0.016188,-0.0033598
-0.013763,0.56879,1.1572,9.5125,-0.016493,0.016799,-0.0033598
-0.0092468,0.56879,1.1964,9.5125,-0.016493,0.01405,-0.0027489
-0.011414,0.66685,1.1572,9.5125,-0.016188,0.015272,-0.0036652
-0.008667,0.56879,1.1768,9.4928,-0.015577,0.016493,-0.0039706
-0.006012,0.66685,1.1964,9.5125,-0.014661,0.016188,-0.0027489
0.0036316,0.70608,1.2553,9.4928,-0.016493,0.016188,-0.002138
0.00030518,0.74531,1.0395,9.5125,-0.016188,0.017104,-0.0036652
-0.015778,0.72569,1.2553,9.5321,-0.015882,0.016493,-0.0042761
-0.013885,0.74531,1.2553,9.5713,-0.016493,0.015882,-0.0039706
-0.012146,0.43149,1.2553,9.6301,-0.017104,0.018937,-0.002138
-0.0075073,0.66685,1.2553,9.4732,-0.017104,0.017715,-0.0027489
-0.00094604,0.56879,1.2553,9.4928,-0.016799,0.016799,-0.0027489
-0.010315,0.54917,1.1572,9.3752,-0.014966,0.016799,-0.002138
-0.0061035,0.66685,1.2553,9.5125,-0.014661,0.017104,-0.0024435
-0.0079956,0.56879,1.1964,9.4732,-0.015882,0.017104,-0.0018326
0.0053101,0.72569,1.0199,9.5125,-0.015272,0.015882,-0.002138
-0.012848,0.60801,1.2553,9.5125,-0.015272,0.015577,-0.0036652
-0.011108,0.74531,1.1768,9.5713,-0.015882,0.01069,-0.002138
-0.01178,0.60801,1.1768,9.5713,-0.015272,0.012217,-0.0024435
-0.0023193,0.56879,1.2553,9.5321,-0.016799,0.015272,-0.0030543
-0.0079956,0.66685,1.2553,9.5125,-0.018631,0.015882,-0.002138
-0.013977,0.60801,1.2356,9.5713,-0.017104,0.016188,-0.002138
-0.010468,0.66685,1.3337,9.4928,-0.015577,0.015577,-0.002138
-0.0045166,0.74531,1.2945,9.5713,-0.014355,0.014661,-0.0036652
-0.0029297,0.5884,1.2945,9.5321,-0.017104,0.01741,-0.0048869
-0.012238,0.49033,1.0395,9.6301,-0.01741,0.020464,-0.002138
-0.010773,0.72569,1.2356,9.5713,-0.016799,0.017715,-0.0018326
-0.0087585,0.74531,1.1572,9.5125,-0.016188,0.015882,-0.0024435
-0.0071106,0.56879,1.1768,9.4928,-0.014661,0.016493,-0.0027489
-0.0112,0.74531,1.1572,9.4928,-0.015882,0.016799,-0.0027489
-0.013489,0.74531,1.0003,9.4928,-0.016188,0.015577,-0.0030543
-0.010559,0.56879,1.1964,9.5125,-0.014966,0.014661,-0.0042761
0.00067139,0.56879,1.2553,9.4732,-0.014355,0.015577,-0.0045815
-0.0089417,0.60801,1.2945,9.5125,-0.015882,0.017104,-0.0045815
-0.0061035,0.74531,1.0787,9.5125,-0.016493,0.017104,-0.0036652
-0.007782,0.70608,1.2356,9.5125,-0.016493,0.015272,-0.002138
-0.0055542,0.76492,1.2553,9.5125,-0.016799,0.014966,-0.0009163
-0.010315,0.45111,1.2356,9.5713,-0.015577,0.014966,-0.0033598
-0.013794,0.54917,1.1964,9.4928,-0.01405,0.017104,-0.0042761
-0.0072632,0.60801,1.2553,9.4928,-0.014661,0.016493,-0.0042761
-0.0098267,0.72569,1.1768,9.5125,-0.017104,0.014661,-0.0024435
-0.015991,0.56879,1.1572,9.5713,-0.017715,0.014355,-0.0042761
-0.010712,0.72569,1.1572,9.4928,-0.016188,0.015577,-0.0039706
-0.0067444,0.70608,1.1572,9.5125,-0.016188,0.015272,-0.0024435
-0.0012207,0.74531,1.1768,9.5713,-0.015577,0.014661,-0.00061087
-0.0037537,0.60801,1.2553,9.5125,-0.016493,0.015272,-0.0015272
-0.0061646,0.49033,1.2553,9.5321,-0.015272,0.015577,-0.002138
-0.0057373,0.41188,1.2553,9.5909,-0.014355,0.014966,-0.0030543
-0.0082092,0.5884,1.2553,9.5125,-0.013744,0.015882,-0.0033598
-0.0083618,0.72569,1.2553,9.5125,-0.013134,0.015882,-0.0024435
-0.012665,0.56879,1.1572,9.6301,-0.014661,0.015272,-0.0039706
-0.0077515,0.54917,1.2553,9.5125,-0.015882,0.015577,-0.002138
-0.0011292,0.56879,1.2356,9.5125,-0.015577,0.016799,-0.0018326
-0.0051575,0.39227,1.2553,9.5909,-0.014966,0.016493,-0.0018326
-0.0090942,0.56879,1.1572,9.434,-0.015577,0.014661,-0.0024435
-0.011444,0.56879,1.1964,9.4144,-0.015272,0.015272,-0.002138
-0.014252,0.70608,1.2553,9.5125,-0.016493,0.013439,-0.0027489
-0.0072937,0.74531,1.2553,9.5713,-0.014661,0.012217,-0.0036652
-0.0059814,0.56879,1.1572,9.434,-0.014966,0.014355,-0.002138
-0.012024,0.74531,1.0787,9.5125,-0.014966,0.014355,-0.0027489
-0.011597,0.66685,1.2553,9.5125,-0.015577,0.013744,-0.0042761
-0.007782,0.74531,1.0003,9.4928,-0.016493,0.014661,-0.0024435
-0.0090027,0.74531,1.1964,9.5321,-0.016493,0.016493,-0.0015272
-0.011902,0.74531,1.0003,9.5125,-0.015577,0.016188,-0.0015272
-0.0018005,0.72569,1.2356,9.5125,-0.016493,0.016188,-0.002138
-0.0041809,0.66685,1.2553,9.5125,-0.015882,0.018021,-0.0027489
-0.0033569,0.66685,1.1768,9.5713,-0.014966,0.017104,-0.0012217
-0.014893,0.74531,1.1964,9.5125,-0.014966,0.014661,-0.00030543
-0.016937,0.49033,1.2553,9.5321,-0.015577,0.015577,-0.0027489
-0.012238,0.56879,1.1964,9.4928,-0.015272,0.015577,-0.0027489
-0.015503,0.72569,1.2356,9.5321,-0.018021,0.016188,-0.0024435
-0.012085,0.60801,1.2945,9.5321,-0.018631,0.015272,-0.0024435
-0.0063782,0.41188,1.1964,9.6301,-0.015577,0.013439,-0.0030543
-0.0032959,0.74531,1.2356,9.5125,-0.015882,0.0088575,-0.0030543
-0.012024,0.70608,1.1964,9.5713,-0.015272,0.012523,-0.0027489
-0.011322,0.5884,1.1964,9.5125,-0.015882,0.016188,-0.0036652
-0.008728,0.56879,1.1964,9.4928,-0.013744,0.015882,-0.0024435
-0.0058594,0.56879,1.2356,9.5125,-0.013134,0.015272,-0.002138
-0.0075684,0.56879,1.1572,9.434,-0.015272,0.015577,-0.0033598
-0.0084229,0.72569,1.2553,9.5125,-0.016799,0.016188,-0.0039706
-0.0271,0.49033,1.2553,9.5125,-0.015882,0.015272,-0.0027489
-0.0025635,0.64724,1.1964,9.4928,-0.015577,0.017104,-0.0027489
-0.0071106,0.72569,1.0395,9.5125,-0.016799,0.017104,-0.0033598
-0.015503,0.56879,1.1572,9.5321,-0.017104,0.016188,-0.0045815
-0.011993,0.45111,1.2553,9.5713,-0.016493,0.015577,-0.0045815
-0.0072937,0.70608,1.1768,9.5321,-0.015882,0.015272,-0.0042761
-0.011597,0.60801,1.1964,9.5713,-0.017104,0.015272,-0.0036652
-0.0047913,0.66685,1.2356,9.5125,-0.017715,0.016493,-0.0015272
-0.011139,0.74531,1.0199,9.5321,-0.016493,0.016799,-0.0042761
-0.0032959,0.41188,1.0395,9.5909,-0.017104,0.019242,-0.0033598
-0.0045776,0.56879,1.2356,9.3752,-0.016188,0.016799,-0.0036652
-0.010468,0.70608,1.1964,9.5713,-0.015577,0.01405,-0.0036652
-0.0069885,0.49033,1.2553,9.4928,-0.014661,0.015272,-0.0033598
-0.0082703,0.74531,1.2356,9.5713,-0.015272,0.016188,-0.0027489
-0.010681,0.60801,1.2356,9.4928,-0.017104,0.014966,-0.0033598
-0.0083618,0.66685,1.2945,9.5321,-0.014966,0.016188,-0.0042761
-0.0015869,0.74531,1.2553,9.5713,-0.014966,0.015882,-0.0039706
-0.0068359,0.60801,1.1572,9.5125,-0.016493,0.015272,-0.0048869
-0.012756,0.60801,1.2553,9.5321,-0.016493,0.01741,-0.002138
-0.0088196,0.49033,1.1572,9.4144,-0.015882,0.016799,-0.0027489
-0.0033569,0.54917,1.1964,9.5713,-0.016188,0.014661,-0.0024435
-0.0093689,0.5884,1.1964,9.5125,-0.016188,0.01405,-0.0012217
-0.015106,0.43149,1.2553,9.6497,-0.017104,0.014661,-0.0027489
-0.015259,0.74531,1.1964,9.5321,-0.015882,0.014966,-0.0033598
-0.010468,0.60801,1.2553,9.4928,-0.015882,0.014966,-0.0033598
-0.0040283,0.56879,1.1572,9.3752,-0.015577,0.014661,-0.0039706
-0.0065002,0.60801,1.2945,9.5125,-0.016188,0.014661,-0.0030543
-0.0060425,0.49033,1.2553,9.5713,-0.015882,0.015882,-0.0033598
0.0019531,0.56879,1.1572,9.5713,-0.014661,0.01741,-0.0033598
-0.0038452,0.74531,1.1572,9.4732,-0.015272,0.01741,-0.002138
-0.012512,0.74531,1.2553,9.6301,-0.016188,0.016493,-0.0024435
-0.0084534,0.5884,1.1572,9.5713,-0.014966,0.015882,-0.0030543
-0.0074463,0.56879,1.1964,9.4732,-0.016493,0.016493,-0.0036652
-0.0087891,0.56879,1.1572,9.3555,-0.018937,0.018631,-0.0030543
-0.015991,0.60801,1.1964,9.434,-0.017104,0.016799,-0.0045815
-0.015778,0.66685,1.2356,9.4732,-0.016799,0.015272,-0.0054978
-0.0069885,0.76492,1.0199,9.4928,-0.016799,0.015272,-0.0036652
-0.0072632,0.64724,1.2945,9.5125,-0.017104,0.015882,-0.002138
-0.0030823,0.74531,1.2553,9.5125,-0.016493,0.016188,-0.0033598
-0.014984,0.72569,1.2553,9.5125,-0.014966,0.016188,-0.0033598
-0.010986,0.74531,1.1572,9.4928,-0.018021,0.016799,-0.0024435
-0.0055847,0.74531,1.0199,9.5125,-0.015882,0.018631,-0.0036652
-0.006134,0.56879,1.1572,9.5713,-0.015882,0.016799,-0.0036652
-0.0083313,0.45111,1.2945,9.5713,-0.015577,0.014661,-0.0036652
-0.0035095,0.66685,1.2945,9.5125,-0.014355,0.015272,-0.0024435
-0.00042725,0.5884,1.1572,9.5321,-0.013744,0.016188,-0.0027489
-0.01059,0.70608,1.2553,9.5713,-0.014966,0.016188,-0.0015272
-0.013245,0.72569,1.1964,9.5321,-0.018631,0.015577,-0.0018326
-0.0013123,0.41188,1.2356,9.6301,-0.01741,0.014661,-0.0027489
-0.0112,0.56879,1.2553,9.5125,-0.016799,0.012828,-0.0030543
-0.011841,0.64724,1.2553,9.4928,-0.01741,0.015577,-0.0033598
-0.013062,0.56879,1.1768,9.3555,-0.017715,0.01741,-0.0027489
-0.015991,0.74531,1.1768,9.5125,-0.015882,0.01741,-0.0030543
-0.011658,0.50995,1.1964,9.434,-0.014966,0.016493,-0.0030543
-0.012604,0.56879,1.1964,9.5713,-0.014661,0.015882,-0.0030543
-0.0075378,0.49033,1.2356,9.5713,-0.016493,0.014355,-0.002138
-0.009491,0.74531,1.1964,9.5713,-0.015882,0.013744,-0.0042761
-0.0023193,0.41188,1.2553,9.6301,-0.015272,0.016188,-0.0027489
-0.013275,0.66685,1.2553,9.5125,-0.014966,0.015882,-0.0030543
-0.0073242,0.74531,1.0395,9.5125,-0.016188,0.015272,-0.0036652
-0.0040283,0.60801,1.2553,9.4732,-0.016799,0.015577,-0.0039706
-0.011566,0.74531,1.2945,9.5713,-0.015272,0.016188,-0.002138
-0.015045,0.74531,1.2945,9.5713,-0.014966,0.015577,-0.0024435
-0.016632,0.60801,1.1572,9.4928,-0.016188,0.015272,-0.0042761
-0.0067139,0.60801,1.1964,9.5713,-0.015577,0.014355,-0.0033598
-0.0068665,0.74531,1.1964,9.5125,-0.014661,0.01405,-0.0045815
-0.0087585,0.72569,1.1768,9.5713,-0.016493,0.014661,-0.0036652
-0.0064392,0.74531,1.1572,9.5125,-0.016799,0.015577,-0.0039706
-0.0089417,0.56879,1.1964,9.4928,-0.016188,0.015577,-0.0045815
-0.0087585,0.60801,1.1964,9.4928,-0.016188,0.014966,-0.0030543
-0.0112,0.56879,1.0787,9.5909,-0.017104,0.014661,-0.0030543
-0.0028381,0.74531,1.1572,9.4928,-0.016493,0.015882,-0.0036652
-0.0098267,0.54917,1.1572,9.3752,-0.01741,0.014966,-0.0039706
-0.017242,0.2942,1.0787,9.7282,-0.01741,0.01405,-0.002138
-0.009491,0.49033,1.2553,9.5321,-0.018326,0.01405,-0.0045815
-0.0083923,0.50995,1.1768,9.4732,-0.017104,0.016188,-0.0051924
-0.011627,0.49033,1.2553,9.6301,-0.015882,0.015577,-0.0039706
-0.0068359,0.60801,1.1768,9.5125,-0.016188,0.014966,-0.0018326
-0.017578,0.66685,1.2553,9.4928,-0.016188,0.015272,-0.0012217
-0.005249,0.72569,1.2553,9.6301,-0.017715,0.015272,-0.0033598
-0.0056458,0.66685,1.1964,9.5125,-0.016493,0.016188,-0.0024435
-0.01944,0.56879,1.1964,9.434,-0.015882,0.013134,-0.002138
-0.0091553,0.66685,1.2553,9.5125,-0.015577,0.013744,-0.0030543
-0.0068665,0.72569,1.2553,9.5321,-0.014355,0.015272,-0.0036652
-0.011749,0.74531,1.1768,9.5713,-0.015882,0.01405,-0.0033598
-0.012329,0.56879,1.2553,9.4928,-0.017715,0.014966,-0.0045815
-0.0080261,0.41188,1.2356,9.5909,-0.017715,0.015577,-0.0039706
-0.010559,0.60801,1.1964,9.5125,-0.015577,0.015272,-0.0030543
-0.013367,0.66685,1.2553,9.5321,-0.018021,0.014355,-0.0048869
-0.0052185,0.74531,1.2553,9.5321,-0.014355,0.010079,-0.0033598
-0.009552,0.66685,1.3337,9.5125,-0.014661,0.010996,-0.0030543
-0.010193,0.74531,1.1572,9.4732,-0.016493,0.014661,-0.0042761
-0.012817,0.74531,1.0591,9.5713,-0.015577,0.015577,-0.0039706
-0.0071411,0.56879,1.1572,9.5321,-0.016799,0.01741,-0.0033598
-0.0036926,0.56879,1.1964,9.5713,-0.01741,0.01741,-0.0042761
-0.0075073,0.56879,1.2356,9.5321,-0.017104,0.016493,-0.0048869
-0.012817,0.72569,1.1964,9.5125,-0.017715,0.016493,-0.0042761
-0.020508,0.56879,1.1964,9.4732,-0.018937,0.019853,-0.0036652
-0.0068359,0.50995,1.1768,9.434,-0.017104,0.018631,-0.0027489
-0.0010071,0.66685,1.2553,9.5125,-0.015577,0.014966,-0.0030543
-0.0065613,0.76492,1.1572,9.5321,-0.016188,0.014661,-0.0030543
-0.0079041,0.74531,1.0787,9.4732,-0.017104,0.015272,-0.0018326
-0.009613,0.74531,1.2553,9.5321,-0.017104,0.013744,-0.0033598
-0.0050964,0.50995,1.2553,9.5713,-0.017715,0.014355,-0.0045815
-0.013947,0.72569,1.1768,9.5321,-0.015882,0.016188,-0.0015272
-0.012177,0.56879,1.2553,9.5125,-0.01741,0.013439,-0.0015272
-0.0010071,0.74531,1.0395,9.5125,-0.016799,0.015272,-0.0024435
-0.018585,0.74531,1.2553,9.5125,-0.016188,0.016188,-0.002138
-0.023346,0.56879,1.1964,9.434,-0.016493,0.016799,-0.002138
-0.01236,0.74531,1.0787,9.5125,-0.016493,0.016188,-0.0030543
-0.010132,0.56879,1.1964,9.4732,-0.016799,0.015882,-0.0018326
-0.014343,0.74531,1.1572,9.5125,-0.015882,0.016493,-0.0018326
-0.0079041,0.41188,1.2553,9.6301,-0.016493,0.016188,-0.0036652
-0.0047302,0.54917,1.2356,9.5713,-0.015272,0.018021,-0.0030543
-0.0094604,0.74531,1.2356,9.5321,-0.014661,0.01741,-0.0030543
-0.0064087,0.56879,1.2356,9.5125,-0.014661,0.015272,-0.0036652
-0.0093994,0.49033,1.2553,9.5713,-0.016188,0.015272,-0.0036652
-0.0079956,0.74531,1.1768,9.5713,-0.016188,0.016188,-0.0039706
-0.010651,0.66685,1.2553,9.4928,-0.015272,0.014966,-0.0051924
-0.013885,0.56879,1.1964,9.434,-0.015272,0.014966,-0.0048869
-0.0073853,0.66685,1.3141,9.5125,-0.014966,0.014966,-0.0042761
-0.010681,0.74531,1.2553,9.5713,-0.014355,0.014355,-0.0033598
-0.01123,0.74531,1.0787,9.4928,-0.016493,0.016493,-0.0018326
-0.017609,0.72569,1.2553,9.5125,-0.016493,0.016493,-0.0024435
-0.0024109,0.49033,1.2553,9.5909,-0.016493,0.014661,-0.0027489
-0.011963,0.74531,1.1964,9.5321,-0.016799,0.015577,-0.0033598
-0.0088196,0.49033,1.2553,9.5713,-0.016799,0.015577,-0.0036652
-0.015472,0.74531,1.0003,9.5125,-0.017715,0.014661,-0.0036652
-0.0041504,0.72569,1.2553,9.5713,-0.013744,0.014661,-0.0030543
-0.011719,0.56879,1.1964,9.4732,-0.014355,0.018937,-0.0030543
-0.010315,0.66685,1.1572,9.5321,-0.015882,0.01741,-0.002138
-0.0054016,0.72569,1.2553,9.5125,-0.015272,0.015577,-0.0030543
-0.0046997,0.72569,1.0199,9.5125,-0.016799,0.013439,-0.0030543
-0.010071,0.66685,1.2553,9.5125,-0.01741,0.014661,-0.0018326
-0.011871,0.56879,1.2553,9.5125,-0.017715,0.015272,-0.0027489
-0.0044861,0.66685,1.2553,9.5125,-0.015882,0.016188,-0.0045815
-0.0088806,0.41188,1.1572,9.6301,-0.01405,0.015882,-0.0024435
-0.0029297,0.56879,0.94144,9.6301,-0.014661,0.014355,-0.0018326
-0.0040588,0.70608,1.2553,9.5125,-0.015882,0.014966,-0.0027489
-0.0093079,0.66685,1.1964,9.5125,-0.016188,0.016188,-0.0036652
-0.011688,0.72569,1.2553,9.6497,-0.014355,0.014661,-0.0030543
-0.0050049,0.64724,1.216,9.5321,-0.015882,0.014661,-0.0012217
-0.0080261,0.49033,1.2356,9.5713,-0.016493,0.014966,-0.0009163
-0.0059204,0.56879,1.1964,9.5713,-0.016493,0.015577,-0.0015272
-0.0097961,0.70608,1.0787,9.4928,-0.014966,0.015577,-0.0030543
-0.0085449,0.56879,1.1964,9.434,-0.014966,0.01069,-0.0024435
-0.0064087,0.72569,1.2553,9.5125,-0.015577,0.014355,-0.0036652
-0.0063782,0.74531,1.2356,9.5321,-0.014661,0.017715,-0.0024435
-0.0023193,0.74531,1.2553,9.5713,-0.014661,0.016493,-0.0018326
-0.0099487,0.70608,1.1964,9.5909,-0.014355,0.014966,-0.002138
-0.013428,0.50995,1.2553,9.5713,-0.014966,0.014966,-0.0027489
-0.01767,0.39227,1.1964,9.5321,-0.015577,0.015577,-0.0036652
-0.013885,0.49033,1.2553,9.6301,-0.013744,0.016493,-0.0033598
-0.010132,0.72569,1.0395,9.4732,-0.015577,0.018326,-0.0036652
-0.0061646,0.74531,1.1964,9.5713,-0.016493,0.01741,-0.002138
-0.0050964,0.66685,1.2356,9.5125,-0.016493,0.015577,-0.0033598
-0.012695,0.5884,1.2553,9.5125,-0.015577,0.015577,-0.0048869
-0.006897,0.54917,1.2553,9.4732,-0.014966,0.016493,-0.0042761
-0.0032654,0.74531,1.1768,9.5713,-0.014966,0.015882,-0.0024435
-0.0030518,0.56879,1.1964,9.5125,-0.015272,0.015577,-0.002138
-0.014862,0.54917,1.1964,9.5125,-0.015272,0.014966,-0.0030543
-0.01413,0.49033,1.2553,9.5909,-0.014966,0.013744,-0.0027489
-0.010376,0.72569,1.1768,9.5125,-0.013744,0.015272,-0.0030543
-0.0080872,0.49033,1.1964,9.5321,-0.015272,0.017104,-0.0036652
-0.011261,0.39227,1.2553,9.5909,-0.015882,0.01741,-0.0033598
-0.010254,0.56879,1.1768,9.434,-0.015272,0.016799,-0.0039706
-0.0068054,0.74531,1.0787,9.5125,-0.016188,0.015577,-0.0048869
-0.019592,0.41188,1.2553,9.5713,-0.014966,0.015272,-0.0036652
-0.0078735,0.60801,1.2553,9.4928,-0.016188,0.014355,-0.0015272
0.00048828,0.54917,1.2553,9.6694,-0.018326,0.015272,-0.0015272
-0.0046387,0.66685,1.1572,9.5125,-0.017715,0.014661,-0.0042761
-0.0054932,0.66685,1.1964,9.4928,-0.017104,0.01405,-0.0051924
-0.0071716,0.70608,1.2945,9.5713,-0.01741,0.013134,-0.0033598
-0.0097046,0.56879,1.1572,9.5321,-0.016188,0.013744,-0.0015272
-0.0071411,0.66685,1.2553,9.5125,-0.015882,0.015272,-0.0012217
-0.0056458,0.74531,1.2553,9.5125,-0.016493,0.015882,-0.0018326
-0.0082703,0.72569,1.1768,9.5713,-0.015577,0.015882,-0.0036652
-0.0096436,0.66685,1.2553,9.5125,-0.017104,0.013744,-0.0030543
-0.010468,0.70608,1.2356,9.5321,-0.017715,0.014355,-0.0033598
-0.013611,0.64724,1.2356,9.4928,-0.017715,0.015272,-0.0042761
-0.0050964,0.45111,1.2356,9.5321,-0.018021,0.015882,-0.0036652
-0.0023193,0.74531,1.1768,9.5321,-0.018021,0.015882,-0.0027489
0.0010376,0.70608,1.2553,9.5321,-0.017104,0.016188,-0.0027489
-0.013,0.39227,1.2553,9.5909,-0.016188,0.016188,-0.0039706
-0.0059814,0.74531,1.1572,9.5321,-0.017104,0.017104,-0.0033598
-0.0071411,0.70608,1.1376,9.5321,-0.016799,0.018326,-0.0024435
-0.0088196,0.56879,1.1964,9.3752,-0.016188,0.016493,-0.002138
0.0018616,0.60801,1.1964,9.4928,-0.016493,0.015577,-0.0015272
-0.0030823,0.54917,1.2553,9.4928,-0.017715,0.015577,-0.0027489
-0.0075378,0.60801,1.1964,9.5125,-0.016493,0.015272,-0.0024435
-0.0083313,0.66685,1.2553,9.5321,-0.018326,0.01405,-0.0018326
-0.0057068,0.56879,1.1572,9.3752,-0.018937,0.013439,-0.0027489
-0.0035095,0.56879,1.1572,9.5125,-0.014661,0.012523,-0.0042761
-0.0089417,0.49033,1.2553,9.6301,-0.016493,0.011301,-0.0045815
-0.0098267,0.5884,1.1768,9.5125,-0.017715,0.013439,-0.0030543
-0.011749,0.45111,1.2356,9.5713,-0.016188,0.015272,-0.0024435
-0.0099182,0.74531,1.2356,9.5125,-0.016188,0.017104,-0.0027489
-0.00094604,0.74531,1.1964,9.5909,-0.017104,0.016188,-0.0033598
-0.012115,0.72569,1.1964,9.5125,-0.016188,0.014966,-0.0036652
-0.0072021,0.72569,1.2553,9.6301,-0.014966,0.015882,-0.0036652
-0.0097961,0.74531,1.2356,9.5713,-0.015577,0.015272,-0.0036652
-0.0071716,0.49033,1.0787,9.6497,-0.016493,0.011606,-0.0024435
-0.0069275,0.74531,1.2553,9.5713,-0.015882,0.014355,-0.0027489
-0.0013123,0.66685,1.1964,9.5125,-0.016799,0.016188,-0.0042761
-0.011353,0.64724,1.2553,9.5125,-0.01741,0.01405,-0.0030543
-0.011597,0.80415,1.2553,9.5125,-0.016799,0.013439,-0.0030543
-0.0031128,0.60801,1.2553,9.5125,-0.016493,0.013439,-0.0033598
-0.0044556,0.54917,1.2356,9.5125,-0.016493,0.014966,-0.0045815
-0.010406,0.66685,1.3141,9.4928,-0.01741,0.016188,-0.0027489
-0.0053406,0.41188,1.1964,9.5909,-0.01741,0.017715,-0.0045815
-0.014587,0.5884,1.1376,9.6301,-0.018631,0.016493,-0.0030543
-0.012207,0.74531,1.2356,9.5713,-0.018326,0.015272,-0.0039706
-0.00091553,0.74531,1.1572,9.5713,-0.017715,0.016188,-0.0027489
0.0016479,0.49033,1.2945,9.6301,-0.016188,0.014966,-0.0018326
-0.0023499,0.5884,1.2356,9.5125,-0.01741,0.014661,-0.0024435
-0.015625,0.74531,1.1572,9.5713,-0.018021,0.016493,-0.0030543
-0.016327,0.49033,1.2945,9.5713,-0.018937,0.01741,-0.0012217
-0.010986,0.64724,1.1768,9.5321,-0.019548,0.014966,-0.0036652
-0.0033569,0.72569,1.2553,9.5125,-0.015577,0.014966,-0.0042761
-0.010376,0.74531,1.2553,9.5321,-0.015577,0.015272,-0.0012217
-0.0042114,0.56879,1.1572,9.5321,-0.018021,0.01405,0
0.0023193,0.56879,1.1768,9.4732,-0.017715,0.013744,0.0009163
-0.0094604,0.74531,1.1572,9.5125,-0.015882,0.014355,-0.0015272
-0.008667,0.72569,1.1768,9.5713,-0.015577,0.014966,-0.0030543
-0.010315,0.56879,1.1768,9.434,-0.019242,0.014355,-0.0036652
-0.010742,0.72569,1.2553,9.5125,-0.019853,0.01741,-0.0027489
-0.014038,0.66685,1.1964,9.4732,-0.019548,0.015882,-0.0036652
-0.0099487,0.56879,1.2553,9.4928,-0.017715,0.015882,-0.0036652
-0.0084839,0.72569,1.1768,9.5713,-0.018326,0.017104,-0.0033598
-0.0030212,0.66685,1.2945,9.5125,-0.01741,0.016188,-0.0027489
-0.0097046,0.5884,1.1768,9.5125,-0.016188,0.016188,-0.0042761
-0.0073853,0.74531,1.1768,9.5125,-0.017715,0.016493,-0.0042761
-0.0047913,0.74531,1.2356,9.6301,-0.014966,0.01405,-0.0039706
-0.010437,0.54917,1.1964,9.434,-0.015577,0.013439,-0.0048869
-0.0052185,0.60801,1.1964,9.5125,-0.015272,0.015577,-0.0027489
-0.0059509,0.66685,1.2553,9.5321,-0.016493,0.016799,-0.0015272
-0.0074158,0.41188,1.1964,9.5321,-0.017715,0.015272,-0.0024435
-0.0016479,0.72569,1.1376,9.4928,-0.016799,0.01405,-0.0030543
-0.0010376,0.74531,1.0787,9.5125,-0.016493,0.01405,-0.0027489
0.0083313,0.39227,1.2945,9.5713,-0.015272,0.014355,-0.0027489
-0.0030212,0.74531,1.2553,9.5321,-0.018326,0.016188,-0.0027489
0.0010071,0.5884,1.1964,9.5713,-0.018326,0.017715,-0.0027489
-0.0032959,0.45111,1.2945,9.5909,-0.018021,0.015272,-0.0036652
-0.0065918,0.74531,1.2553,9.4928,-0.016799,0.014661,-0.0033598
-0.0096436,0.72569,1.1572,9.5713,-0.018326,0.015577,-0.0027489
-0.0018005,0.60801,1.2553,9.5125,-0.017715,0.014966,-0.0039706
-0.0054932,0.72569,1.2356,9.6301,-0.018021,0.01405,-0.0030543
-0.0066223,0.74531,1.1768,9.5321,-0.020159,0.014661,-0.0024435
-0.0086365,0.74531,1.2553,9.5125,-0.016799,0.013439,-0.0036652
-0.012604,0.70608,1.2553,9.5125,-0.018937,0.0088575,-0.0048869
0.0005188,0.60801,1.2553,9.4928,-0.019548,0.011912,-0.0033598
-0.0094604,0.74531,1.2553,9.5321,-0.016493,0.015272,-0.0042761
-0.010132,0.56879,1.1572,9.6301,-0.016188,0.015272,-0.0036652
0.0089417,0.49033,1.2553,9.5713,-0.01741,0.015882,-0.0027489
-0.0057068,0.49033,1.3141,9.6301,-0.017104,0.014966,-0.002138
-0.0036011,0.66685,1.1572,9.5125,-0.016188,0.014355,-0.0027489
-0.0036621,0.72569,1.1964,9.5125,-0.017104,0.013134,-0.0036652
-0.0080566,0.72569,1.1964,9.5713,-0.016493,0.013744,-0.0033598
-0.0025635,0.76492,1.1572,9.5321,-0.017104,0.014966,-0.0024435
-0.0080872,0.74531,1.0003,9.5125,-0.016799,0.013439,-0.0024435
-0.011719,0.70608,1.2553,9.5125,-0.016799,0.013439,-0.002138
-0.0092468,0.74531,1.1768,9.5321,-0.016493,0.014355,-0.0039706
-0.0050049,0.56879,1.1376,9.6301,-0.016799,0.015577,-0.0039706
-0.01123,0.45111,1.2553,9.5909,-0.016799,0.015272,-0.0036652
-0.0010986,0.74531,1.1768,9.5713,-0.016493,0.016799,-0.0030543
0.0050659,0.41188,1.0199,9.5125,-0.016188,0.01741,-0.002138
-0.0053406,0.54917,1.2553,9.5125,-0.016799,0.015272,-0.0042761
-0.0023499,0.74531,1.1964,9.5713,-0.016799,0.014661,-0.0042761
-0.0042725,0.39227,1.1768,9.6301,-0.017715,0.01405,-0.0015272
-0.00177,0.74531,1.1768,9.5125,-0.018326,0.014966,-0.00030543
-0.010803,0.49033,1.2553,9.5713,-0.018631,0.015577,-0.0018326
-0.017548,0.70608,1.1964,9.5713,-0.015577,0.013439,-0.0042761
-0.0039978,0.66685,1.1768,9.5125,-0.015577,0.014661,-0.0042761
-0.0075989,0.74531,1.0787,9.4928,-0.016493,0.01405,-0.0030543
-0.0040894,0.64724,1.2553,9.5713,-0.018937,0.014966,-0.002138
-0,0.60801,1.2356,9.5125,-0.018021,0.015577,-0.0030543
-0.00042725,0.66685,1.2553,9.5321,-0.014355,0.015882,-0.0042761
-0.012238,0.70608,1.2356,9.5321,-0.016188,0.014661,-0.0036652
-0.0013733,0.70608,1.2553,9.5125,-0.018326,0.014661,-0.002138
-0.0019226,0.76492,1.2356,9.5125,-0.017715,0.016799,-0.0027489
-0.0057068,0.66685,1.2356,9.5125,-0.017715,0.01405,-0.0042761
-0.0096436,0.60801,1.2945,9.5125,-0.019853,0.018631,-0.0036652
-0.0047302,0.5884,1.3141,9.5125,-0.019242,0.016188,-0.0015272
-0.0091553,0.54917,1.1572,9.6301,-0.017715,0.013439,-0.0036652
-0.016693,0.60801,1.2749,9.5713,-0.018326,0.01405,-0.0042761
-0.0099182,0.72569,1.0199,9.5125,-0.019548,0.014661,-0.0015272
-0.0079346,0.70608,1.2553,9.5321,-0.019242,0.015577,-0.002138
-0.0025024,0.72569,1.2553,9.6301,-0.016799,0.014966,-0.0027489
-0.011658,0.56879,1.1572,9.5713,-0.015577,0.014661,-0.0027489
-0.0072327,0.50995,1.2553,9.6497,-0.015577,0.011606,-0.0033598
-0.0076904,0.72569,1.0395,9.434,-0.017104,0.01405,-0.002138
-0.0082397,0.43149,1.2356,9.5713,-0.017715,0.016188,-0.0015272
-0.0076904,0.70608,1.1964,9.5125,-0.016799,0.014966,-0.0027489
0.0047302,0.49033,1.2553,9.6301,-0.016799,0.014661,-0.0048869
-0.00085449,0.72569,1.2553,9.5321,-0.01741,0.016493,-0.0042761
-0.012787,0.56879,1.1964,9.4732,-0.018326,0.017104,-0.0027489
-0.0038452,0.74531,1.2553,9.5713,-0.018326,0.016799,-0.0042761
-0.0012207,0.5884,1.1964,9.5125,-0.015882,0.018631,-0.0045815
-0.0071106,0.50995,1.2356,9.4732,-0.017104,0.016799,-0.0030543
-0.0066528,0.45111,1.2945,9.5909,-0.01741,0.016493,-0.0042761
-0.0073242,0.70608,1.1768,9.5713,-0.016188,0.015882,-0.0027489
0.0021362,0.49033,1.1964,9.5713,-0.017715,0.015577,-0.0015272
-0.0060425,0.60801,1.2356,9.5713,-0.01741,0.015577,-0.0009163
-0.017639,0.66685,1.2553,9.4928,-0.019853,0.014661,-0.0024435
0.0023804,0.74531,1.2553,9.5713,-0.016188,0.014355,-0.0030543
-0.0031433,0.56879,1.2553,9.3752,-0.014966,0.016188,-0.0033598
-0.0048218,0.64724,1.2553,9.5125,-0.015272,0.015272,-0.0054978
-0.0024414,0.56879,1.1572,9.5125,-0.015882,0.014661,-0.0048869
-0.0028381,0.35304,1.2553,9.5713,-0.015577,0.014355,-0.0039706
-0.004364,0.64724,1.2553,9.5125,-0.015577,0.014966,-0.0045815
-0.008606,0.56879,1.2356,9.434,-0.016188,0.015577,-0.0042761
-0.010681,0.80415,1.1572,9.5125,-0.015272,0.015272,-0.0030543
-0.011719,0.74531,1.1964,9.5125,-0.015577,0.013439,-0.0042761
-0.010101,0.74531,1.1964,9.5321,-0.016188,0.013134,-0.0030543
-0.0073547,0.56879,1.1964,9.4928,-0.015882,0.014966,-0.0033598
-0.0027771,0.56879,1.1572,9.5713,-0.015882,0.015577,-0.0036652
-0.0058594,0.60801,1.1964,9.4732,-0.016188,0.015882,-0.0042761
-0.0063171,0.70608,1.1964,9.5125,-0.016188,0.015882,-0.0033598
-0.006897,0.50995,1.1572,9.5713,-0.016493,0.015577,-0.0027489
-0.0031433,0.49033,1.2356,9.5713,-0.016188,0.015577,-0.0045815
-0.012329,0.49033,1.1964,9.4928,-0.015882,0.014966,-0.0039706
-0.0097351,0.72569,1.1964,9.5321,-0.016799,0.013439,-0.0033598
-0.0085449,0.50995,1.1964,9.5321,-0.016799,0.015272,-0.0039706
-0.011322,0.41188,1.2553,9.6301,-0.016188,0.016188,-0.0039706
-0.013824,0.74531,1.1768,9.4732,-0.017715,0.016799,-0.002138
-0.0065002,0.74531,1.0003,9.5125,-0.017715,0.016799,-0.0018326
-0.0066833,0.72569,1.2553,9.5125,-0.01741,0.015882,-0.0030543
-0.0081482,0.74531,1.2553,9.5321,-0.017104,0.015882,-0.0045815
-0.0072327,0.74531,1.1768,9.5125,-0.018326,0.015272,-0.0027489
-0.002655,0.43149,1.0787,9.5713,-0.016799,0.014661,-0.0042761
-0.003418,0.66685,1.2553,9.4928,-0.018631,0.014661,-0.0027489
-0.0082092,0.56879,1.2356,9.5125,-0.019548,0.014355,-0.002138
-0.0040283,0.5884,1.1376,9.5321,-0.018326,0.014966,-0.002138
-0.0070496,0.56879,1.1572,9.434,-0.017715,0.015272,-0.0024435
-0.0077515,0.72569,1.0395,9.5125,-0.01741,0.015272,-0.0030543
-0.0090637,0.5884,1.2356,9.434,-0.016188,0.015272,-0.0027489
-0.0022278,0.74531,1.0395,9.5125,-0.014966,0.015882,-0.0027489
-0.0079956,0.54917,1.2553,9.5125,-0.015272,0.018937,-0.0024435
-0.0055542,0.74531,1.0395,9.5125,-0.015272,0.018021,-0.0015272
-0.0033264,0.60801,1.1964,9.4928,-0.014661,0.016799,-0.0027489
-0.0058899,0.45111,1.2553,9.6301,-0.013744,0.015882,-0.0024435
-0.00012207,0.41188,1.2553,9.5713,-0.015577,0.014661,-0.0018326
-0.0065002,0.72569,1.1572,9.4928,-0.015272,0.014661,-0.0027489
-0.010071,0.74531,1.1768,9.5321,-0.015272,0.016188,-0.0039706
-0.01474,0.74531,1.1964,9.5713,-0.015882,0.014966,-0.0039706
-0.0046997,0.74531,1.2553,9.5713,-0.016188,0.012828,-0.0045815
-0.0037231,0.74531,1.1768,9.5713,-0.016188,0.014661,-0.0018326
-0.0044556,0.74531,1.1572,9.434,-0.017104,0.016493,-0.002138
0.0013428,0.72569,1.2553,9.5909,-0.016493,0.015577,-0.0033598
-0.0025024,0.60801,1.2553,9.4928,-0.015882,0.015577,-0.0033598
-0.0060425,0.56879,1.1964,9.4732,-0.014966,0.015882,-0.0036652
0.0015869,0.41188,1.1964,9.5713,-0.014966,0.015882,-0.0042761
-0.0096741,0.74531,1.1572,9.4928,-0.015882,0.016493,-0.0042761
0.0034485,0.74531,1.2553,9.6301,-0.015882,0.021075,-0.0036652
-0.011841,0.56879,1.1572,9.6497,-0.016188,0.019242,-0.0045815
-0.0020142,0.54917,1.1572,9.4732,-0.016799,0.016493,-0.0030543
-0.014404,0.5884,1.1964,9.4144,-0.016188,0.017104,-0.0018326
-0.0047302,0.54917,1.1572,9.4732,-0.017104,0.016493,-0.0027489
-0.012848,0.60801,1.1768,9.5125,-0.015882,0.016188,-0.0033598
-0.0042725,0.54917,1.1768,9.434,-0.016188,0.016188,-0.0039706
-0.0031128,0.74531,1.2553,9.5713,-0.014355,0.016188,-0.0030543
-0.0075684,0.60801,1.1964,9.5321,-0.014966,0.019242,-0.0024435
-0.0048523,0.56879,1.1964,9.5125,-0.016188,0.01741,-0.0042761
-0.0059814,0.49033,1.2945,9.6301,-0.015882,0.01405,-0.0030543
-0.010498,0.74531,1.1964,9.5125,-0.014661,0.01405,-0.0036652
-0.015747,0.5884,1.2356,9.5125,-0.014966,0.015577,-0.0039706
-0.010345,0.41188,1.2553,9.6301,-0.016799,0.016799,-0.0045815
-0.0053101,0.74531,1.1572,9.4928,-0.01741,0.016188,-0.0042761
-0.014008,0.74531,1.0003,9.5321,-0.01741,0.014661,-0.0015272
-0.010712,0.54917,1.1964,9.6301,-0.016799,0.014661,-0.0012217
0.0081787,0.43149,1.2945,9.5713,-0.018021,0.015577,-0.0027489
-0.0048218,0.74531,1.0787,9.4928,-0.018937,0.014966,-0.0027489
-0.0040588,0.74531,1.1572,9.5125,-0.017104,0.015577,-0.0030543
0.0014343,0.49033,1.2553,9.5713,-0.016188,0.015272,-0.0030543
-0.0097656,0.41188,1.2553,9.6497,-0.017104,0.01405,-0.0024435
-0.020691,0.49033,1.2553,9.5713,-0.018326,0.013744,-0.002138
-0.0067749,0.64724,1.1572,9.5321,-0.014661,0.013744,-0.0027489
0.0011597,0.74531,1.1572,9.4732,-0.016493,0.013744,-0.0027489
-0.0063782,0.72569,1.2553,9.5321,-0.016188,0.014661,-0.0036652
-0.0031738,0.74531,1.2356,9.5713,-0.016188,0.015272,-0.0048869
-0.0014038,0.74531,1.2945,9.5713,-0.016799,0.015577,-0.0045815
-0.0079651,0.70608,1.2553,9.5125,-0.016493,0.014966,-0.0033598
-0.012573,0.50995,1.2553,9.4928,-0.016188,0.015577,-0.0036652
0.0026245,0.74531,1.216,9.5713,-0.014966,0.015272,-0.0030543
-0.012024,0.41188,1.2356,9.5713,-0.016188,0.015272,-0.0042761
-0.0076904,0.54917,1.2553,9.5713,-0.018631,0.019242,-0.0048869
-0.0081177,0.72569,1.2553,9.5321,-0.018937,0.015577,-0.0033598
-0.0049438,0.74531,1.2553,9.5713,-0.017715,0.013744,-0.0048869
-0.0068359,0.66685,1.2553,9.5321,-0.016799,0.015272,-0.0042761
-0.016479,0.39227,1.2553,9.6497,-0.01741,0.014661,-0.0027489
-0.0016785,0.74531,1.1572,9.4732,-0.016493,0.015577,-0.0033598
0.012268,0.66685,1.1768,9.5713,-0.01741,0.016188,-0.0033598
-0.008667,0.74531,1.2553,9.5125,-0.016799,0.014966,-0.0027489
-0.0056152,0.5884,0.98067,9.5713,-0.016799,0.018326,-0.0027489
-0.0090332,0.60801,1.1964,9.5125,-0.015882,0.016493,-0.0033598
0.00048828,0.74531,1.1768,9.5713,-0.014661,0.013744,-0.0009163
-0.0063477,0.49033,1.3141,9.5909,-0.015272,0.014966,-0.00030543
-0.013397,0.60801,1.1964,9.5321,-0.016799,0.015577,-0.0030543
-0.0032654,0.49033,1.2553,9.5713,-0.016188,0.015272,-0.0024435
-0.0057983,0.74531,1.2945,9.5125,-0.015272,0.014661,-0.002138
-0.01181,0.56879,1.1572,9.6301,-0.015882,0.014966,-0.0024435
0.0015564,0.49033,1.2945,9.5909,-0.017104,0.013134,-0.0027489
-0.0013428,0.54917,1.1572,9.6301,-0.016188,0.014966,-0.0036652
-0.0042419,0.74531,1.2553,9.5125,-0.016188,0.016493,-0.0042761
-0.011444,0.41188,1.2945,9.6301,-0.017715,0.015882,-0.0033598
-0.0089417,0.49033,1.1964,9.6301,-0.016493,0.015577,-0.0027489
-0.008606,0.80415,1.2553,9.5125,-0.015882,0.016188,-0.0027489
-0.0091553,0.56879,1.1768,9.5125,-0.016188,0.015882,-0.0030543
-0.0063782,0.45111,1.2553,9.5713,-0.014355,0.016493,-0.0015272
-0.0043945,0.56879,1.1572,9.5125,-0.015882,0.017715,-0.0018326
-0.0090637,0.54917,1.1572,9.5713,-0.014661,0.01741,-0.0039706
-0.0084534,0.49033,1.2553,9.6301,-0.01405,0.014966,-0.0045815
-0.0046387,0.64724,1.1964,9.5125,-0.015577,0.01405,-0.0042761
-0.006958,0.60801,1.1964,9.5125,-0.016188,0.014661,-0.0012217
-0.011353,0.50995,1.2553,9.4732,-0.015882,0.017104,-0.0015272
-0.0076904,0.56879,1.1572,9.434,-0.015272,0.016799,-0.0039706
-0.0074463,0.66685,1.1572,9.4732,-0.016493,0.015882,-0.0024435
-0.0051575,0.56879,1.2553,9.5125,-0.016188,0.014966,-0.0036652
-0.0087891,0.56879,1.1572,9.5713,-0.016799,0.016188,-0.0033598
0.00082397,0.49033,1.1964,9.5713,-0.016188,0.016799,-0.0036652
-0.002533,0.74531,1.0787,9.4928,-0.015882,0.015272,-0.0030543
-0.00094604,0.41188,1.2945,9.5713,-0.017715,0.014661,-0.0030543
-0.0026245,0.49033,1.1964,9.5713,-0.015577,0.014966,-0.0027489
-0.0056763,0.41188,1.1964,9.5909,-0.014355,0.014355,-0.002138
-0.00061035,0.56879,1.2553,9.5125,-0.015882,0.015577,-0.0027489
-0.0074158,0.70608,1.3141,9.5125,-0.015577,0.015882,-0.0015272
-0.0010071,0.74531,1.2356,9.5125,-0.016188,0.015882,-0.0030543
-0.0024414,0.70608,1.1964,9.4732,-0.016799,0.016799,-0.0027489
-0.0075684,0.72569,1.1768,9.5713,-0.017715,0.016188,-0.002138
-0.0039673,0.74531,1.2356,9.5321,-0.017715,0.015577,-0.0036652
0.0030212,0.74531,1.2553,9.5125,-0.015577,0.015272,-0.0042761
-0.0092773,0.41188,1.2553,9.5909,-0.015882,0.014661,-0.0036652
-0.0039368,0.56879,1.1964,9.4928,-0.014355,0.014966,-0.0030543
0.0028687,0.72569,1.1572,9.5321,-0.015882,0.014355,-0.0024435
-0.0031433,0.56879,1.1572,9.434,-0.017715,0.015577,-0.0024435
-0.0015869,0.72569,1.1768,9.4928,-0.016188,0.015272,-0.0024435
-0.0071106,0.56879,1.1572,9.434,-0.015577,0.015272,-0.0030543
-0.0079346,0.74531,1.1572,9.434,-0.016188,0.016799,-0.002138
-0.0047607,0.74531,1.0787,9.5125,-0.015577,0.016799,-0.0009163
-0.005249,0.72569,1.2553,9.5321,-0.014966,0.016188,-0.0024435
-0.0014648,0.64724,1.2553,9.4928,-0.016799,0.015577,-0.0024435
-0.01004,0.70608,1.1964,9.5125,-0.016799,0.011301,-0.0015272
-0.0036926,0.66685,1.2356,9.5125,-0.015882,0.013439,-0.0042761
0.00073242,0.56879,1.1964,9.5125,-0.015882,0.015882,-0.0030543
-0.0069885,0.72569,1.1964,9.5125,-0.016493,0.015272,-0.002138
-0.007019,0.54917,1.1964,9.5125,-0.015577,0.016188,-0.0033598
-0.0065613,0.74531,1.2553,9.5321,-0.015577,0.015577,-0.0030543
-0.0048218,0.74531,1.1964,9.5125,-0.017104,0.015272,-0.0030543
-0.01239,0.74531,1.1768,9.4928,-0.014966,0.015882,-0.0030543
-0.0031738,0.74531,1.1964,9.5713,-0.016188,0.017715,-0.0030543
-0.0057068,0.72569,1.1572,9.5321,-0.016493,0.01741,-0.002138
-0.012512,0.50995,1.2356,9.5125,-0.015882,0.016799,-0.0024435
-0.0037537,0.56879,1.2945,9.5125,-0.016188,0.015272,-0.0030543
-0.0039368,0.56879,1.1572,9.434,-0.015577,0.016493,-0.0030543
-0.0029297,0.5884,1.1572,9.5909,-0.017104,0.015882,-0.0033598
-0.0096741,0.54917,1.1964,9.4928,-0.014661,0.014966,-0.0039706
-0.0022583,0.60801,1.2553,9.5125,-0.015272,0.013439,-0.0024435
-0.0062866,0.50995,1.0787,9.6694,-0.014661,0.01069,-0.0030543
-0.0010986,0.56879,1.1572,9.5713,-0.014661,0.013134,-0.0027489
-0.007782,0.5884,1.2553,9.5321,-0.014966,0.014966,-0.0030543
-0.0050659,0.60801,1.1768,9.5713,-0.016188,0.013439,-0.0024435
-0.0097656,0.74531,1.1964,9.5321,-0.015272,0.015272,-0.0027489
-0.0036926,0.50995,1.2553,9.6301,-0.015882,0.016799,-0.002138
-0.005127,0.72569,1.2749,9.5321,-0.016493,0.016188,-0.002138
-0.0085449,0.76492,1.2553,9.5713,-0.016188,0.01741,-0.0015272
-0.0065308,0.56879,1.1572,9.5909,-0.014966,0.019548,-0.00030543
-0.01004,0.60801,1.2553,9.5125,-0.014661,0.015882,-0.0033598
-0.022583,0.72569,1.1964,9.5125,-0.017104,0.016799,-0.0033598
-0.0070801,0.76492,1.1964,9.5321,-0.017715,0.015577,-0.0039706
-0.01355,0.74531,1.2356,9.5713,-0.016188,0.014966,-0.0036652
0.00064087,0.5884,1.1964,9.5713,-0.014355,0.015272,-0.0018326
0.0033875,0.56879,1.2356,9.4732,-0.014661,0.015272,-0.002138
-0.00177,0.66685,1.2553,9.5125,-0.017104,0.014661,-0.0027489
-0.010956,0.5884,1.1964,9.5713,-0.016493,0.012828,-0.0024435
-0.0015564,0.74531,1.2553,9.5125,-0.016188,0.013134,-0.0045815
0.0039673,0.74531,1.1572,9.5713,-0.01741,0.013744,-0.002138
-0.0036926,0.5884,1.2356,9.3359,-0.015577,0.013744,-0.0012217
-0.0036011,0.66685,1.2553,9.5321,-0.016493,0.01405,-0.0024435
0.0019226,0.50995,1.2553,9.5321,-0.015882,0.014661,-0.0030543
-0.013824,0.41188,1.2553,9.5909,-0.014966,0.015577,-0.0033598
-0.012939,0.74531,1.1376,9.5125,-0.018326,0.016188,-0.0024435
-0.00018311,0.5884,1.1572,9.3752,-0.01741,0.018021,-0.0015272
-0.0083313,0.74531,1.1768,9.5321,-0.014355,0.017104,-0.0030543
-0.01355,0.49033,1.2553,9.5713,-0.015272,0.015882,-0.0036652
-0.010162,0.56879,1.1964,9.5125,-0.016493,0.015577,-0.0033598
-0.0065002,0.56879,1.2553,9.5321,-0.014661,0.014355,-0.0039706
-0.0074158,0.74531,1.1964,9.5125,-0.014966,0.016188,-0.0048869
-0.015411,0.54917,1.1768,9.5713,-0.016188,0.014661,-0.0030543
-0.0050049,0.60801,1.2553,9.5125,-0.013744,0.015272,-0.00061087
0.0014954,0.72569,1.1964,9.5909,-0.014355,0.01405,-0.0012217
0.003479,0.80415,1.1964,9.5713,-0.015272,0.015577,-0.0015272
-0.00027466,0.70608,1.2553,9.5713,-0.015882,0.016799,-0.0012217
0.006897,0.70608,1.2553,9.5125,-0.016799,0.015882,-0.0024435
-0.0047302,0.74531,1.1572,9.434,-0.018021,0.014661,-0.0030543
-0.0092163,0.74531,1.1768,9.5321,-0.014661,0.016188,-0.0027489
-0.0057373,0.72569,1.1768,9.5125,-0.013134,0.016188,-0.0015272
-0.006897,0.56879,1.2553,9.5125,-0.016493,0.014661,-0.0036652
-0.0040283,0.49033,1.2553,9.5909,-0.014966,0.011301,-0.0042761
0.0016174,0.5884,1.1964,9.5321,-0.015577,0.013134,-0.0039706
-3.0518e-05,0.66685,1.1572,9.4928,-0.017715,0.015882,-0.0036652
-0.0059509,0.74531,1.2553,9.5713,-0.016493,0.016493,-0.0036652
-0.003418,0.72569,1.0395,9.4928,-0.015882,0.017104,-0.0033598
-0.0013123,0.60801,1.2356,9.5125,-0.014966,0.018021,-0.0027489
-0.0067749,0.56879,1.2553,9.4732,-0.013744,0.015577,-0.0027489
-0.0095825,0.5884,1.1768,9.5321,-0.015272,0.015272,-0.0033598
-0.0019836,0.72569,1.1768,9.5321,-0.016188,0.018937,-0.0024435
-0.012268,0.50995,1.2553,9.6301,-0.016799,0.017715,-0.0027489
-0.0085449,0.70608,1.0199,9.4928,-0.016493,0.016188,-0.0027489
0.00064087,0.56879,1.2356,9.5125,-0.015882,0.014966,-0.0036652
-0.0057068,0.72569,1.2356,9.5125,-0.015882,0.015882,-0.0024435
-0.0088501,0.74531,1.1964,9.5713,-0.014661,0.015882,-0.0030543
-0.0032349,0.66685,1.2553,9.5125,-0.014661,0.015272,-0.002138
-0.00024414,0.74531,1.0003,9.4732,-0.015272,0.014966,-0.0036652
-0.0045166,0.56879,1.1964,9.4928,-0.014661,0.014966,-0.002138
-0.015503,0.56879,1.2553,9.5125,-0.014661,0.01405,-0.0012217
-0.0038452,0.39227,1.2553,9.5713,-0.015577,0.01405,-0.0018326
-0.00061035,0.70608,1.0983,9.4732,-0.015577,0.015882,-0.0027489
-0.007019,0.70608,1.1572,9.5125,-0.014661,0.016188,-0.0027489
-0.0040283,0.50995,1.1572,9.5713,-0.014966,0.016188,-0.0030543
0.00061035,0.54917,1.2553,9.5125,-0.015577,0.015882,-0.0042761
-0.0053711,0.49033,1.2553,9.5713,-0.017715,0.014661,-0.0036652
-0.0090027,0.54917,1.0787,9.6694,-0.017104,0.01405,-0.0030543
-0.0053711,0.74531,1.1572,9.434,-0.016799,0.014355,-0.0015272
-0.0028381,0.66685,1.2553,9.5321,-0.016799,0.015577,-0.0024435
-0.0047302,0.56879,1.1768,9.5125,-0.017715,0.015882,-0.0024435
0.0032654,0.72569,1.3141,9.5125,-0.017104,0.015272,-0.0018326
-0.007843,0.74531,1.2356,9.5321,-0.015577,0.016493,-0.0033598
-0.0061035,0.74531,1.2553,9.5125,-0.01741,0.016799,-0.0051924
-0.0068359,0.74531,1.2945,9.5321,-0.013744,0.014355,-0.0039706
-0.0094604,0.54917,1.1964,9.3359,-0.013744,0.01405,-0.0045815
-0.011353,0.66685,1.2553,9.5125,-0.016799,0.015272,-0.0030543
-0.0088196,0.50995,1.2553,9.5713,-0.016493,0.014966,-0.0027489
-0.016479,0.56879,1.1376,9.6497,-0.017104,0.014966,-0.0033598
0.0063477,0.49033,1.2553,9.5713,-0.016799,0.015577,-0.0030543
-0.0016479,0.60801,1.1964,9.5321,-0.016799,0.015272,-0.0030543
-0.0092773,0.66685,1.2553,9.4928,-0.016799,0.015272,-0.0036652
-0.00067139,0.56879,1.1768,9.5321,-0.017715,0.016188,-0.0024435
-0.0073242,0.66685,1.2553,9.5321,-0.017104,0.019242,-0.0030543
-0.0056458,0.66685,1.1572,9.5125,-0.014966,0.016188,-0.0036652
-0.0094299,0.74531,1.2553,9.5125,-0.014355,0.01405,-0.0042761
0.0005188,0.39227,1.2945,9.6497,-0.015577,0.01405,-0.0048869
-0.0044861,0.64724,1.1964,9.5125,-0.017104,0.014355,-0.0039706
-0.010498,0.56879,1.2356,9.4732,-0.016493,0.015577,-0.0015272
-0.010071,0.74531,1.1768,9.5125,-0.014355,0.016799,-0.0024435
-0.0017395,0.60801,1.1768,9.5125,-0.014355,0.016493,-0.0027489
-0.00018311,0.60801,1.1964,9.5125,-0.015577,0.010996,-0.0030543
-0.010437,0.49033,1.2945,9.5909,-0.015272,0.012523,-0.0033598
-0.00088501,0.39227,1.2553,9.6497,-0.014661,0.014966,-0.002138
-0.01886,0.49033,1.2553,9.5713,-0.013134,0.015577,-0.0024435
-0.011963,0.66685,1.1572,9.5321,-0.013744,0.015882,-0.0030543
-0.0076599,0.66685,1.2553,9.4732,-0.015272,0.015272,-0.0012217
-0.0092773,0.74531,1.2553,9.5713,-0.015882,0.016188,-0.0015272
-0.0074768,0.56879,1.1572,9.5125,-0.014355,0.015272,-0.0009163
-0.0042114,0.60801,1.2356,9.5125,-0.014355,0.011606,-0.0030543
-0.0033569,0.45111,1.2553,9.6301,-0.017104,0.013744,-0.0033598
-0.011475,0.70608,1.0395,9.5125,-0.017715,0.016188,-0.0015272
-0.0018311,0.74531,1.2553,9.5713,-0.018326,0.015272,-0.0024435
-0.011932,0.5884,1.1964,9.3752,-0.016188,0.014661,-0.0030543
0.0059204,0.72569,1.1768,9.5125,-0.017104,0.015272,-0.0027489
-0.0054626,0.66685,1.1768,9.4732,-0.015882,0.014966,-0.0015272
-0.0074463,0.66685,1.2945,9.5125,-0.015882,0.015577,-0.0039706
-0.0075073,0.50995,1.2553,9.5125,-0.015882,0.018326,-0.0033598
-0.0062866,0.43149,1.2553,9.5713,-0.015577,0.017715,-0.0030543
0.0027466,0.72569,1.1572,9.5125,-0.015577,0.015272,-0.002138
-0.010376,0.74531,1.1572,9.5125,-0.016493,0.014355,-0.002138
-0.0026855,0.41188,1.1964,9.5713,-0.017104,0.015577,-0.0033598
-0.0084534,0.56879,1.1964,9.5125,-0.016799,0.015882,-0.0036652
-0.0015869,0.54917,1.2553,9.4928,-0.015882,0.014661,-0.0036652
-0.0076599,0.60801,1.1768,9.5321,-0.01741,0.014661,-0.0012217
-0.0081482,0.49033,1.2553,9.5713,-0.016493,0.014966,-0.0030543
-0.0057678,0.74531,1.1964,9.5713,-0.015882,0.016799,-0.0027489
0.0007019,0.60801,1.2553,9.5125,-0.015882,0.015882,-0.0030543
-0.0028992,0.60801,1.1572,9.5713,-0.014355,0.015882,-0.0030543
-0.0018616,0.66685,1.2553,9.5125,-0.016799,0.016493,-0.0009163
0.0012207,0.72569,1.2356,9.6497,-0.017715,0.014966,-0.0015272
-0.0040588,0.43149,1.2945,9.5909,-0.019242,0.014355,-0.0015272
-0.0070801,0.54917,1.1964,9.4928,-0.017104,0.015272,-0.0018326
0.0027161,0.66685,1.2356,9.5125,-0.015272,0.012217,-0.0024435
-0.0085449,0.72569,1.2553,9.5125,-0.015272,0.012828,-0.0024435
-0.0037842,0.74531,1.1964,9.5713,-0.015577,0.014966,-0.0027489
-0.011078,0.5884,1.1964,9.5125,-0.016799,0.016188,-0.0015272
-0.010986,0.41188,1.2553,9.5909,-0.015882,0.016493,-0.0030543
0.00088501,0.74531,1.2356,9.5125,-0.014661,0.015882,-0.0036652
-0.0041199,0.72569,1.1768,9.5321,-0.016493,0.016493,-0.0042761
-0.0050659,0.43149,1.2945,9.5909,-0.015272,0.015577,-0.0030543
-0.00061035,0.5884,1.0199,9.689,-0.015577,0.012523,-0.0015272
-0.0036926,0.72569,1.2553,9.5321,-0.016188,0.012828,-0.0054978
-0.009491,0.70608,1.1964,9.4928,-0.015577,0.015272,-0.0048869
-0.0097961,0.72569,1.1572,9.5125,-0.016493,0.015882,-0.0033598
-0.0086365,0.74531,1.2553,9.5713,-0.017104,0.015577,-0.0027489
-0.0016174,0.49033,1.1964,9.5713,-0.016188,0.015577,-0.0039706
0.0021362,0.49033,1.1572,9.5321,-0.016188,0.015272,-0.0042761
0.0044861,0.41188,1.2356,9.6497,-0.016799,0.016493,-0.0036652
0.0021362,0.56879,1.2553,9.434,-0.015272,0.018326,-0.0024435
-0.0028992,0.74531,1.0199,9.5125,-0.015272,0.01741,-0.002138
-0.0032043,0.72569,1.1964,9.5125,-0.015577,0.016799,-0.0012217
-0.016449,0.72569,1.0787,9.5125,-0.015577,0.016493,-0.0018326
-0.0057678,0.41188,1.2945,9.5909,-0.014966,0.014661,-0.0036652
-0.010132,0.60801,1.2356,9.5125,-0.015882,0.015272,-0.0033598
-0.0064392,0.74531,1.0395,9.434,-0.015882,0.014966,-0.0033598
-0.00024414,0.66685,1.216,9.5125,-0.015577,0.014355,-0.0027489
-0.00091553,0.66685,1.2356,9.4928,-0.015577,0.010996,-0.0027489
-0.0031128,0.74531,1.2553,9.5321,-0.014355,0.012828,-0.0018326
-0.0088806,0.56879,1.1572,9.5713,-0.01405,0.015882,-0.0033598
0.0057983,0.49033,1.1964,9.434,-0.014661,0.016799,-0.0039706
-0.0024109,0.41188,1.1964,9.6301,-0.01741,0.016799,-0.0036652
-0.014313,0.74531,1.1768,9.5321,-0.018631,0.015882,-0.0018326
-0.010651,0.66685,1.2553,9.5125,-0.018021,0.015882,-0.0024435
-0.010284,0.54917,1.1964,9.5125,-0.015882,0.01405,-0.0039706
-0.0041504,0.41188,1.2553,9.5713,-0.017715,0.014661,-0.0039706
-0.0015259,0.74531,1.1376,9.4928,-0.016493,0.015882,-0.0039706
-0.0024109,0.70608,1.2356,9.5125,-0.016188,0.015577,-0.0033598
-0.013153,0.74531,1.1768,9.5125,-0.018631,0.014966,-0.0015272
-0.006012,0.74531,1.1768,9.6301,-0.017104,0.015272,-0.0030543
-0.0050659,0.60801,1.1768,9.5125,-0.016493,0.015882,-0.0048869
-0.0031128,0.66685,1.2553,9.5125,-0.016493,0.015882,-0.0033598
-0.008606,0.64724,1.2553,9.5125,-0.016799,0.015577,-0.0024435
-0.0024414,0.56879,1.0787,9.6301,-0.017104,0.01741,-0.002138
0.002533,0.54917,1.2553,9.5713,-0.017104,0.016799,-0.0012217
-0.0014954,0.64724,1.1768,9.5713,-0.016799,0.016493,-0.0024435
-0.0012207,0.74531,1.1964,9.5713,-0.014966,0.015882,-0.0015272
-0.00057983,0.56879,1.1964,9.5125,-0.015272,0.015577,-0.00030543
-0.00067139,0.72569,1.0787,9.5125,-0.016188,0.014966,-0.0015272
-0.015747,0.66685,1.1768,9.5125,-0.015577,0.016188,-0.0018326
-0.0071411,0.64724,1.2553,9.5125,-0.018021,0.015882,-0.0027489
-0.00054932,0.74531,1.1768,9.5713,-0.018021,0.01405,-0.0036652
-0.013611,0.56879,1.1572,9.5713,-0.016493,0.015577,-0.002138
-0.0021362,0.60801,1.2356,9.4928,-0.017104,0.014966,-0.0027489
-0.010895,0.66685,1.1768,9.5125,-0.016493,0.01405,-0.0036652
-0.0053101,0.49033,1.1768,9.4928,-0.014355,0.015882,-0.0030543
-0.00082397,0.76492,1.1964,9.5909,-0.015882,0.017104,-0.0015272
-0.0092773,0.64724,1.1768,9.5713,-0.017104,0.016188,-0.0027489
-0.012054,0.66685,1.1964,9.5125,-0.017715,0.015882,-0.0030543
-0.011261,0.54917,1.1572,9.4144,-0.018631,0.019242,-0.0042761
-0.0046997,0.54917,1.1964,9.4732,-0.01741,0.01741,-0.0045815
-0.011505,0.49033,1.3337,9.5713,-0.014966,0.016188,-0.0042761
-0.0093994,0.56879,1.1376,9.5713,-0.015882,0.014661,-0.0024435
0.00015259,0.80415,1.1768,9.5321,-0.016493,0.015272,-0.0030543
-0.0013428,0.74531,1.1964,9.5713,-0.016799,0.016799,-0.0033598
-0.0047913,0.66685,1.2553,9.5125,-0.016188,0.015577,-0.0015272
-0.0057983,0.72569,1.1768,9.6301,-0.017104,0.014355,-0.0039706
0.0011597,0.74531,1.1768,9.5321,-0.016799,0.010996,-0.002138
-0.0064697,0.74531,1.1572,9.5321,-0.014966,0.012828,-0.0036652
-0.0070801,0.66685,1.2945,9.5125,-0.01741,0.014355,-0.002138
-0.0063477,0.56879,1.0787,9.6301,-0.018937,0.015577,-0.0015272
-0.006134,0.70608,1.2945,9.5321,-0.017104,0.014966,-0.0036652
-0.00064087,0.72569,1.0199,9.5125,-0.016188,0.013439,-0.0048869
-0.00354,0.70608,1.1964,9.5321,-0.015882,0.013439,-0.0051924
-0.0068359,0.56879,1.2553,9.434,-0.015577,0.016493,-0.002138
-0.0022583,0.35304,1.0787,9.689,-0.014966,0.018937,-0.002138
0.0055847,0.74531,1.1768,9.5125,-0.015272,0.015882,-0.0027489
0.0029602,0.74531,1.2553,9.5713,-0.015882,0.014966,-0.0027489
-0.0083313,0.56879,1.2553,9.5125,-0.016188,0.015577,-0.0027489
-0.0099792,0.74531,1.2553,9.5713,-0.016799,0.01405,-0.0018326
0.0046082,0.74531,1.1572,9.5321,-0.014966,0.015882,-0.0018326
0.0017395,0.72569,1.2553,9.5125,-0.017104,0.015882,-0.0027489
-0.0061951,0.74531,1.1572,9.5125,-0.015272,0.014661,-0.0039706
-0.0015259,0.49033,1.2553,9.5713,-0.015882,0.018326,-0.0030543
-0.0077209,0.72569,1.1964,9.5321,-0.014966,0.016799,-0.0015272
-0.0057373,0.49033,1.2553,9.5713,-0.014966,0.015577,-0.002138
-0.0063477,0.56879,1.0983,9.5713,-0.01405,0.016188,-0.0030543
-0.0033875,0.66685,1.2356,9.4732,-0.012828,0.015882,-0.0024435
-0.0063782,0.74531,1.2356,9.5713,-0.014661,0.016493,-0.002138
-0.0079651,0.70608,1.0395,9.4732,-0.014966,0.016799,-0.002138
-0.012146,0.49033,1.2553,9.5125,-0.017104,0.016188,-0.0027489
0.0010986,0.5884,1.2553,9.5125,-0.01741,0.015272,-0.002138
-0.00094604,0.56879,1.1572,9.434,-0.016799,0.015882,-0.0024435
0.0021973,0.74531,1.2553,9.5125,-0.017104,0.015882,-0.002138
-0.0049133,0.54917,1.2553,9.5125,-0.015272,0.014966,-0.002138
-0.013397,0.64724,1.1964,9.5125,-0.016493,0.013134,-0.0039706
-0.0036316,0.54917,1.2356,9.5125,-0.016188,0.013439,-0.0036652
-0.015106,0.74531,1.1964,9.6301,-0.016188,0.015272,-0.0036652
-0.0067749,0.35304,1.2553,9.6497,-0.017104,0.015272,-0.0024435
-0.0044556,0.72569,1.1768,9.5125,-0.017104,0.014355,-0.0030543
-0.012268,0.5884,1.1768,9.5125,-0.017715,0.015577,-0.0027489
-0.0046387,0.50995,1.1768,9.5713,-0.016799,0.015882,-0.0042761
0.0007019,0.72569,1.2356,9.5321,-0.01741,0.015882,-0.0036652
0.0018005,0.66685,1.2553,9.4928,-0.018326,0.015882,-0.0033598
-0.0097656,0.56879,1.1964,9.4732,-0.016493,0.015577,-0.0027489
-0.0024719,0.70608,1.1964,9.5713,-0.015882,0.015577,-0.0009163
-0.0072327,0.66685,1.2945,9.5125,-0.014966,0.013744,-0.0009163
-0.0057373,0.39227,1.1768,9.6301,-0.015577,0.014661,-0.002138
0.0057373,0.72569,1.2356,9.5713,-0.016188,0.016493,-0.002138
-0.012909,0.72569,1.1572,9.5125,-0.013134,0.016188,-0.002138
-0.0084229,0.64724,1.2553,9.5125,-0.01405,0.016188,-0.0027489
-0.0050964,0.64724,1.2356,9.5125,-0.015882,0.015577,-0.0042761
-0.0059509,0.66685,1.3141,9.5125,-0.016799,0.015882,-0.0036652
-0.0041504,0.54917,1.1376,9.5713,-0.015577,0.015882,-0.002138
0.0041199,0.49033,1.2553,9.5321,-0.017104,0.015882,-0.0009163
-0.0046997,0.60801,1.1768,9.5125,-0.017715,0.018326,-0.0030543
-0.012085,0.74531,1.2356,9.5321,-0.014966,0.01741,-0.0027489
-0.012207,0.54917,1.1964,9.5713,-0.014966,0.015577,-0.0027489
-0.0066833,0.74531,1.0787,9.5125,-0.015577,0.014966,-0.0036652
-0.0078125,0.56879,1.2553,9.4732,-0.016493,0.014661,-0.0030543
-0.009613,0.66685,1.2553,9.5321,-0.015882,0.015272,-0.0030543
0.0021973,0.74531,1.2553,9.5321,-0.016799,0.016799,-0.002138
-0.00354,0.74531,1.1768,9.5125,-0.015272,0.014966,-0.0030543
-0.010559,0.56879,1.1964,9.5125,-0.018326,0.011912,-0.0039706
-0.0046082,0.54917,1.1768,9.6301,-0.016188,0.01405,-0.0042761
-0.0036316,0.66685,1.1964,9.4928,-0.016188,0.015272,-0.0024435
-0.0038147,0.72569,1.1768,9.5321,-0.016799,0.014966,-0.0009163
0.0027466,0.54917,1.1572,9.6301,-0.016493,0.015577,-0.002138
-0.0050964,0.49033,1.2356,9.5713,-0.016188,0.015577,-0.0030543
-0.010834,0.74531,1.1964,9.5125,-0.013134,0.015882,-0.0024435
0.0040588,0.74531,1.1572,9.5125,-0.015577,0.015882,-0.0042761
0.00057983,0.66685,1.3337,9.5125,-0.015577,0.019242,-0.0030543
-0.013763,0.39227,1.1964,9.6301,-0.016493,0.018021,-0.0039706
-0.0045471,0.54917,1.1768,9.434,-0.015272,0.015577,-0.0036652
-0.0058289,0.70608,1.0787,9.5125,-0.014966,0.016493,-0.0024435
-0.0075073,0.74531,1.1572,9.4928,-0.014966,0.016493,-0.0030543
-0.0072327,0.41188,1.1768,9.6694,-0.016493,0.015577,-0.002138
0.0022278,0.70608,1.2356,9.4928,-0.015577,0.014966,-0.0033598
-0.012695,0.70608,1.1964,9.6301,-0.01741,0.018021,-0.0027489
-0.0090027,0.45111,1.0787,9.689,-0.017104,0.02138,-0.002138
-0.0013733,0.72569,1.2553,9.5125,-0.017104,0.017715,-0.0030543
-0.0040588,0.80415,1.2553,9.5713,-0.014966,0.014355,-0.0039706
-0.00082397,0.56879,1.1572,9.6301,-0.014966,0.014966,-0.0039706
-0.0021362,0.49033,1.2553,9.6301,-0.016188,0.015577,-0.0036652
-0.0090027,0.74531,1.1768,9.5125,-0.014661,0.015272,-0.0036652
-0.0079956,0.54917,1.1768,9.6301,-0.013439,0.015882,-0.0039706
-0.0039978,0.49033,1.2553,9.5713,-0.018937,0.016188,-0.0054978
-0.0086975,0.76492,1.0199,9.5125,-0.018937,0.015577,-0.0033598
-0.0029907,0.66685,1.2553,9.5125,-0.014966,0.014966,-0.0036652
-0.0056458,0.49033,1.2553,9.5909,-0.016188,0.01405,-0.0036652
-0.010925,0.74531,1.1964,9.5321,-0.018326,0.015882,-0.0015272
-0.012634,0.50995,1.2553,9.5713,-0.017715,0.015577,-0.0027489
-0.0022583,0.70608,1.1768,9.5125,-0.015272,0.015577,-0.0039706
-0.0058899,0.54917,1.1964,9.6497,-0.014355,0.016188,-0.0054978
-0.012299,0.41188,1.2553,9.6301,-0.013134,0.015882,-0.0033598
-0.01413,0.60801,1.2553,9.4732,-0.01405,0.01405,-0.0018326
-0.0014343,0.72569,1.1964,9.5713,-0.016493,0.016188,-0.0039706
-0.0093079,0.70608,1.2553,9.5125,-0.015882,0.014966,-0.0027489
-0.0037231,0.74531,1.2553,9.5321,-0.014966,0.013134,-0.0042761
-0.0159,0.76492,1.0199,9.4928,-0.016188,0.014661,-0.0042761
-0.015991,0.70608,1.1964,9.4928,-0.015882,0.014661,-0.0033598
-0.012756,0.56879,1.2553,9.5125,-0.015272,0.014966,-0.0039706
-0.0050659,0.70608,1.0003,9.5125,-0.018326,0.016188,-0.0027489
-0.0039978,0.74531,1.1572,9.5125,-0.01741,0.019548,-0.002138
-0.0080566,0.74531,1.2553,9.5321,-0.014966,0.017104,-0.0030543
0.0011597,0.54917,1.1572,9.5909,-0.017715,0.01405,-0.0039706
-0.0046997,0.54917,1.1768,9.4144,-0.017104,0.014966,-0.0027489
-0.0048218,0.74531,1.0395,9.5321,-0.017104,0.015577,-0.0015272
-0.0010681,0.66685,1.2356,9.5125,-0.015577,0.015272,-0.0024435
-0.0026245,0.72569,1.1768,9.5713,-0.015577,0.015882,-0.0030543
-0.013947,0.56879,1.1768,9.434,-0.01741,0.014355,-0.0033598
-0.0082397,0.66685,1.2553,9.5125,-0.018326,0.017715,-0.0027489
-0.0083923,0.72569,1.0003,9.5125,-0.017715,0.017104,-0.0054978
-0.0083008,0.56879,1.2553,9.5125,-0.018021,0.014661,-0.0051924
0.0061951,0.54917,1.1964,9.5125,-0.016188,0.015577,-0.0033598
-0.0024414,0.50995,1.1572,9.5713,-0.016188,0.016188,-0.0024435
-0.00021362,0.74531,1.1964,9.5125,-0.016493,0.015882,-0.0024435
-0.002533,0.56879,1.2553,9.5125,-0.017104,0.015882,-0.0036652
-0.0075378,0.72569,1.1768,9.5321,-0.016188,0.014966,-0.0030543
-0.0069275,0.74531,1.2553,9.5321,-0.017104,0.012523,-0.0030543
-0.0018311,0.5884,1.1964,9.3555,-0.017104,0.013134,-0.0030543
-0.002594,0.60801,1.1964,9.5125,-0.018021,0.014661,-0.0036652
-0.0099487,0.60801,1.2356,9.4732,-0.01741,0.015272,-0.0030543
0.0022583,0.74531,1.1964,9.5321,-0.016799,0.016799,-0.00030543
-0.0021057,0.66685,1.2553,9.4928,-0.016799,0.016188,-0.0009163
-0.009613,0.74531,1.2553,9.5713,-0.015577,0.015577,-0.0024435
-0.0083313,0.43149,1.2553,9.6301,-0.016799,0.015882,-0.0039706
-0.009552,0.49033,1.2553,9.5713,-0.016188,0.018937,-0.0036652
-0.010895,0.72569,1.2553,9.5321,-0.016799,0.016799,-0.0015272
-0.0073242,0.56879,1.1768,9.4732,-0.017715,0.014966,-0.0015272
0.00018311,0.72569,1.1964,9.5321,-0.017104,0.016188,-0.0030543
0.0030823,0.64724,1.1572,9.5321,-0.016799,0.015882,-0.0030543
-0.0093689,0.54917,1.2553,9.4732,-0.016493,0.015272,-0.0042761
-0.0027161,0.66685,1.2553,9.5125,-0.014661,0.015577,-0.0045815
-0.0039368,0.66685,1.1964,9.5321,-0.015882,0.014661,-0.0036652
-0.0073242,0.74531,1.1572,9.5125,-0.015882,0.012217,-0.0042761
-0.0010376,0.74531,1.1964,9.5713,-0.016799,0.014355,-0.0033598
0.0021973,0.56879,1.1572,9.3555,-0.01741,0.016188,-0.0042761
-0.0093689,0.49033,1.2553,9.6301,-0.016493,0.015272,-0.0042761
-0.0081787,0.49033,1.1964,9.5713,-0.017715,0.01405,-0.0024435
-0.0063171,0.56879,1.0787,9.6301,-0.017715,0.014661,-0.002138
-0.011078,0.76492,1.1572,9.4928,-0.016188,0.014966,-0.0027489
-0.00094604,0.66685,1.1768,9.5321,-0.019548,0.015272,-0.0018326
-0.00015259,0.27459,1.0983,9.7478,-0.017104,0.014355,-0.0036652
-0.0010986,0.74531,1.2356,9.5125,-0.016493,0.014355,-0.002138
-0.010406,0.74531,1.2356,9.5713,-0.016799,0.015577,-0.0036652
-0.0043945,0.72569,1.0787,9.434,-0.018021,0.015272,-0.0036652
-0.0057373,0.66685,1.1768,9.4928,-0.018937,0.014661,-0.0036652
0.0016479,0.74531,1.1572,9.5125,-0.017715,0.015577,-0.0027489
-0.014343,0.72569,1.2553,9.5125,-0.016493,0.015577,-0.002138
-0.003418,0.66685,1.3141,9.5125,-0.016188,0.014355,-0.0015272
-0.0068665,0.54917,1.2553,9.5713,-0.015577,0.012828,-0.0009163
-0.013947,0.76492,1.1964,9.5125,-0.016493,0.013439,-0.0036652
-0.013702,0.41188,1.2553,9.6497,-0.017104,0.015577,-0.0027489
-0.010193,0.50995,1.2356,9.5713,-0.016493,0.01741,-0.0015272
-0.0099487,0.54917,1.0983,9.5713,-0.016188,0.01741,-0.0018326
-0.011108,0.56879,1.2553,9.5321,-0.016188,0.015882,-0.0030543
-0.0072327,0.66685,1.0003,9.5321,-0.017104,0.016493,-0.0027489
-0.014404,0.66685,1.1964,9.5125,-0.016493,0.013439,-0.0039706
-0.0028076,0.56879,1.1964,9.434,-0.017715,0.011606,-0.0024435
-0.0045776,0.5884,1.1768,9.5713,-0.015577,0.014966,-0.0033598
-0.0039368,0.70608,1.3141,9.5125,-0.016188,0.016188,-0.0039706
0.0005188,0.45111,1.2553,9.5909,-0.014966,0.015577,-0.0036652
-0.0025024,0.60801,1.2553,9.5125,-0.016493,0.015882,-0.0036652
-0.002655,0.60801,1.2356,9.5321,-0.017715,0.016493,-0.0030543
-0.0064392,0.66685,1.3337,9.5321,-0.015577,0.016188,-0.0039706
-0.010834,0.74531,1.1964,9.5909,-0.016799,0.016799,-0.0024435
-0.012665,0.72569,1.2553,9.5321,-0.016799,0.019853,-0.0027489
-0.010406,0.74531,1.1964,9.5713,-0.016493,0.017715,-0.0030543
-0.009552,0.74531,1.2356,9.5713,-0.016493,0.015882,-0.0036652
-0.0053101,0.66685,1.1768,9.5125,-0.015577,0.016799,-0.002138
0.002533,0.56879,1.2553,9.4928,-0.016188,0.016188,-0.0009163
-0.0028076,0.74531,1.2553,9.5321,-0.01741,0.014966,-0.0012217
-0.00354,0.56879,1.1768,9.5713,-0.018326,0.015272,-0.0018326
-0.012268,0.56879,1.2553,9.5125,-0.016188,0.014661,-0.0024435
3.0518e-05,0.70608,1.2356,9.5713,-0.016799,0.012217,-0.0036652
-0.0011902,0.41188,1.2553,9.5909,-0.017715,0.014355,-0.002138
-0.0072937,0.49033,1.2553,9.5713,-0.017715,0.014966,-0.0030543
-0.0055847,0.41188,1.1964,9.5713,-0.017104,0.014661,-0.0054978
-0.0049133,0.56879,1.2553,9.4732,-0.01741,0.014661,-0.0042761
-0.010254,0.56879,1.1768,9.5125,-0.017104,0.015272,-0.0027489
-0.0065308,0.74531,1.2553,9.5125,-0.017715,0.015577,-0.0033598
-0.0070801,0.74531,1.1572,9.4928,-0.016493,0.016188,-0.0039706
-0.004364,0.72569,1.1572,9.5713,-0.014355,0.017715,-0.002138
-0.00088501,0.41188,1.2553,9.5909,-0.013744,0.016493,-0.0048869
0.0051575,0.49033,1.3141,9.5713,-0.014966,0.015272,-0.0045815
-0.0060425,0.49033,1.2553,9.5713,-0.015272,0.014966,-0.0045815
0.0033875,0.5884,1.1572,9.5125,-0.016493,0.015577,-0.0042761
-0.0098572,0.72569,1.2356,9.5125,-0.016799,0.015882,-0.0036652
-0.0054321,0.74531,1.2553,9.5713,-0.016493,0.015272,-0.0048869
-0.0048218,0.72569,1.0787,9.4732,-0.016493,0.015882,-0.0033598
-0.0075378,0.66685,1.2553,9.4732,-0.01405,0.01405,-0.0033598
-0.0048523,0.56879,1.2356,9.4928,-0.016493,0.01405,-0.0045815
-0.011963,0.66685,1.2553,9.5713,-0.015577,0.016799,-0.0039706
0.0031433,0.72569,1.2553,9.5321,-0.016188,0.016188,-0.0033598
-0.0066223,0.56879,1.2553,9.5125,-0.017104,0.015272,-0.0024435
0.0007019,0.60801,1.2356,9.5125,-0.017715,0.015272,-0.0030543
-0.00021362,0.49033,1.2553,9.5713,-0.018326,0.01405,-0.0039706
-0.011932,0.72569,1.1768,9.5713,-0.018937,0.015577,-0.0024435
-0.0024109,0.74531,1.2356,9.5713,-0.017104,0.018021,-0.002138
-0.0080566,0.60801,1.1964,9.5125,-0.015882,0.016493,-0.0030543
-0.0014648,0.74531,1.0787,9.5125,-0.01741,0.015272,-0.0030543
-0.0082703,0.66685,1.2356,9.5125,-0.01741,0.015882,-0.0033598
-0.0012207,0.74531,1.2553,9.5321,-0.017715,0.015577,-0.0039706
-0.006958,0.66685,1.2553,9.5321,-0.018021,0.015577,-0.0036652
-0.0076904,0.49033,1.2553,9.5713,-0.019853,0.015272,-0.0024435
-0.0012207,0.72569,1.2553,9.5125,-0.014661,0.014355,-0.0036652
-0.012054,0.49033,1.0395,9.6497,-0.015577,0.012523,-0.002138
-0.0016785,0.66685,1.2553,9.5125,-0.015577,0.013439,-0.0036652
-0.0027771,0.64724,1.1768,9.5321,-0.014355,0.014661,-0.0030543
-0.0039368,0.74531,1.1768,9.5321,-0.017104,0.016799,-0.0027489
-0.0059814,0.74531,1.1572,9.5321,-0.016493,0.016188,-0.0039706
-0.0055542,0.66685,1.1768,9.3555,-0.014966,0.016188,-0.0061087
-0.015106,0.54917,1.1572,9.5125,-0.015577,0.015882,-0.0054978
-0.0070496,0.64724,1.2945,9.5125,-0.015577,0.014966,-0.0033598
0.00018311,0.56879,1.1572,9.4144,-0.015882,0.012217,-0.002138
-0.010651,0.56879,1.1572,9.5909,-0.016493,0.01405,-0.0048869
0.0017395,0.56879,1.1964,9.5125,-0.017715,0.014661,-0.0039706
-0.003479,0.66685,1.1964,9.5125,-0.016799,0.015577,-0.0033598
-0.011932,0.56879,1.1572,9.434,-0.016799,0.016188,-0.0042761
-0.011353,0.74531,1.1768,9.5713,-0.017715,0.014661,-0.0036652
-0.007843,0.50995,1.2553,9.5713,-0.017104,0.01405,-0.0036652
0.00036621,0.74531,1.1572,9.4928,-0.017104,0.015272,-0.0030543
-0.0026245,0.54917,1.1964,9.4928,-0.015882,0.019853,-0.0036652
-0.0065918,0.66685,1.2945,9.5125,-0.016188,0.018021,-0.0024435
-0.011017,0.72569,1.2553,9.5125,-0.01741,0.015882,-0.0024435
-0.0090942,0.70608,1.1964,9.4928,-0.016799,0.015272,-0.0036652
0.0036011,0.56879,1.2553,9.5125,-0.015882,0.016188,-0.0051924
-0.0044556,0.70608,1.1964,9.5125,-0.015882,0.016188,-0.0051924
-0.0066528,0.49033,1.1964,9.5713,-0.016188,0.016799,-0.0036652
-0.0057373,0.45111,1.2553,9.6301,-0.016799,0.015882,-0.0033598
-0.0075073,0.72569,1.1572,9.4732,-0.016188,0.014661,-0.0036652
-0.012787,0.76492,1.0199,9.5125,-0.015882,0.014966,-0.0039706
-0.0020752,0.74531,1.2553,9.5125,-0.017104,0.014966,-0.0045815
-0.0011597,0.74531,1.1964,9.6301,-0.016188,0.015577,-0.0054978
-0.0083313,0.74531,1.1768,9.5125,-0.015577,0.016493,-0.0036652
-0.0050964,0.50995,1.1964,9.434,-0.016188,0.015272,-0.0030543
-0.0097656,0.5884,1.1964,9.4928,-0.017104,0.014966,-0.0027489
-0.015472,0.74531,1.0787,9.5125,-0.018326,0.014661,-0.0027489
-0.0016785,0.56879,1.1572,9.5713,-0.018326,0.012828,-0.0048869
-0.0068054,0.49033,1.2553,9.5713,-0.014966,0.014966,-0.0033598
-0.0076599,0.56879,1.2553,9.3359,-0.014355,0.014966,-0.0027489
-0.0073547,0.74531,1.1572,9.4928,-0.015882,0.015272,-0.0042761
6.1035e-05,0.56879,1.2553,9.434,-0.015882,0.016493,-0.0042761
-0.0041504,0.56879,1.1964,9.4732,-0.015882,0.016493,-0.002138
-0.0064087,0.72569,1.1964,9.5321,-0.015577,0.015577,-0.0015272
0.0012512,0.74531,1.0199,9.5125,-0.015272,0.015577,-0.0033598
-0.011719,0.70608,1.2553,9.5125,-0.016493,0.014661,-0.0033598
-0.012512,0.70608,1.2553,9.5125,-0.015577,0.014661,-0.0048869
-0.0059814,0.72569,1.1964,9.5125,-0.014966,0.01405,-0.002138
-0.0049438,0.66685,1.1964,9.5125,-0.016493,0.016188,-0.002138
-0.0028076,0.45111,1.1964,9.5713,-0.016493,0.01741,-0.0033598
-0.0021362,0.76492,1.2553,9.5321,-0.016188,0.016493,-0.0042761
-0.014801,0.74531,1.2553,9.5713,-0.01405,0.016493,-0.0036652
-0.00030518,0.64724,1.2945,9.5125,-0.018021,0.016493,-0.0030543
-0.0011597,0.41188,1.2553,9.6301,-0.017715,0.019853,-0.0036652
-0.0074158,0.74531,1.1768,9.5713,-0.016493,0.018631,-0.0009163
0.0010071,0.70608,1.2553,9.6301,-0.015882,0.016493,-0.0012217
0.0007019,0.74531,1.2553,9.5321,-0.015577,0.017104,-0.0024435
-0.01355,0.54917,1.1768,9.4928,-0.015577,0.015272,-0.0027489
-0.0096436,0.64724,1.2945,9.4928,-0.016493,0.014355,-0.002138
0.0057068,0.70608,1.1768,9.5321,-0.016188,0.015577,-0.0027489
-0.0059509,0.66685,1.2553,9.4732,-0.014661,0.014661,-0.0027489
-0.010834,0.72569,1.1964,9.6301,-0.013744,0.011606,-0.002138
-0.0058899,0.74531,1.1768,9.5125,-0.014355,0.013439,-0.0039706
-0.0090637,0.74531,1.1964,9.5713,-0.015882,0.014966,-0.0027489
-0.009491,0.56879,1.2553,9.5125,-0.016493,0.014966,-0.0033598
-0.01123,0.72569,1.1964,9.5713,-0.017104,0.014661,-0.0030543
-0.010498,0.56879,1.2553,9.4928,-0.01405,0.016493,-0.0018326
-0.012299,0.70608,1.0787,9.5125,-0.01405,0.016493,-0.002138
-0.0038452,0.76492,1.1768,9.5125,-0.016188,0.016188,-0.0018326
0.0047302,0.54917,1.0787,9.6301,-0.014355,0.012523,-0.0015272
-0.0027466,0.74531,1.0787,9.5125,-0.017104,0.013439,-0.0018326
-0.0083313,0.60801,1.2553,9.4732,-0.017715,0.015272,-0.0018326
-0.0075989,0.64724,1.2945,9.5125,-0.017104,0.01405,-0.0027489
-0.005127,0.74531,1.0787,9.5125,-0.016799,0.015577,-0.0039706
-0.012177,0.66685,1.2356,9.5125,-0.014966,0.016188,-0.0051924
-0.013702,0.56879,1.1768,9.4144,-0.015272,0.015272,-0.0036652
-0.002594,0.72569,1.1964,9.5713,-0.01741,0.015882,-0.0018326
-0.014771,0.49033,1.2553,9.6301,-0.017715,0.019548,-0.0030543
0.018494,0.72569,1.2553,9.5321,-0.017104,0.018021,-0.002138
-0.00094604,0.54917,1.1964,9.4928,-0.014966,0.014966,-0.0030543
-0.003418,0.56879,1.2553,9.5125,-0.015577,0.015272,-0.0030543
0.00079346,0.70608,1.2553,9.5713,-0.015577,0.014661,-0.0030543
0.003479,0.66685,1.2356,9.5125,-0.015882,0.01405,-0.002138
0.0025024,0.54917,1.0787,9.5713,-0.015882,0.014966,-0.002138
-0.010712,0.66685,1.2356,9.4928,-0.01741,0.016188,-0.0033598
0.0089722,0.74531,1.2553,9.5321,-0.016799,0.015272,-0.0033598
-0.012787,0.72569,1.2553,9.6301,-0.01741,0.015272,-0.0036652
-0.0112,0.74531,1.2356,9.5713,-0.017104,0.015882,-0.0033598
-0.0081787,0.56879,1.1768,9.4732,-0.016493,0.015577,-0.0033598
0.0026855,0.5884,1.2356,9.5125,-0.016799,0.014355,-0.0036652
-0.00085449,0.66685,1.2553,9.5125,-0.016188,0.01405,-0.0024435
0.0020447,0.74531,1.0199,9.5125,-0.018021,0.017715,-0.0024435
0.0018616,0.60801,1.1768,9.4928,-0.017104,0.016799,-0.0036652
-0.0037537,0.66685,1.2553,9.5125,-0.018326,0.013134,-0.0036652
0.0029602,0.66685,1.1572,9.5713,-0.016493,0.014355,-0.0036652
-0.0085144,0.56879,1.1964,9.4928,-0.017104,0.013439,-0.0036652
-0.012787,0.72569,1.0787,9.4732,-0.018631,0.01405,-0.0042761
-0.011047,0.35304,1.2553,9.5713,-0.019242,0.014966,-0.0039706
-0.0043945,0.49033,1.2553,9.6497,-0.018326,0.014966,-0.0033598
-0.0024109,0.74531,1.2553,9.5321,-0.017104,0.015577,-0.0030543
-0.012207,0.74531,1.1572,9.5125,-0.014355,0.016188,-0.0042761
-0.0010071,0.66685,1.2553,9.5125,-0.015882,0.014966,-0.0027489
-0.012909,0.64724,1.1572,9.5713,-0.016493,0.014966,-0.0030543
-0.0050049,0.70608,1.2945,9.5125,-0.016799,0.014661,-0.0042761
-0.0085754,0.74531,1.2356,9.5321,-0.01741,0.015272,-0.0027489
-0.0053406,0.41188,1.1964,9.5713,-0.016493,0.015577,-0.0033598
-0.0091248,0.54917,1.1964,9.5125,-0.016799,0.014355,-0.0027489
0.00015259,0.66685,1.2553,9.5125,-0.014966,0.014966,-0.0030543
-0.00064087,0.70608,1.0787,9.5125,-0.016188,0.015272,-0.0027489
-0.0045166,0.54917,1.1572,9.5713,-0.016799,0.018326,-0.0030543
-0.0022888,0.49033,1.2553,9.5713,-0.018326,0.01741,-0.002138
-0.0018921,0.54917,1.1572,9.5909,-0.017715,0.016188,-0.0039706
0.0041504,0.43149,1.2945,9.5713,-0.015882,0.015882,-0.0036652
-0.013519,0.74531,1.2553,9.5125,-0.014966,0.015272,-0.0036652
-0.011017,0.56879,1.1572,9.5713,-0.017104,0.015272,-0.0039706
0.0076599,0.49033,1.2553,9.5713,-0.017715,0.015577,-0.0033598
0.00061035,0.41188,1.2356,9.5909,-0.015882,0.014966,-0.0039706
-0.0028076,0.5884,1.2356,9.4928,-0.017715,0.010385,-0.0033598
-0.0024109,0.72569,1.0787,9.4928,-0.016188,0.013439,-0.0036652
-0.0018005,0.70608,1.1572,9.5125,-0.014966,0.015272,-0.0039706
-0.011322,0.60801,1.2356,9.4928,-0.016493,0.014966,-0.0039706
-0.010071,0.72569,1.2553,9.5125,-0.017715,0.014966,-0.0051924
0.00018311,0.50995,1.1964,9.5713,-0.014355,0.014661,-0.0048869
0.0011597,0.56879,1.1572,9.5713,-0.014661,0.016493,-0.0036652
-0.0064087,0.74531,1.1964,9.434,-0.018021,0.014966,-0.0027489
0.0037231,0.74531,1.2553,9.5713,-0.019548,0.015882,-0.002138
-0.0032043,0.43149,1.2945,9.5909,-0.017104,0.015272,-0.0045815
-0.012543,0.60801,1.2553,9.5125,-0.015577,0.014966,-0.0045815
-0.015625,0.72569,1.1572,9.5125,-0.016799,0.014966,-0.0027489
-0.013824,0.74531,1.1376,9.5125,-0.016188,0.016188,-0.0030543
-0.009613,0.66685,1.2553,9.4928,-0.015882,0.015882,-0.0036652
-0.0061035,0.5884,1.1572,9.434,-0.016493,0.015272,-0.0027489
-0.011292,0.76492,1.1572,9.5125,-0.016799,0.015882,-0.0033598
0.0018921,0.41188,1.0787,9.6497,-0.016799,0.017715,-0.0027489
-0.0065613,0.54917,1.1376,9.6497,-0.017715,0.016493,-0.0039706
0.00094604,0.45111,1.2945,9.5713,-0.018326,0.014966,-0.0027489
-0.010498,0.70608,1.0199,9.5125,-0.01741,0.015577,-0.002138
-0.0066833,0.74531,1.2356,9.5321,-0.01741,0.015882,-0.0036652
0.0031128,0.66685,1.2553,9.5125,-0.016188,0.014661,-0.0042761
0.00012207,0.60801,1.1572,9.5713,-0.015882,0.015882,-0.0027489
0.0031738,0.49033,1.2945,9.6694,-0.017104,0.01741,-0.0030543
-0.0057678,0.64724,1.1768,9.5125,-0.01741,0.015577,-0.002138
-0.0057678,0.49033,1.2553,9.5713,-0.015577,0.014661,-0.0030543
-0.0061646,0.72569,1.2553,9.5321,-0.015577,0.01405,-0.0048869
-0.0033264,0.60801,1.1572,9.5125,-0.016493,0.01405,-0.0051924
-0.0064697,0.41188,1.2553,9.5909,-0.015272,0.015577,-0.0033598
-0.0014343,0.70608,1.1572,9.4732,-0.016188,0.01741,-0.0015272
-0.0047913,0.74531,1.0003,9.5125,-0.018631,0.015882,-0.0018326
-0.0057068,0.56879,1.1768,9.5909,-0.01741,0.01741,-0.002138
-0.0057068,0.72569,1.2945,9.5125,-0.018937,0.019548,-0.002138
-0.00073242,0.56879,1.2553,9.434,-0.018326,0.017104,-0.0036652
-0.0025024,0.74531,1.1572,9.4732,-0.017715,0.014661,-0.0027489
-0.012726,0.56879,1.1964,9.5909,-0.016188,0.016188,-0.002138
0.01123,0.49033,1.0787,9.5713,-0.014966,0.015577,-0.0027489
-0.0082703,0.60801,1.2553,9.5321,-0.015272,0.017104,-0.00061087
-0.0025024,0.74531,1.0199,9.5125,-0.017104,0.017104,-0.0012217
-0.0021362,0.74531,1.1964,9.5321,-0.015882,0.013439,-0.0030543
-0.0081177,0.70608,1.2553,9.5125,-0.01405,0.0094684,-0.0048869
-0.015228,0.72569,1.1768,9.5321,-0.015272,0.011912,-0.0033598
-0.011139,0.70608,1.1572,9.5713,-0.014966,0.015272,-0.0030543
-0.0050354,0.54917,1.2356,9.6301,-0.014355,0.014661,-0.0030543
-0.011017,0.56879,1.1964,9.5125,-0.017104,0.015272,-0.0045815
-0.004303,0.41188,1.2553,9.5713,-0.018326,0.016188,-0.0039706
-0.0061951,0.72569,1.3141,9.5125,-0.017715,0.016188,-0.0027489
-0.0040283,0.50995,1.2553,9.5713,-0.018326,0.016188,-0.0027489
0.010406,0.56879,1.1768,9.5125,-0.016188,0.017104,-0.0033598
0.001709,0.72569,1.2553,9.5321,-0.015577,0.015882,-0.0015272
0.0015564,0.49033,1.3337,9.5909,-0.01741,0.016188,-0.0015272
-0.0073547,0.5884,1.1768,9.5713,-0.018326,0.016188,-0.0033598
-0.0014038,0.70608,1.2553,9.5713,-0.017104,0.016188,-0.0036652
-0.0047302,0.74531,1.1768,9.6301,-0.016188,0.016493,-0.0024435
-0.0071411,0.72569,1.2553,9.5125,-0.018326,0.015272,-0.0009163
0.0066528,0.74531,1.2553,9.5125,-0.017104,0.015272,-0.0027489
-0.0016174,0.76492,1.0395,9.4928,-0.017715,0.017104,-0.0024435
-0.0031128,0.74531,1.1572,9.4928,-0.016799,0.016799,-0.0009163
-0.015289,0.60801,1.2553,9.5125,-0.016799,0.014966,-0.002138
0.0023499,0.39227,1.1964,9.6497,-0.016188,0.016188,-0.0036652
0.0072021,0.45111,1.2553,9.5909,-0.017715,0.016493,-0.0030543
0.0033875,0.64724,1.1964,9.5321,-0.018937,0.016493,-0.0030543
-6.1035e-05,0.49033,1.2945,9.6301,-0.018021,0.016799,-0.0033598
-0.00073242,0.35304,1.2356,9.6497,-0.017715,0.016799,-0.0030543
-0.0025024,0.54917,1.2553,9.6301,-0.016493,0.014966,-0.0015272
-0.0069885,0.72569,1.2553,9.5321,-0.014966,0.01405,-0.0018326
-0.0052185,0.70608,1.2945,9.5321,-0.016188,0.015882,-0.0030543
-0.0029297,0.54917,1.1964,9.4732,-0.016799,0.01741,-0.0039706
-0.0073547,0.41188,1.1964,9.6694,-0.017104,0.016799,-0.0039706
-0.0057068,0.74531,1.2553,9.5125,-0.016799,0.016188,-0.0030543
-0.0095215,0.49033,1.2945,9.5713,-0.01741,0.015272,-0.0042761
-0.0063782,0.54917,1.1964,9.6301,-0.014966,0.014661,-0.0024435
0.00085449,0.39227,1.2553,9.6497,-0.015577,0.013744,-0.0018326
-0.0057068,0.74531,1.1964,9.5125,-0.015272,0.014966,-0.0027489
-0.0072937,0.56879,1.1572,9.3752,-0.017715,0.015577,-0.0030543
-0.0045166,0.70608,1.2553,9.5125,-0.018631,0.015882,-0.0036652
-0.0049438,0.72569,1.2553,9.6301,-0.016188,0.015272,-0.0048869
-0.0039368,0.70608,1.1572,9.5125,-0.015882,0.014966,-0.0045815
-0.0028381,0.72569,1.2553,9.5713,-0.013744,0.016188,-0.0033598
-0.012909,0.54917,1.2553,9.6301,-0.017715,0.01405,-0.0030543
-0.0085754,0.49033,1.0787,9.6694,-0.017715,0.014355,-0.0030543
-0.015472,0.49033,1.2945,9.5713,-0.016493,0.015577,-0.0039706
-0.010773,0.56879,1.1572,9.5713,-0.016188,0.015272,-0.0036652
-0.0069885,0.74531,1.2553,9.5321,-0.016188,0.014661,-0.0036652
-0.0063477,0.66685,1.2356,9.5125,-0.015882,0.014661,-0.002138
-0.0037842,0.54917,1.1964,9.434,-0.015882,0.014966,-0.0033598
-0.00088501,0.60801,1.1572,9.5125,-0.016799,0.015577,-0.0033598
-0.0078735,0.56879,1.1768,9.4732,-0.018631,0.016188,-0.0030543
-0.0018005,0.72569,1.0395,9.5125,-0.019853,0.018021,-0.0027489
0.0049744,0.43149,1.2553,9.5713,-0.019242,0.015577,-0.0036652
-0.0037231,0.66685,1.2553,9.5125,-0.018326,0.015882,-0.0048869
-0.0070801,0.56879,1.2553,9.4928,-0.018326,0.016493,-0.0045815
-0.011353,0.74531,1.2356,9.5125,-0.016799,0.016799,-0.0033598
-0.0038757,0.56879,1.2553,9.5125,-0.015577,0.015577,-0.0027489
-0.0024109,0.74531,1.1964,9.5713,-0.016188,0.014966,-0.0030543
0.0037842,0.56879,1.1964,9.4928,-0.01741,0.01405,-0.0039706
-0.00082397,0.56879,1.1768,9.434,-0.018326,0.011606,-0.0036652
-0.0090027,0.66685,1.2553,9.5125,-0.017715,0.013744,-0.0039706
-0.00057983,0.72569,1.2553,9.5321,-0.016493,0.016188,-0.0027489
-0.0036011,0.74531,1.1572,9.5713,-0.01741,0.016188,-0.0024435
-0.0041199,0.72569,1.2356,9.5713,-0.019853,0.014661,-0.0030543
0.00021362,0.5884,1.2356,9.4928,-0.018937,0.014661,-0.0027489
-0.0085144,0.72569,1.1768,9.5125,-0.017104,0.016188,-0.0039706
-0.0093384,0.70608,1.2945,9.434,-0.017104,0.015577,-0.0033598
-0.0028076,0.74531,1.2553,9.5125,-0.016188,0.017104,-0.0039706
0.0020752,0.43149,1.2553,9.6301,-0.01741,0.017104,-0.0042761
-0.0010681,0.56879,1.1964,9.4732,-0.017104,0.015272,-0.0039706
-0.0021973,0.66685,1.1572,9.5713,-0.015882,0.01741,-0.0033598
-0.011017,0.45111,1.2553,9.6301,-0.016493,0.01741,-0.0027489
-0.011627,0.74531,1.1964,9.5909,-0.016188,0.015272,-0.0024435
-0.0054321,0.49033,1.2945,9.5713,-0.01741,0.015272,-0.0030543
-0.013458,0.66685,1.2356,9.5321,-0.016799,0.01741,-0.0027489
-0.0048218,0.74531,1.2553,9.5713,-0.015882,0.018326,-0.002138
-0.0047913,0.74531,1.2945,9.5713,-0.015882,0.017715,-0.0030543
-0.018219,0.56879,1.1572,9.3752,-0.014966,0.015272,-0.002138
-0.0078735,0.60801,1.2553,9.5125,-0.016799,0.013744,-0.0027489
0.0025635,0.45111,1.2553,9.5321,-0.018021,0.013744,-0.0030543
-0.0036926,0.76492,1.1768,9.5713,-0.015882,0.015882,-0.0030543
-0.0042114,0.49033,1.2553,9.6301,-0.016493,0.016493,-0.0042761
-0.0020447,0.41188,1.1572,9.5713,-0.014966,0.015577,-0.0036652
-0.0044556,0.5884,1.2553,9.4928,-0.015272,0.014966,-0.0030543
3.0518e-05,0.74531,1.0395,9.5125,-0.015882,0.016188,-0.0030543
0.0033569,0.74531,1.1964,9.5125,-0.015577,0.01405,-0.0036652
-0.004425,0.74531,1.0395,9.5321,-0.015577,0.012217,-0.0024435
-0.0085449,0.70608,1.1964,9.5321,-0.016799,0.013744,-0.0027489
-0.011108,0.5884,1.1768,9.434,-0.01741,0.015577,-0.0027489
-0.0065002,0.60801,1.1964,9.5321,-0.018021,0.015577,-0.0036652
-0.010498,0.56879,1.1964,9.434,-0.01741,0.014661,-0.0039706
-0.0024719,0.74531,1.2945,9.5125,-0.018631,0.012828,-0.0042761
-0.0058594,0.41188,1.2553,9.5713,-0.016188,0.015577,-0.0033598
-0.0066833,0.66685,1.2553,9.5321,-0.016493,0.016188,-0.0039706
0.002533,0.45111,1.2553,9.6301,-0.018937,0.015577,-0.0036652
-0.0042419,0.74531,1.2356,9.5713,-0.019242,0.01405,-0.0024435
-0.0075378,0.60801,1.1768,9.5125,-0.017104,0.014661,-0.0030543
-0.0021667,0.41188,1.2553,9.6301,-0.015272,0.016188,-0.0039706
-0.012817,0.74531,1.1572,9.4732,-0.018326,0.015577,-0.0036652
-0.010651,0.72569,1.0395,9.4928,-0.017715,0.019242,-0.0027489
-0.0098572,0.45111,1.1964,9.5713,-0.01741,0.017104,-0.0048869
-0.0066528,0.56879,1.2553,9.5125,-0.019242,0.015882,-0.0036652
-0.0020752,0.60801,1.2945,9.5321,-0.01741,0.016799,-0.0033598
-0.0058899,0.54917,1.1964,9.434,-0.017104,0.016799,-0.002138
-0.0080261,0.66685,1.1964,9.4732,-0.018021,0.015577,-0.0018326
-0.012787,0.72569,1.2356,9.5321,-0.016188,0.015272,-0.0024435
-0.00085449,0.56879,1.1572,9.5713,-0.016493,0.015882,-0.0036652
-0.002655,0.45111,1.0003,9.689,-0.016493,0.019242,-0.0030543
-0.00088501,0.56879,1.1964,9.5125,-0.016493,0.015577,-0.0033598
-0.0091248,0.72569,1.1572,9.5125,-0.016188,0.013744,-0.0048869
-0.01709,0.72569,1.2553,9.5713,-0.016799,0.014661,-0.0036652
-0.0073242,0.80415,1.1572,9.6301,-0.017715,0.015272,-0.0036652
-0.0090027,0.49033,1.2356,9.5713,-0.018326,0.015577,-0.0051924
-0.0087891,0.45111,1.2553,9.5321,-0.017715,0.016188,-0.0039706
-0.0030518,0.74531,1.2553,9.5713,-0.016799,0.013744,-0.0033598
-0.0078125,0.66685,1.2356,9.5125,-0.014966,0.0097738,-0.0033598
-0.0020447,0.49033,1.2553,9.6301,-0.017104,0.012217,-0.0039706
-0.0020447,0.66685,1.2553,9.5125,-0.018326,0.014355,-0.0039706
-0.010437,0.70608,1.1572,9.4928,-0.017104,0.014355,-0.002138
-0.0010376,0.72569,1.0983,9.5125,-0.016799,0.014966,-0.0036652
0.00024414,0.56879,1.2553,9.4732,-0.016799,0.014661,-0.0042761
-0.0030823,0.74531,1.1572,9.5321,-0.017104,0.016493,-0.002138
-0.0058289,0.56879,1.1964,9.3555,-0.018326,0.016799,-0.0042761
-0.0092773,0.56879,1.1572,9.5125,-0.017104,0.019242,-0.0039706
-0.0056152,0.5884,1.1572,9.434,-0.015577,0.01741,-0.0030543
0.0042419,0.56879,1.1964,9.434,-0.016799,0.015882,-0.0018326
-0.0065308,0.70608,1.2553,9.5125,-0.018326,0.015272,-0.0027489
-0.013763,0.74531,1.2553,9.5125,-0.018326,0.014966,-0.0051924
-0.0053406,0.74531,1.1768,9.5321,-0.018326,0.015577,-0.0051924
-0.0093689,0.74531,1.1964,9.5321,-0.01741,0.014966,-0.0042761
0.00094604,0.76492,1.1572,9.4928,-0.015577,0.015577,-0.0036652
-0.0032654,0.74531,1.2553,9.5321,-0.013744,0.016188,-0.0033598
-0.0094299,0.72569,1.2553,9.5125,-0.015882,0.015272,-0.0036652
-0.0038452,0.49033,1.2356,9.5321,-0.015882,0.015882,-0.0048869
0.0068665,0.74531,1.1768,9.5125,-0.015577,0.016799,-0.0039706
-0.0014648,0.56879,1.1768,9.5713,-0.014966,0.016188,-0.0033598
0.0015259,0.60801,1.2553,9.4928,-0.014966,0.01741,-0.0042761
-0.0043335,0.50995,1.1376,9.6301,-0.017104,0.015882,-0.0042761
-0.0047302,0.56879,1.2553,9.5125,-0.016188,0.015882,-0.0018326
-0.00177,0.72569,1.2553,9.5321,-0.016188,0.016493,-0.0030543
6.1035e-05,0.56879,1.1572,9.5713,-0.016493,0.016188,-0.0033598
-0.0014648,0.66685,1.1964,9.5125,-0.015882,0.016799,-0.0012217
-0.0019226,0.74531,1.2553,9.5321,-0.014355,0.015882,-0.0018326
-0.0086975,0.35304,1.2553,9.5909,-0.014966,0.016493,-0.0018326
-0.002594,0.49033,1.2553,9.5125,-0.015882,0.015272,-0.002138
-0.0027466,0.64724,1.2553,9.5125,-0.016493,0.014966,-0.0015272
0.0029602,0.60801,1.2356,9.5321,-0.016493,0.015577,-0.0027489
-0.0056458,0.56879,1.1572,9.5713,-0.016799,0.014661,-0.0027489
-0.0072937,0.49033,1.2553,9.434,-0.016188,0.015272,-0.0042761
-0.0053101,0.74531,1.0787,9.5125,-0.014355,0.016188,-0.0039706
-0.008667,0.56879,1.2553,9.5125,-0.01405,0.014966,-0.002138
-0.013824,0.49033,1.1768,9.5713,-0.016493,0.016188,-0.0024435
3.0518e-05,0.60801,1.1964,9.5125,-0.016188,0.016493,-0.0030543
0.0061035,0.80415,1.2553,9.5125,-0.015882,0.015882,-0.0042761
-0.0096436,0.54917,1.2553,9.5713,-0.017715,0.016188,-0.0042761
0.002594,0.74531,1.0787,9.5125,-0.018326,0.018021,-0.0030543
-0.0096436,0.56879,1.1768,9.434,-0.018326,0.01741,-0.0036652
-0.0039368,0.66685,1.2356,9.5125,-0.017104,0.014661,-0.0024435
0.0028381,0.74531,1.0199,9.5125,-0.016799,0.014661,-0.0024435
-0.0054932,0.72569,1.2553,9.5125,-0.018021,0.016188,-0.0039706
-0.00177,0.60801,1.2356,9.4928,-0.017104,0.016188,-0.0045815
-0.0069885,0.66685,1.1964,9.5125,-0.015882,0.014966,-0.0048869
-0.016479,0.70608,1.1768,9.5125,-0.016799,0.016188,-0.0030543
-0.0098877,0.66685,1.2945,9.5125,-0.016799,0.019242,-0.0033598
-0.0027771,0.74531,1.2553,9.5125,-0.015882,0.017715,-0.0036652
0.0015564,0.70608,1.2945,9.5125,-0.014661,0.015272,-0.0024435
-0.0016174,0.72569,1.1768,9.4928,-0.016493,0.015272,-0.0015272
-0.0011597,0.74531,1.2553,9.5713,-0.016799,0.016188,-0.002138
-0.0075378,0.41188,1.2945,9.6301,-0.016188,0.015577,-0.0036652
-0.0012817,0.56879,1.1964,9.5125,-0.018326,0.015272,-0.0030543
0.00030518,0.54917,1.2356,9.4928,-0.015272,0.014966,-0.0036652
0.0021973,0.5884,0.94144,9.6694,-0.014966,0.012523,-0.002138
-0.0022278,0.54917,1.2356,9.5125,-0.01741,0.012828,-0.0018326
0.0020447,0.56879,1.2945,9.5125,-0.017715,0.015272,-0.0024435
0.0031433,0.56879,1.1572,9.5713,-0.016493,0.014966,-0.0015272
-0.0028687,0.74531,1.2356,9.5125,-0.016493,0.014966,-0.002138
-0.00021362,0.72569,1.2553,9.6301,-0.016799,0.016188,-0.0030543
-0.00097656,0.39227,1.1964,9.5713,-0.01741,0.015882,-0.0036652
-0.0056763,0.72569,1.2356,9.5321,-0.015882,0.017715,-0.0048869
-0.010834,0.72569,1.1572,9.5713,-0.014661,0.019853,-0.0030543
-0.010498,0.60801,1.1768,9.4928,-0.017104,0.018021,-0.0015272
-0.008606,0.56879,1.2945,9.4928,-0.01741,0.016188,-0.0018326
0.00091553,0.72569,1.0003,9.434,-0.018021,0.015272,-0.00061087
0.0058289,0.74531,1.1572,9.5125,-0.017715,0.015272,-0.0012217
-0.0087585,0.74531,1.2553,9.5321,-0.017104,0.015577,-0.0009163
-0.0018921,0.72569,1.2553,9.5125,-0.018326,0.015577,-0.0027489
-0.0027466,0.66685,1.2553,9.5125,-0.015882,0.01405,-0.0048869
-0.004425,0.60801,1.1572,9.5125,-0.016493,0.013134,-0.0042761
-0.0052185,0.43149,1.2945,9.5713,-0.018021,0.014966,-0.0036652
-0.004425,0.43149,1.2553,9.6301,-0.018631,0.015882,-0.0048869
-0.0068665,0.70608,1.1572,9.5321,-0.016799,0.015882,-0.0042761
-0.0028076,0.54917,1.1964,9.6497,-0.016493,0.016188,-0.0027489
-0.0047302,0.74531,1.2553,9.5321,-0.014661,0.016188,-0.0027489
-0.0091248,0.56879,1.2553,9.5125,-0.014355,0.015577,-0.0042761
0.0017395,0.66685,1.2553,9.5125,-0.018021,0.015882,-0.0027489
-0.0015564,0.39227,1.1964,9.6694,-0.016799,0.018937,-0.0024435
-0.016144,0.56879,1.2553,9.4732,-0.015882,0.01741,-0.0027489
-0.0062866,0.50995,1.1572,9.6694,-0.018937,0.014966,-0.0033598
-0.0016785,0.66685,1.2553,9.5125,-0.018021,0.015577,-0.0042761
-0.0061646,0.56879,1.1572,9.434,-0.015577,0.014661,-0.0048869
0.00048828,0.80415,1.1964,9.5713,-0.016188,0.015272,-0.0048869
-0.011047,0.66685,1.2553,9.5125,-0.017104,0.015577,-0.0033598
-0.0085449,0.60801,1.1964,9.5125,-0.017104,0.016188,-0.0030543
-0.0032654,0.56879,1.2356,9.5125,-0.017715,0.013744,-0.002138
-0.011139,0.74531,1.1964,9.5909,-0.017104,0.01405,-0.0042761
-0.00048828,0.39227,1.2553,9.6497,-0.016188,0.014661,-0.0042761
0.0024719,0.72569,1.1572,9.5125,-0.016188,0.015272,-0.0039706
-0.010193,0.50995,1.2945,9.5713,-0.016493,0.015577,-0.0033598
0.00094604,0.66685,1.1964,9.5321,-0.01741,0.015577,-0.0030543
-0.0028687,0.60801,1.1964,9.5125,-0.016799,0.015272,-0.0030543
-0.0042114,0.74531,1.1376,9.4928,-0.016188,0.015577,-0.0045815
-0.0046082,0.5884,1.2553,9.5125,-0.015272,0.012217,-0.0027489
-0.0071411,0.54917,1.2356,9.4928,-0.015272,0.012828,-0.0018326
-0.014954,0.70608,1.2553,9.5125,-0.016493,0.014661,-0.0027489
-0.0091248,0.66685,1.1768,9.5713,-0.016799,0.015577,-0.0045815
-0.0098877,0.72569,1.1964,9.5321,-0.015577,0.016799,-0.0045815
-0.00354,0.76492,1.2553,9.5713,-0.016493,0.015882,-0.0036652
0.0073853,0.66685,1.1572,9.5125,-0.015272,0.015272,-0.0042761
-0.0051575,0.74531,1.1572,9.5125,-0.015577,0.017104,-0.0048869
-0.009491,0.76492,1.2553,9.5321,-0.015882,0.021075,-0.0042761
-0.0057068,0.66685,1.2356,9.5321,-0.015882,0.018021,-0.0039706
0.0018616,0.49033,1.2553,9.5713,-0.015882,0.015272,-0.0048869
-0.0041504,0.39227,1.1964,9.6301,-0.016799,0.015272,-0.0036652
-0.016296,0.72569,1.1768,9.4732,-0.01741,0.015272,-0.002138
-0.006134,0.70608,1.1768,9.6301,-0.015882,0.016188,-0.002138
-0.012451,0.5884,1.1572,9.5713,-0.018021,0.016188,-0.0027489
-0.0061646,0.5884,1.2553,9.5125,-0.018326,0.015882,-0.0051924
-0.00091553,0.66685,1.2945,9.5125,-0.016188,0.015882,-0.0042761
-0.010101,0.74531,1.2553,9.5125,-0.014966,0.015882,-0.0033598
-0.00054932,0.50995,1.1572,9.6497,-0.016493,0.016188,-0.002138
-0.0049744,0.5884,1.1768,9.5125,-0.018937,0.016188,-0.0015272
0.00021362,0.66685,1.2553,9.5321,-0.017715,0.016493,-0.0024435
-0.0078735,0.70608,1.1964,9.5713,-0.017715,0.016493,-0.0042761
-0.0050354,0.74531,1.2553,9.5321,-0.018326,0.017715,-0.0051924
-0.0075684,0.76492,1.1964,9.5125,-0.016188,0.014355,-0.0036652
0.0020142,0.56879,0.94144,9.5713,-0.01741,0.014355,-0.0039706
-0.0028076,0.66685,1.3141,9.5125,-0.017104,0.015272,-0.0036652
-0.0026855,0.56879,1.1964,9.4928,-0.015882,0.015882,-0.0030543
0.0028687,0.41188,1.2356,9.6694,-0.016493,0.015882,-0.0027489
-0.0063477,0.66685,1.2553,9.5321,-0.016188,0.015577,-0.0033598
0.019531,0.49033,1.2553,9.6301,-0.016799,0.016188,-0.0030543
0.038391,0.56879,1.1964,9.5125,-0.017715,0.017104,-0.0024435
0.00036621,0.66685,1.2553,9.5321,-0.014355,0.015272,-0.0036652
-0.0064392,0.45111,1.2356,9.5909,-0.014661,0.014661,-0.0030543
-0.0062866,0.5884,1.1768,9.5125,-0.017715,0.014355,-0.0039706
0.00021362,0.72569,1.2945,9.5125,-0.016799,0.014355,-0.0024435
-0.0025024,0.74531,1.2553,9.5321,-0.014966,0.01405,-0.0036652
-0.013367,0.72569,1.2356,9.5125,-0.015577,0.015272,-0.0042761
-0.0020447,0.70608,1.1768,9.5321,-0.017104,0.015882,-0.0039706
-0.0067444,0.74531,1.2553,9.5713,-0.015882,0.01741,-0.0051924
-0.0078125,0.74531,1.1964,9.6694,-0.018021,0.016799,-0.0039706
-0.00091553,0.64724,1.2553,9.5125,-0.018021,0.019548,-0.0033598
0.0075378,0.41188,1.1964,9.6497,-0.015577,0.018326,-0.0030543
-0.0060425,0.56879,1.1964,9.434,-0.015882,0.016493,-0.0027489
0.0088806,0.74531,1.2553,9.5713,-0.016493,0.016188,-0.0027489
-0.0075989,0.41188,1.2945,9.5909,-0.016799,0.016188,-0.0030543
0.00045776,0.56879,1.2553,9.4928,-0.01741,0.015272,-0.0030543
-0.0048218,0.66685,1.2945,9.5713,-0.016799,0.014661,-0.0036652
-0.015503,0.60801,1.1964,9.4928,-0.015882,0.014355,-0.0018326
-0.0042114,0.70608,1.2553,9.5713,-0.017104,0.011301,-0.0036652
-0.0039673,0.74531,1.1572,9.4732,-0.01741,0.014355,-0.0036652
-0.0042114,0.66685,1.1768,9.5321,-0.016188,0.017104,-0.0048869
-0.0093994,0.5884,1.1964,9.5125,-0.014355,0.015882,-0.0042761
0.00021362,0.72569,1.1572,9.5125,-0.015272,0.016188,-0.0039706
-0.010529,0.56879,1.1964,9.434,-0.017104,0.016799,-0.0033598
-0.0079346,0.74531,1.1572,9.5125,-0.016799,0.015577,-0.0018326
-0.0048523,0.76492,1.1964,9.5321,-0.014661,0.014355,-0.0030543
-0.0030518,0.66685,1.1768,9.5125,-0.01405,0.011301,-0.0033598
0.00042725,0.56879,1.2553,9.4732,-0.015272,0.013744,-0.0024435
-9.1553e-05,0.39227,1.2356,9.6694,-0.016799,0.016493,-0.0024435
-0.00033569,0.60801,1.2945,9.4732,-0.016188,0.015882,-0.0015272
-0.0042725,0.49033,1.0983,9.5713,-0.01405,0.015577,-0.0033598
-0.00012207,0.56879,1.2945,9.5125,-0.014355,0.015577,-0.0033598
-0.0033569,0.76492,1.2553,9.5713,-0.015577,0.015882,-0.0024435
-0.00054932,0.56879,1.1768,9.5713,-0.015577,0.015882,-0.0033598
-0.010315,0.56879,1.1768,9.4928,-0.015577,0.018937,-0.0042761
-0.013611,0.70608,1.1572,9.5125,-0.015272,0.016799,-0.0033598
0.0031128,0.74531,1.2356,9.5321,-0.015882,0.014355,-0.002138
0.00045776,0.49033,1.2553,9.5909,-0.017715,0.014661,-0.0030543
0.0013733,0.74531,1.2553,9.5125,-0.016799,0.01405,-0.0042761
-0.0091248,0.70608,1.2553,9.5125,-0.016493,0.013439,-0.0039706
-0.011017,0.74531,1.1572,9.434,-0.016493,0.014966,-0.0027489
-0.0075684,0.74531,1.0199,9.5125,-0.018326,0.014966,-0.002138
-0.0032959,0.56879,1.2553,9.434,-0.017715,0.012828,-0.002138
-0.006897,0.76492,1.1768,9.5909,-0.016799,0.01405,-0.0036652
-0.0046387,0.5884,1.2356,9.5321,-0.016188,0.015882,-0.0027489
0.006958,0.56879,1.1572,9.434,-0.013439,0.015577,-0.0033598
-0.0052185,0.56879,1.1964,9.4732,-0.013439,0.014355,-0.0027489
-0.0037842,0.50995,1.1376,9.6301,-0.016188,0.014661,-0.0036652
-0.00097656,0.74531,1.1768,9.4732,-0.018326,0.015272,-0.0030543
-0.012573,0.56879,1.1572,9.4144,-0.018326,0.014661,-0.0030543
-0.0057373,0.70608,1.1964,9.5125,-0.016188,0.012523,-0.0036652
-0.0092163,0.74531,1.2553,9.5125,-0.015882,0.014355,-0.0027489
-0.0052795,0.43149,1.2553,9.6497,-0.017104,0.014661,-0.0030543
0.00088501,0.56879,1.2553,9.4732,-0.016799,0.015272,-0.0018326
0.00048828,0.56879,1.1768,9.5125,-0.014966,0.015882,-0.002138
-0.008728,0.56879,1.1572,9.434,-0.015882,0.016799,-0.0015272
-0.0042419,0.66685,1.1964,9.4928,-0.017715,0.016188,-0.002138
-0.0078735,0.74531,1.2553,9.5713,-0.015577,0.015272,-0.0027489
-0.0029602,0.45111,1.1376,9.689,-0.014355,0.014661,-0.0027489
-0.0012512,0.66685,1.2553,9.4732,-0.017104,0.01405,-0.0039706
-0.00033569,0.74531,1.1964,9.5321,-0.016493,0.013744,-0.0033598
-0.0015564,0.72569,1.1964,9.5125,-0.015577,0.014966,-0.0058032
-0.0013428,0.72569,1.2553,9.5125,-0.015577,0.016493,-0.0054978
0.006897,0.70608,1.1964,9.5125,-0.016188,0.016493,-0.0036652
-0.0044556,0.50995,1.2553,9.6301,-0.017715,0.015272,-0.0027489
0.00079346,0.74531,1.1768,9.5125,-0.018326,0.016188,-0.0036652
0.0069885,0.74531,1.1572,9.4928,-0.016188,0.018631,-0.0033598
-0.0083618,0.41188,1.2356,9.6497,-0.016799,0.017104,-0.0030543
-0.00021362,0.54917,1.2553,9.4732,-0.016188,0.015272,-0.0018326
-0.0021973,0.5884,1.1572,9.434,-0.014661,0.015272,-0.0015272
-0.0039673,0.72569,1.1964,9.5125,-0.015882,0.016188,-0.0033598
-0.0086365,0.76492,1.1964,9.5713,-0.01741,0.015577,-0.0030543
0.0046387,0.72569,1.2553,9.5713,-0.016799,0.016493,-0.0036652
-0.013611,0.74531,1.1964,9.5321,-0.015577,0.015272,-0.0030543
-0.00012207,0.56879,1.2553,9.4928,-0.016493,0.010996,-0.0042761
0.00024414,0.56879,1.1964,9.5125,-0.016493,0.014355,-0.0039706
-0.0065613,0.56879,1.1768,9.4928,-0.016188,0.015577,-0.0030543
0.0080261,0.74531,1.0395,9.5125,-0.016188,0.01405,-0.0030543
-0.0036316,0.72569,1.2553,9.5125,-0.016799,0.013439,-0.0042761
-0.012054,0.54917,1.1572,9.4732,-0.018326,0.014661,-0.0045815
-0.0065918,0.74531,1.2356,9.5125,-0.017104,0.014966,-0.002138
-0.0071106,0.74531,1.2356,9.5713,-0.017104,0.015272,-0.0042761
-0.0090942,0.45111,1.2356,9.5713,-0.01741,0.014355,-0.0036652
0.0011597,0.74531,1.3141,9.5125,-0.016799,0.015577,-0.0015272
-0.012756,0.74531,1.1768,9.5713,-0.017104,0.015272,-0.0024435
-0.0035706,0.49033,1.2553,9.5713,-0.017715,0.016493,-0.0030543
-0.004303,0.5884,1.1964,9.5713,-0.015882,0.015882,-0.002138
-0.0037842,0.66685,1.2945,9.5125,-0.016188,0.016188,-0.0027489
-0.00094604,0.45111,1.2553,9.5909,-0.016799,0.016188,-0.0033598
-0.0041504,0.49033,1.2356,9.5713,-0.017104,0.014355,-0.0009163
-0.0015869,0.56879,1.1572,9.6301,-0.01741,0.016493,-0.0027489
-0.0069275,0.74531,1.2553,9.5713,-0.01741,0.015882,-0.0027489
0.00042725,0.72569,1.1964,9.5125,-0.016799,0.014966,-0.002138
-0.0032959,0.41188,1.2553,9.5713,-0.015882,0.014966,-0.002138
-0.0010681,0.74531,1.2553,9.5321,-0.015272,0.015577,-0.0048869
-0.0036316,0.74531,1.2356,9.5713,-0.015577,0.015882,-0.0036652
-0.0087891,0.72569,1.2553,9.5713,-0.015882,0.016493,-0.0015272
-0.0030823,0.49033,1.2553,9.5713,-0.017715,0.016799,-0.0042761
