-0.17081,0.17652,-3.55,8.2768,-0.020159,-0.0061087,-0.0067195
-0.18869,0.56879,-3.8638,8.2768,-0.019853,-0.011301,-0.009163
-0.20233,0.49033,-3.3931,8.3945,-0.01069,0.0015272,0.0033598
-0.23923,0.39227,-3.3735,8.2768,0.00061087,0.0097738,0.0036652
-0.27524,0.35304,-3.3931,8.3357,0.0030543,0.015272,0.0018326
-0.31351,0.54917,-3.5108,8.1003,-0.0042761,0.018937,-0.00030543
-0.34747,0.41188,-3.6677,8.0218,-0.018631,0.015577,-0.0051924
-0.38397,0.27459,-3.5304,8.316,-0.033292,0.014966,-0.0064141
-0.40552,0.17652,-3.2558,8.4926,-0.080329,-0.034514,-0.0036652
-0.43073,0.13729,-3.1381,8.4337,-0.021686,-0.0088575,-0.0088575
-0.45486,0.2942,-3.55,8.0807,0.02474,0.0082467,0.0048869
-0.47824,0.41188,-3.6873,8.1003,0.047647,0.017104,0.0073304
-0.48956,0.41188,-3.6677,8.316,0.045204,0.020159,0.0085521
-0.50827,0.39227,-3.4519,8.3749,0.026573,0.019242,0.0076358
-0.52332,0.27459,-3.3931,8.218,0.00030543,0.014355,0.0045815
-0.53473,0.39227,-3.3539,8.2572,-0.022297,0.0076358,0.00061087
-0.54468,0.35304,-3.4519,8.2572,-0.037874,0.0042761,-0.0045815
-0.55475,0.27459,-3.5696,8.2572,-0.037874,0.0061087,-0.0067195
-0.5531,0.39227,-3.5304,8.316,-0.028405,0.0088575,-0.012523
-0.55664,0.45111,-3.3931,8.316,-0.013744,0.012523,-0.011912
-0.56815,0.098066,-3.4519,8.5318,0.0033598,0.016188,-0.009163
-0.57135,0.41188,-3.6285,8.316,0.014661,0.017715,-0.0085521
-0.57562,0.13729,-3.3735,8.5318,0.014661,0.014661,-0.0082467
-0.57599,0.56879,-3.3146,8.1787,0.0058032,0.007025,-0.0051924
-0.56934,0.17652,-3.4519,8.316,-0.0064141,-0.0058032,0.0082467
-0.56815,0.41188,-3.5304,8.3945,-0.013744,-0.013744,0.014355
-0.57083,0.45111,-3.4519,8.2768,-0.0042761,-0.010996,-0.0085521
-0.56784,0.41188,-3.3146,8.2768,-0.0018326,-0.0024435,-0.0064141
-0.57623,0.43149,-3.3539,8.316,0.0094684,-0.0058032,0.002138
-0.58362,0.39227,-3.4519,8.3357,-0.0045815,-0.011912,0.0051924
-0.56613,0.39227,-3.4716,8.316,-0.0054978,-0.0051924,0.010385
-0.55621,0.11768,-3.4127,8.316,-0.010996,-0.01405,0.0036652
-0.55219,0.19613,-3.4519,8.2572,-0.046731,0.018631,-0.0076358
-0.51239,0.17652,-3.7658,8.3749,-0.0024435,0.020769,-0.0094684
-0.48343,0.13729,-3.5304,8.2572,0.0009163,0.018326,-0.010996
-0.45978,0.41188,-3.6088,8.2376,-0.0088575,0.01405,-0.011912
-0.43811,0.45111,-3.5304,8.2572,-0.023518,0.010079,-0.012523
-0.41409,0.49033,-3.3931,8.316,-0.036652,0.0064141,-0.01069
-0.39703,0.41188,-3.3146,8.3357,-0.044593,0.0061087,-0.013439
-0.38327,0.45111,-3.5304,8.2572,-0.049786,0.011606,-0.014661
-0.36768,0.54917,-3.3931,8.4141,-0.024129,0.037568,0.0039706
-0.3544,0.35304,-3.3931,8.4141,-0.030543,0.0281,0.0058032
-0.35059,0.49033,-3.4716,8.2768,-0.041539,0.014661,-0.016799
-0.34561,0.27459,-3.4127,8.2768,-0.051618,0.0033598,-0.011301
-0.34045,0.23536,-3.4716,8.4141,-0.056505,-0.0058032,-0.0082467
-0.33035,0.17652,-3.5304,8.2572,-0.055894,-0.013134,-0.0067195
-0.32391,0.39227,-3.3931,8.1787,-0.053145,-0.018326,-0.0024435
-0.30756,0.41188,-3.3931,8.3357,-0.04948,-0.020159,0.002138
-0.28366,0.25497,-3.4519,8.2768,-0.034819,-0.016188,-0.0054978
-0.2663,0.27459,-3.5108,8.1003,-0.038485,-0.019853,-0.0082467
-0.25293,0.23536,-3.4127,8.2768,-0.038179,-0.016188,0.0079412
-0.21973,0.2942,-3.5304,8.4141,-0.038179,-0.012217,0.0061087
-0.18658,0.54917,-3.3931,8.2572,-0.037263,-0.014661,0.0015272
-0.16202,0.17652,-3.4519,8.4141,-0.031765,-0.0088575,0.0015272
-0.12875,0.23536,-3.5304,8.2572,-0.032376,-0.0076358,-0.0027489
-0.10614,0.41188,-3.4519,8.2572,-0.030238,0.00061087,-0.0073304
-0.08316,0.43149,-3.3931,8.2376,-0.03207,0.0042761,-0.011301
-0.05484,0.35304,-3.5304,8.1787,-0.036041,0.0079412,-0.010996
-0.026886,0.54917,-3.5696,8.2572,-0.040317,0.011301,-0.0076358
-0.0074158,0.27459,-3.5304,8.3945,-0.043371,0.011912,-0.0064141
0.013489,0.17652,-3.5108,8.3945,-0.043677,0.014661,-0.0054978
0.028229,0.41188,-3.3931,8.2572,-0.033903,0.012828,-0.0061087
0.043915,0.33343,-3.4519,8.1787,-0.020769,0.015882,-0.0076358
0.056061,0.2942,-3.5108,8.0807,-0.009163,0.018631,-0.0088575
0.057922,0.39227,-3.4519,8.2572,-0.043371,0.0012217,0.010996
0.067444,0.49033,-3.6088,8.2376,-0.02474,-0.0009163,0.009163
0.093475,0.41188,-3.5108,8.2572,-0.0064141,0.0015272,-0.0094684
0.10056,0.27459,-3.3931,8.2376,-0.00030543,-0.00030543,-0.0048869
0.096191,0.41188,-3.5108,8.2376,-0.0054978,-0.0042761,-0.0012217
0.10468,0.49033,-3.4716,8.218,-0.015882,-0.0079412,0.0018326
0.10941,0.54917,-3.7265,8.1787,-0.032681,-0.012523,0.0051924
0.10245,0.45111,-3.55,8.3749,-0.049175,-0.01741,0.0088575
0.10046,0.25497,-3.5304,8.4141,-0.038485,-0.021686,-0.014355
0.10703,0.41188,-3.5304,8.2572,-0.022297,-0.019548,-0.019853
0.10535,0.35304,-3.3931,8.1787,-0.0076358,-0.0079412,0.0061087
0.10278,0.2942,-3.3931,8.2572,-0.0009163,0.0076358,0.0045815
0.097839,0.45111,-3.5304,8.316,0.0024435,0.018021,0.0033598
0.10559,0.41188,-3.6677,8.0807,0.0018326,0.025962,0.0024435
0.11032,0.39227,-3.6285,8.2572,-0.054062,0.032376,-0.00061087
0.11212,0.35304,-3.3931,8.2768,-0.04948,0.036652,-0.0079412
0.11032,0.41188,-3.3735,8.2572,-0.0027489,0.037568,-0.0048869
0.13354,0.19613,-3.3931,8.3749,0,0.036346,-0.0012217
0.14603,0.49033,-3.6285,8.2376,0.0067195,0.033292,-0.023824
0.15265,0.2942,-3.6285,8.2376,0.01741,0.0281,-0.026267
0.16864,0.45111,-3.5108,8.2572,0.021075,0.028711,-0.025045
0.17203,0.56879,-3.4519,8.2572,0.015577,0.029627,-0.021075
0.17636,0.2942,-3.5304,8.1787,-0.0015272,0.030849,-0.01741
0.18524,0.27459,-3.7069,8.316,-0.0051924,0.026573,-0.009163
0.18008,0.41188,-3.5304,8.2376,-0.027184,0.017104,0.0039706
0.1814,0.41188,-3.3931,8.218,-0.026573,0.0073304,0.00061087
0.18613,0.41188,-3.3931,8.316,-0.01741,-0.0009163,0.0009163
0.18063,0.43149,-3.3931,8.2376,-0.0018326,-0.0015272,-0.0009163
0.1828,0.50995,-3.5304,8.2768,0.0054978,-0.00030543,-0.0018326
0.17944,0.45111,-3.5304,8.2376,-0.0009163,0.0042761,0.0018326
0.18674,0.41188,-3.4127,8.2768,-0.0030543,0.0085521,0.0045815
0.19223,0.39227,-3.5304,8.1787,-0.019548,0.010079,0.0045815
0.19662,0.54917,-3.5304,8.3749,-0.31276,-0.027184,-0.010996
0.21365,0.23536,-3.6873,8.4141,-0.23121,-0.0076358,0.0045815
0.23199,0.27459,-3.3931,8.4141,-0.12675,0.010996,0.054367
0.24472,0.27459,-3.3931,8.218,-0.020464,0.034208,0.032987
0.26041,0.41188,-3.5304,8.1787,0.052534,0.069333,0.011301
0.26782,0.27459,-3.5304,8.3945,0.087965,0.091324,-0.0033598
0.27579,0.49033,-3.3931,8.316,0.049786,0.096822,-0.0073304
0.2767,0.27459,-3.3931,8.2572,-0.045509,0.076358,-0.011606
0.28857,0.2942,-3.5696,8.2572,-0.14875,0.041539,-0.030543
0.28412,0.45111,-4.413,7.8649,-0.23885,0.0045815,-0.023213
0.18646,1.1768,-4.7072,7.1589,-0.29077,-0.027184,-0.0009163
0.061646,0.019613,-3.0793,9.1594,-0.27336,-0.044899,-0.014661
-0.095795,-0.17652,-1.5691,9.434,-0.18295,-0.054978,-0.012828
-0.26019,-0.019613,-1.6279,8.4926,-0.061087,-0.039706,-0.012217
-0.40759,0.41188,-2.4517,8.0807,0.07025,0.00030543,-0.021686
-0.51553,0.70608,-2.8439,8.2768,0.18265,0.048564,-0.03146
-0.58832,0.41188,-3.3931,8.5318,0.25137,0.085216,-0.091935
-0.61639,0.45111,-3.9423,8.4141,0.28008,0.1014,-0.13042
-0.61224,0.27459,-3.8638,8.2376,0.30665,0.10018,-0.019548
-0.60583,0.35304,-3.5304,8.4141,0.35919,0.087048,-0.022907
-0.5871,0.17652,-2.9028,9.0025,0.43738,0.083383,-0.029627
-0.57242,0.23536,-2.8243,8.5514,0.5733,0.099876,-0.048869
-0.55432,0.27459,-3.1381,8.1787,0.75411,0.11729,-0.066584
-0.5264,0.23536,-3.8638,8.0807,0.91263,0.16616,-0.067501
-0.49054,0.54917,-4.0796,7.8649,0.70983,0.17593,0.072998
-0.45889,0.43149,-3.7069,8.2572,0.405,0.059865,0.07758
-0.42255,0.23536,-3.2166,8.4141,0.089492,-0.047953,0.042455
-0.38705,0.13729,-3.4127,8.1591,-0.16829,-0.11209,0.055283
-0.35199,0.098066,-3.6873,7.9434,-0.31307,-0.13225,0.029932
-0.30835,0.56879,-4.0207,7.6492,-0.36408,-0.11179,0.015882
-0.26178,0.39227,-4.6484,7.2961,-0.38118,-0.072693,0.021991
-0.2066,0.098066,-5.2368,7.2373,-0.38454,-0.043066,0.043066
-0.1319,-0.05884,-3.4519,8.6299,0.20036,0.64721,-1.0476
-0.041687,-0.76492,-0.41188,10.591,0.19426,0.65576,-0.99602
0.044434,-1.0199,0.86299,10.768,0.1967,0.62675,-1.3561
0.11966,-0.35304,-0.37265,10.12,0.2135,0.57299,-1.2914
0.21487,0.60801,-3.0401,8.9633,0.23793,0.52168,-1.2367
0.33878,1.1964,-3.8638,8.9044,0.25962,0.49266,-1.1945
0.49561,1.1964,-3.1577,8.8652,0.12614,0.4835,-1.1545
0.64023,1.1768,-2.2163,9.0417,0.18051,0.47464,-1.1044
0.80121,0.92183,-1.8829,9.434,0.16157,0.45815,-0.76847
0.9339,1.1964,-2.1182,9.3163,0.14264,0.4215,-0.75747
1,1.6867,-2.5105,8.3749,0.16799,0.37477,-0.95753
1,2.0202,-2.7851,7.8649,0.22846,0.3375,-0.92241
1,2.0594,-2.6674,7.61,0.29413,0.31887,-0.88392
1,2.0202,-2.5693,7.4531,0.34728,0.29077,-0.8436
1,1.7456,-2.432,7.8453,0.24801,0.24068,-0.79932
1,1.9025,-2.432,8.316,0.20647,0.20433,-0.77244
1,1.6867,-2.0986,8.3945,-0.77946,-0.20097,-1.5052
1,1.4318,-1.9613,8.7279,-0.68997,-0.1182,-1.5302
1,1.3533,-2.1182,9.0417,-0.55925,-0.011301,-1.2947
0.95593,1.4906,-1.8829,8.7475,-0.43249,0.1014,-1.339
0.79797,1.0591,-1.3533,8.9437,-0.32498,0.21197,-1.3867
0.60327,0.56879,-1.6867,9.3555,-0.2419,0.31032,-1.4242
0.39685,0.56879,-2.4124,9.3359,-0.18906,0.39737,-1.4536
0.20779,0.27459,-2.3732,9.179,-0.15852,0.46334,-1.4798
0.016876,0.098066,-2.2751,9.3555,-0.14966,0.50702,-1.4859
-0.16043,-0.05884,-2.2555,9.5125,-0.14294,0.54184,-1.427
-0.31787,-0.21575,-2.432,9.3555,-0.11606,0.58154,-1.5501
-0.46347,-0.86299,-3.2166,9.8851,-0.076664,0.61484,-1.5574
-0.57098,-0.70608,-3.0008,9.787,-0.041844,0.6185,-1.5501
-0.65762,-0.98067,-2.2948,9.4732,-0.017715,0.61025,-1.5327
-0.74374,-0.68647,-1.9809,8.7475,0.010385,0.60598,-1.5266
-0.81464,-0.27459,-1.9809,8.0807,0.061087,0.61881,-1.5214
-0.87,0.039227,-2.0594,7.5903,-0.54336,-0.026878,-0.14936
-0.89624,-0.05884,-2.0594,7.4531,-0.62889,0.0067195,-0.085827
-0.88989,0.27459,-1.8044,7.8649,-0.70311,0.057421,-0.24648
-0.88428,0.35304,-2.7262,8.5514,-0.78924,0.11637,-0.23427
-0.88049,0.54917,-2.7851,8.8064,-0.88698,0.16218,-0.21411
-0.87299,0.74531,-2.7851,9.1594,-0.90927,0.15516,-0.19303
-0.84552,0.8826,-2.3144,9.2575,-0.78893,0.14966,-0.18021
-0.82721,0.90221,-2.0986,9.3163,-0.63958,0.17715,-0.17623
-0.80023,0.86299,-1.824,9.6694,-0.58338,0.1628,0.12278
-0.77701,0.86299,-1.4318,9.434,-0.49908,0.057727,0.18845
-0.75287,0.60801,-0.90221,9.179,-0.26909,0.039706,-0.048869
-0.73831,0.49033,-1.1768,9.787,-0.20006,0.13867,-0.045204
-0.71832,0.49033,-1.0395,9.5321,-0.41111,0.17165,0.021686
-0.68878,0.19613,-1.0395,9.5125,-0.62614,0.085216,0.1463
-0.68008,0.76492,-2.2948,9.1594,-0.72785,-0.039401,0.15669
-0.66345,0.56879,-2.0006,9.4144,-0.78588,-0.10996,0.1014
-0.63397,0.21575,-1.7456,9.5125,-0.25809,-0.0039706,-0.38393
-0.60052,0.39227,-1.8044,9.179,-0.14264,0.0027489,-0.35949
-0.58536,0.43149,-1.9417,8.9633,0.0085521,0.059254,-0.56688
-0.58411,0.2942,-2.0398,8.8064,0.081856,0.081245,-0.52137
-0.5574,0.2942,-2.3732,8.7083,0.052229,0.040012,-0.45968
-0.5347,0.2942,-2.2751,8.4926,-0.038179,-0.03146,-0.41753
-0.51126,0.25497,-1.9417,8.4337,-0.12523,-0.087048,-0.39218
-0.49014,0.35304,-1.8044,8.0022,-0.17532,-0.11545,-0.38973
-0.44769,0.2942,-1.824,7.9434,-0.21502,-0.12767,-0.25595
-0.39362,-0.35304,-2.3732,8.5514,-0.23763,-0.13164,-0.2529
-0.3385,-0.86299,-2.687,8.5514,-0.26878,-0.13103,-0.32895
-0.28247,-1.9025,-3.6285,10.591,-0.29108,-0.13256,-0.30421
-0.19196,-1.4906,-3.3735,7.6884,-0.30635,-0.12584,-0.28039
-0.09201,-1.2749,-2.6674,8.8848,-0.32742,-0.10507,-0.26481
0.0013428,-2.5301,-2.6282,8.5318,-0.3708,-0.078496,-0.26237
0.07785,-1.3925,-2.4517,8.2572,-0.45082,-0.051618,-0.2587
0.14215,-0.68647,-3.0597,8.4141,0.39462,-1.0119,0.25565
0.2218,0.098066,-3.8834,7.9434,0.3992,-1.0061,0.30391
0.2876,0.64724,-4.4914,7.5511,0.343,-1.0073,-0.17318
0.34225,0.80415,-4.6287,7.9434,0.25565,-1.015,-0.084605
0.40009,1.2356,-4.1384,8.3945,0.18692,-1.0369,-0.0082467
0.42136,1.1964,-3.6873,8.4141,0.14905,-1.084,0.065973
0.44153,1.3533,-3.4127,8.4729,0.197,-1.1289,0.14844
0.46289,1.3729,-3.7069,8.4141,0.32681,-1.1423,0.21594
0.47842,1.3337,-3.8638,8.1199,-0.04948,-0.051313,-0.18967
0.48273,1.216,-3.8442,8.2376,-0.04215,-0.029932,-0.22419
0.49615,1.0395,-3.6873,8.3749,-0.082161,-0.030849,-0.19945
0.49518,1.0395,-3.7265,8.3357,-0.17868,-0.06689,-0.20311
0.48279,0.80415,-4.0011,8.2572,-0.30513,-0.11515,-0.20097
0.47583,0.92183,-3.6285,8.6299,-0.44899,-0.15699,-0.19242
0.46484,0.76492,-3.3146,8.8652,-0.60842,-0.20769,-0.18021
0.4303,1.1964,-3.2362,9.0221,-0.79199,-0.26664,-0.17685
0.38431,1.0787,-3.2362,8.7083,-1.0223,-0.41386,-0.50396
0.33762,2.0594,-4.1972,9.1202,-1.1396,-0.55864,-0.50121
0.30801,2.6478,-5.2956,9.0221,-1.0324,-0.5962,-0.33109
0.29446,2.8635,-5.4329,8.8652,-0.79718,-0.59376,-0.45937
0.28915,2.687,-4.4914,8.9044,-0.49511,-0.56108,-0.49511
0.32074,2.6478,-3.3735,9.179,-0.18051,-0.5342,-0.48778
0.32532,2.6282,-2.7459,9.1594,0.076053,-0.53054,-0.49663
0.34302,2.4517,-2.6086,9.179,0.20708,-0.55405,-0.5058
0.34363,2.2948,-3.1381,8.7279,-0.014966,-0.59926,-0.3598
0.32941,2.5497,-3.3146,8.4337,-0.15058,-0.67226,-0.26878
0.29388,2.4713,-3.197,8.3749,-0.23518,-0.76144,-0.49755
0.26138,2.1575,-2.9028,8.0611,-0.22785,-0.84696,-0.48747
0.20432,2.2359,-2.9028,8.0022,-0.12859,-0.9279,-0.4667
0.12973,1.9613,-3.2558,7.6884,0.029016,-0.99327,-0.44471
0.040863,2.1771,-3.6285,7.1785,0.21441,-1.0168,-0.42608
-0.062653,2.4517,-3.7658,6.8254,0.1237,-1.0186,-0.41081
-0.18643,2.3928,-3.6285,6.8254,-0.18418,-0.2813,0.23671
-0.32004,2.2359,-3.2166,6.8254,-0.15944,-0.23946,0.18784
-0.46292,1.9809,-2.9224,6.6097,-0.13256,-0.2022,0.56627
-0.61301,1.7456,-3.6677,6.8254,-0.097738,-0.16371,0.5171
-0.76901,2.079,-4.4914,6.7077,-0.065057,-0.12187,0.4609
-0.91492,2.4713,-4.9426,6.4332,-0.054672,-0.081551,0.40409
-0.99997,2.3732,-5.0798,6.8058,-0.069639,-0.055589,0.34819
-0.99997,2.432,-4.8249,6.9235,-0.10385,-0.037263,0.29138
-0.99997,2.687,-4.6091,6.845,-0.14844,-0.018326,-0.0281
-0.99997,2.3732,-4.8837,7.0019,-0.20372,-0.015577,-0.0030543
-0.99997,2.4517,-5.4329,6.6881,-0.2697,-0.021686,0.14844
-0.99997,2.5497,-5.7467,6.4332,-0.34697,-0.024435,0.10446
-0.99997,2.4909,-5.8055,6.3939,-0.41233,-0.023213,0.059254
-0.99997,2.942,-5.4133,6.6685,-0.44043,-0.010996,0.024129
-0.99997,2.9224,-4.9426,6.8058,-0.42608,0.021075,-0.007025
-0.99997,3.0793,-4.8249,6.9823,-0.38393,0.055894,-0.0281
-0.99997,3.0008,-4.7856,7.3746,-0.32529,0.069028,0.12187
-0.99997,3.2558,-4.7268,7.3746,-0.34483,0.050702,0.12828
-0.99997,3.3931,-4.7268,7.0216,-0.37629,0.0036652,0.032681
-0.99997,3.5696,-4.7072,6.845,-0.38423,-0.048564,0.043677
-0.99997,3.3931,-4.3934,7.6492,-0.36744,-0.083994,0.039095
-0.99997,3.3735,-4.5503,7.963,-0.34728,-0.10934,0.055589
-0.99997,3.4912,-4.8249,8.0611,-0.33506,-0.13134,0.083689
-0.99997,3.2754,-4.8837,7.6492,-0.32437,-0.15241,0.10599
-0.99997,3.2754,-4.8053,7.4334,-0.31215,-0.15669,0.025656
-0.99997,3.3146,-4.9426,6.9235,-0.29719,-0.14264,-0.00030543
-0.99997,3.3735,-5.0798,6.9235,-0.28191,-0.12095,0.13195
-0.99997,3.0793,-5.3937,6.8647,-0.26603,-0.097128,0.13683
-0.99997,3.2754,-5.6486,6.7077,-0.24618,-0.077885,0.13714
-0.99997,3.4127,-5.7075,6.6685,-0.2138,-0.062614,0.1292
-0.99997,3.5304,-5.1975,6.9823,-0.14936,-0.044288,0.10568
-0.99997,3.4127,-4.6287,7.0608,-0.047342,-0.01405,0.064141
-0.99997,3.4127,-4.9229,6.9823,-0.13347,-0.049175,0.11148
-0.99997,3.2558,-4.8837,6.8647,-0.089797,-0.037263,0.08827
-0.99997,3.4912,-4.5699,6.9627,-0.042761,-0.012828,0.039706
-0.99997,3.4127,-4.3345,7.0608,-0.03543,0.009163,0.058338
-0.99997,3.2166,-4.2561,6.9823,-0.083994,0.002138,0.077274
-0.99997,3.7069,-4.3149,6.747,-0.16952,-0.02474,0.0956
-0.99997,3.5892,-4.158,7.0019,-0.26328,-0.058032,0.11301
-0.99997,3.1774,-4.3934,6.9039,-0.32315,-0.089186,0.12217
-0.99997,2.8635,-4.6484,7.1785,-0.26603,-0.094073,0.10263
-0.99997,2.9028,-4.5699,7.1392,-0.25717,-0.07422,0.12401
-0.99997,2.9224,-4.8837,7.2765,-0.24923,-0.052229,0.086437
-0.99997,2.687,-5.1191,7.5511,-0.19731,-0.050091,0.096517
-0.99997,2.2948,-4.8641,7.9434,-0.13164,-0.059254,0.091019
-0.99997,2.2163,-4.668,7.7865,-0.12981,-0.057421,0.072388
-0.99997,2.5497,-4.7856,7.2961,-0.32742,-0.030849,0.059559
-0.99997,2.7655,-4.4718,6.845,-0.29535,0.0033598,0.073609
-0.99997,2.6086,-4.2561,6.8647,-0.72815,-0.0012217,-0.18173
-0.99997,2.2948,-4.0796,7.4531,-0.85368,-0.066584,-0.1573
-0.99997,2.3732,-4.5699,7.2373,-0.78343,-0.15272,0.10721
-0.99997,2.5497,-5.0798,7.2177,-0.5736,-0.20311,0.035736
-0.99997,2.589,-5.2368,7.4923,-0.32803,-0.18112,-0.062003
-0.99997,2.2163,-5.5113,7.6296,-0.11851,-0.098349,-0.13989
-0.99997,2.2948,-5.1387,7.5511,-0.25107,-0.0024435,-0.18021
-0.99997,2.432,-4.2953,7.8061,-0.48319,0.067195,-0.18906
-0.99997,2.0006,-4.3345,7.61,-0.13347,0.083994,-0.14661
-0.99997,2.589,-5.5898,6.9235,0.057421,0.061392,-0.14386
-0.99997,2.9224,-6.0801,6.5312,0.11729,0.02138,-0.14233
-0.99997,3.0793,-5.4133,7.0019,0.091324,-0.025045,-0.15394
-0.99997,2.8635,-4.766,7.2373,0.01741,-0.057421,-0.17074
-0.99997,3.1185,-4.6484,7.1785,-0.040928,-0.066279,-0.18173
-0.99997,3.0204,-4.766,6.9235,-0.061087,-0.057727,-0.17776
-0.99997,3.2558,-4.6484,6.8254,-0.078191,-0.060476,-0.16249
-0.99997,3.2754,-4.6091,7.0608,-0.06689,0.48503,-1.4548
-0.99997,3.1774,-5.4133,7.1196,-0.089186,0.60964,-1.4032
-0.99997,3.0989,-5.884,6.6489,-0.081856,0.74678,-1.6295
-0.99997,3.2166,-6.139,6.4332,-0.041539,0.87568,-1.6551
-0.99997,3.0989,-5.6094,6.5116,-0.0076358,0.98807,-1.6469
-0.97708,2.8635,-4.9426,6.6489,-0.07422,1.0715,-1.6023
-0.95273,2.7655,-5.1191,6.7077,-0.20097,1.1661,-1.5391
-0.93011,2.8635,-5.0798,6.6685,-0.35064,1.2709,-1.4963
-0.90753,2.4909,-5.884,6.747,-0.5058,1.3705,-1.3106
-0.88504,2.8635,-7.3354,6.3547,-0.6185,1.481,-1.31
-0.87323,3.4716,-7.6492,6.0409,-0.6802,1.5999,-1.3567
-0.84995,3.2558,-7.3158,6.0409,-0.71288,1.7178,-1.31
-0.84415,3.0597,-7.2961,5.7467,-0.72449,1.8164,-1.2788
-0.82611,3.6481,-8.0218,5.0406,-0.69089,1.8934,-1.274
-0.82001,4.5111,-7.4531,4.3149,-0.56841,1.9642,-1.2846
-0.79813,4.9622,-6.2763,4.158,-0.33139,2.0317,-1.2987
-0.77234,4.5111,-5.1975,4.4718,-0.083078,2.1008,-1.3091
-0.75244,5.0014,-4.5699,4.5503,0.091019,2.175,-1.3079
-0.7283,5.1191,-4.158,4.6091,0.14844,2.1933,-1.3088
-0.70154,5.3152,-3.6285,4.8837,0.082161,2.1331,-1.2969
-0.6763,4.9622,-3.197,5.6682,-0.068722,2.0177,-1.2675
-0.64163,4.8053,-3.2166,5.6682,-0.24862,1.8955,-1.2672
-0.61493,4.5111,-3.1381,4.9622,-0.37813,1.7859,-1.2843
-0.58807,4.2561,-2.8832,4.8249,-0.41966,1.7162,-1.2947
-0.56076,3.8638,-3.3931,5.4525,-0.047342,-0.36072,-1.5192
-0.52353,3.5696,-4.4718,6.3547,0.09499,-0.27947,-1.5837
-0.48187,2.9028,-5.276,7.0608,0.25443,-0.1573,-1.0287
-0.43185,2.4713,-4.8837,7.4334,0.37507,-0.0079412,-1.1295
-0.38156,2.0594,-4.3542,8.2572,0.40806,0.14355,-1.212
-0.34201,2.1771,-4.1776,8.1591,0.34422,0.25565,-1.2795
-0.30884,2.6086,-4.158,7.61,0.22022,0.32529,-1.3497
-0.3107,2.687,-4.158,7.3158,0.082161,0.39187,-1.4355
-0.26617,2.4517,-3.6088,7.4727,0.013744,-0.044593,-0.090103
-0.22748,2.3732,-3.0008,8.4337,0.043066,-0.09163,-0.10324
-0.20615,2.1575,-2.8243,11.631,0.13408,-0.10843,-0.040012
-0.20581,0.56879,-3.2362,15.318,0.24557,-0.10232,-0.04612
-0.25427,0.60801,-0.80415,13.435,0.33353,-0.085827,-0.045204
-0.31827,1.6671,0.94144,10.728,0.3821,-0.064141,-0.051313
-0.36035,2.4517,0.52956,8.4926,0.12217,-0.041539,-0.066584
-0.38226,1.7064,-2.589,7.1589,0.04215,-0.0027489,-0.078496
-0.38376,2.1575,-4.5111,6.6685,0.20281,0.049786,-0.36774
-0.36658,2.3928,-4.766,6.8254,0.012828,0.093157,-0.36927
-0.34262,2.0006,-4.0796,7.61,-0.054062,0.10324,-0.11362
-0.31079,2.079,-3.4519,7.7473,-0.087048,0.072693,-0.14783
-0.25836,2.2359,-3.7658,7.61,-0.026573,0.088881,-0.23305
-0.2113,2.687,-4.3934,7.5511,0.095906,0.10476,-0.27397
-0.16275,3.0793,-4.3934,7.7865,0.40287,0.14508,-0.28894
-0.12299,2.7459,-4.0207,8.5514,0.37415,0.20464,-0.33903
-0.095245,2.4909,-3.7658,9.1202,-0.051007,0.098655,0.20372
-0.068542,2.2359,-3.0793,9.0025,-0.087965,0.045815,0.19028
-0.085358,2.4517,-2.3732,9.1986,0.0079412,0.033598,0.10385
-0.1041,2.8635,-1.7456,9.1202,0.17959,0.062308,0.094379
-0.13745,2.7851,-1.6671,9.2183,0.35339,0.11148,0.08094
-0.17926,2.4909,-2.3732,8.9044,0.48839,0.15241,0.094073
-0.25406,2.7851,-3.0989,8.3357,0.55589,0.16677,0.13683
-0.34024,2.687,-3.3146,8.2572,0.56872,0.16677,0.18326
-0.41937,2.6282,-3.5304,8.4926,0.58246,0.18082,-0.04215
-0.5058,2.7851,-3.0597,8.0807,0.64904,0.19151,-0.036041
-0.56485,2.2948,-2.7262,7.7865,0.73579,0.18112,0.16616
-0.6106,2.4713,-2.7459,7.8649,0.76175,0.15638,0.14294
-0.65097,2.6086,-3.5304,8.2572,0.71227,0.13561,0.092241
-0.67203,2.9224,-3.2362,8.316,0.58002,0.10843,0.027794
-0.68994,2.9224,-2.3732,8.5514,0.40531,0.06689,-0.014966
-0.68274,2.3732,-1.5887,8.9044,0.24893,0.012523,-0.039706
-0.65259,2.0202,-1.3141,9.0417,-0.17349,0.01069,0.01405
-0.60413,2.1182,-1.2749,9.3163,-0.17287,0.0027489,0.012217
-0.53885,2.0594,-1.0199,9.2575,-0.17623,-0.00030543,0.019548
-0.48459,2.0594,-0.94144,9.434,-0.17013,-0.0024435,0.026267
-0.41971,1.824,-1.1964,9.1986,-0.14936,-0.0079412,0.028711
-0.34457,2.079,-1.824,8.7083,-0.12095,-0.010079,0.025351
-0.26093,2.2948,-3.0401,8.4141,-0.088575,-0.0039706,0.018021
-0.17056,2.7851,-3.8834,8.1787,-0.06689,0.0039706,0.012828
-0.080536,2.6086,-4.0207,8.1787,-0.37171,-0.048564,0.018326
0.0020142,2.6086,-3.5304,8.2572,-0.34972,-0.05284,0.019242
0.072174,2.4517,-3.197,8.2768,-0.28466,-0.037263,0.018326
0.12033,2.4517,-3.3931,8.2572,-0.19181,-0.009163,0
0.15057,2.589,-3.5304,8.1199,-0.10934,0.015882,-0.007025
0.16763,2.5497,-3.2558,8.2572,-0.065057,0.034514,-0.0039706
0.17499,2.1575,-2.9028,8.3945,-0.067501,0.041844,0.0042761
0.18289,2.2948,-2.9028,8.218,-0.10873,0.034208,0.01405
0.18954,2.5497,-3.1577,8.1787,-0.17898,0.02138,0.032376
0.19888,2.5497,-3.4519,8.2376,-0.24312,0.009163,0.032376
0.19489,2.3732,-3.6873,8.2376,-0.27947,0.007025,0.020464
0.1955,2.3732,-3.6285,8.316,-0.28497,0.0094684,0.018326
0.18051,2.5497,-3.4127,8.2376,-0.26878,0.010385,0.015272
0.19949,2.6086,-3.3931,8.0611,-0.23885,0.012217,0.018326
0.21805,2.5497,-3.4519,8.0807,-0.21197,0.012828,0.027794
0.21939,2.5301,-3.4519,8.0022,-0.19761,0.0076358,0.033903
0.23322,2.3732,-3.5304,8.0022,-0.20372,-0.0009163,0.011912
0.24545,2.4517,-3.6285,8.218,-0.21228,-0.009163,0.015577
0.25424,2.4517,-3.6873,8.1787,-0.21105,-0.01405,0.029932
0.2655,2.3928,-3.7265,8.0022,-0.20464,-0.0079412,0.021686
0.28467,2.4517,-3.7658,8.0022,-0.19242,0.0051924,0.015577
0.30243,2.5497,-3.6285,7.9434,-0.18418,0.011301,0.018937
0.31378,2.589,-3.6285,7.9434,-0.18295,0.012217,0.020769
0.3374,2.2751,-3.5696,8.0807,-0.1799,0.012828,0.012828
0.34189,2.4909,-3.6873,8.0807,0.014966,0.015882,-0.0067195
0.3783,2.432,-3.6285,8.0807,0.019548,0.02474,-0.010996
0.40964,2.3732,-3.6873,8.0807,-0.0097738,0.03207,-0.0058032
0.43027,2.5497,-3.7265,8.0611,-0.053756,0.032376,0
0.44928,2.589,-3.7265,7.9434,-0.087659,0.027489,0.0024435
0.45679,2.4517,-3.6873,8.0218,-0.096822,0.018326,0.0039706
0.46558,2.2948,-3.7265,8.0807,-0.05681,0.0076358,0.0033598
0.47595,2.3732,-3.7265,8.0022,-0.018631,0.0015272,-0.00061087
0.4751,2.2948,-3.55,8.0218,-0.063225,-0.0082467,-0.0048869
0.4642,2.4713,-3.6873,8.0807,-0.040623,-0.01069,-0.0064141
0.46619,2.1575,-3.55,8.218,-0.0085521,-0.0085521,0.00061087
0.47369,2.4517,-3.55,8.0807,0.023213,0.0012217,-0.0073304
0.47256,2.2359,-3.6873,8.0807,0.036041,0.009163,-0.010079
0.46442,2.2948,-3.7854,8.0218,0.027184,0.0094684,-0.0045815
0.45642,2.334,-3.9423,8.0807,0.0094684,0.0045815,0.0033598
0.45047,2.6282,-3.7658,8.0022,-0.012217,0,0.0018326
0.44397,2.5497,-3.6873,8.0807,-0.049175,-0.0024435,0.0015272
0.43512,2.334,-3.5696,8.0022,-0.041233,-0.0048869,-0.0036652
0.41595,2.334,-3.6677,8.0022,-0.026267,-0.0015272,-0.0039706
0.4122,2.5497,-3.9423,7.9434,-0.013439,0.0039706,-0.0033598
0.40115,2.4517,-3.7658,8.0022,-0.014661,0.0097738,-0.0042761
0.38373,2.6086,-3.8246,7.9238,-0.03207,0.018326,-0.0048869
0.37686,2.1771,-3.7658,8.218,-0.031765,0.023213,-0.0033598
0.35931,2.3732,-3.8442,7.9042,-0.046426,0.012523,-0.00030543
0.34549,2.5497,-3.6677,7.7865,-0.021991,-0.0009163,-0.0064141
0.32825,2.432,-3.55,7.9434,-0.016493,-0.0030543,-0.01069
0.30319,2.2359,-3.8638,7.963,-0.02474,0.0079412,-0.0085521
0.29034,2.589,-3.9815,8.0807,-0.052229,0.0281,-0.0027489
0.27527,2.2751,-3.8246,8.0022,-0.081245,0.040012,0.0009163
0.25696,2.2359,-3.5696,7.8649,-0.083078,0.032681,0.0033598
0.23676,2.4909,-3.6285,8.0022,-0.047342,0.017104,0.0097738
0.22577,2.4517,-3.8638,7.9434,-0.037874,0.010385,0.0048869
0.21649,2.4517,-4.0207,8.0807,-0.046426,0.0079412,-0.0061087
0.20898,2.2359,-4.0207,8.1787,-0.033292,0.013744,-0.0067195
0.21906,2.2359,-3.6677,8.0022,-0.0094684,0.019242,-0.0009163
0.2236,2.2359,-3.7069,7.8061,0.013439,0.024129,-0.00061087
0.20734,2.4517,-3.7658,7.9434,0.025045,0.027489,-0.0048869
0.18018,2.4517,-3.8834,7.9434,0.02138,0.026878,-0.0039706
0.16495,2.4517,-3.8638,7.9042,0.0027489,0.022907,-0.0015272
0.14282,2.5301,-3.7069,8.0807,-0.019853,0.015577,-0.0033598
0.11279,2.2948,-3.7461,8.0218,-0.041844,0.010385,-0.0051924
0.085632,2.3732,-3.7069,8.1199,-0.047342,0.012828,-0.0033598
0.044769,2.4517,-3.6088,8.1199,-0.040317,0.009163,-0.0064141
0.00057983,2.3732,-3.5304,7.963,-0.025656,0.0094684,-0.007025
-0.037354,2.2948,-3.7265,7.7865,-0.009163,0.014355,-0.0051924
-0.07782,2.2948,-3.9227,7.8061,0.002138,0.018326,-0.0061087
-0.11642,2.589,-3.8246,8.0022,-0.0015272,0.02138,-0.0067195
-0.15097,2.4909,-3.7265,7.963,-0.01405,0.018937,-0.007025
-0.1799,2.4517,-3.6677,8.0611,-0.020159,0.013744,-0.0067195
-0.20068,2.2948,-3.7658,7.9042,-0.023824,0.007025,-0.0051924
-0.22186,2.3928,-3.8246,7.963,-0.024129,0.0061087,-0.0054978
-0.23749,2.589,-3.6873,7.963,-0.022907,0.0073304,-0.0097738
-0.2507,2.589,-3.7069,8.0611,-0.018326,0.011606,-0.01069
-0.24268,2.2359,-3.6285,8.0807,-0.018326,0.019853,-0.0088575
-0.2486,2.4909,-3.8442,7.963,-0.025962,0.025962,-0.0076358
-0.24509,2.2948,-3.7658,7.9434,-0.026573,0.026267,-0.0073304
-0.23871,2.3732,-3.7658,8.0022,-0.01741,0.025656,-0.002138
-0.23242,2.4517,-3.6873,7.9434,-0.0097738,0.025656,-0.0048869
-0.22443,2.4909,-3.7854,8.0022,-0.0054978,0.023518,-0.0064141
-0.19989,2.4909,-3.8246,8.1199,-0.0015272,0.022297,-0.011301
-0.19168,2.2359,-3.5696,8.0807,-0.007025,0.020769,-0.009163
-0.19592,2.4517,-3.6873,7.9434,-0.024129,0.015272,-0.0018326
-0.17957,2.1771,-3.7069,8.0022,-0.043371,0.0079412,0.00030543
-0.16113,2.4713,-3.8638,8.0022,-0.052534,0.0039706,-0.00030543
-0.15042,2.5497,-3.8638,8.0807,-0.032376,0.014661,-0.0024435
-0.13336,2.4517,-3.7069,7.9238,-0.025351,0.01069,-0.00061087
-0.11398,2.5301,-3.7069,8.1003,-0.011301,0.013744,-0.002138
-0.092773,2.4713,-3.6873,8.0807,0.0064141,0.019853,-0.0048869
-0.086151,2.2359,-3.6873,8.0807,0.014661,0.023824,-0.0054978
-0.084198,2.4517,-3.7658,8.0807,0.0085521,0.024435,0
-0.079865,2.4909,-3.7069,7.9434,-0.0088575,0.019853,0.0015272
-0.067535,2.4713,-4.0207,7.9434,-0.03207,0.013744,-0.0015272
-0.081024,2.5497,-3.8638,8.1787,-0.040928,0.0088575,-0.0045815
-0.06485,2.3732,-3.8638,8.0611,-0.02474,0.0061087,-0.0064141
-0.058868,2.4713,-3.7265,7.9238,-0.0094684,0.0085521,-0.0012217
-0.045532,2.1575,-3.5304,7.8649,0.0015272,0.013134,-0.002138
-0.040924,2.4517,-3.6285,8.1591,0.0036652,0.019242,-0.0039706
-0.033051,2.5497,-3.6677,8.0611,-0.0024435,0.022907,-0.0073304
-0.028076,2.3732,-3.7658,7.7865,-0.048564,0.022602,-0.0073304
-0.015991,2.3732,-3.7854,7.9434,-0.052534,0.02138,-0.0051924
-0.00057983,2.5301,-3.7265,8.0022,-0.024129,0.018631,-0.0042761
0.010071,2.5497,-3.7658,8.0611,-0.022602,0.013134,-0.0045815
0.010529,2.2948,-3.6677,7.9434,-0.018326,0.011912,-0.0085521
0.015198,2.4517,-3.6677,8.0611,-0.015577,0.012828,-0.0079412
0.026886,2.4713,-3.6873,7.9238,-0.01741,0.016493,-0.0064141
0.033813,2.3928,-3.8638,7.963,-0.018021,0.019853,-0.0076358
0.041504,2.5497,-3.8442,7.963,-0.012523,0.019853,-0.007025
0.042084,2.2948,-3.7265,7.9238,-0.019853,0.016799,-0.0048869
0.052307,2.4517,-3.7854,7.9434,0.035736,0.015577,-0.0018326
0.040039,2.2948,-3.7069,7.8649,0.01069,0.0015272,-0.002138
0.042542,2.4517,-3.6873,8.0807,-0.020769,-0.0061087,-0.0073304
0.040253,2.432,-3.6873,8.0611,-0.036041,-0.0073304,-0.0085521
0.04425,2.334,-3.7658,8.0611,-0.034514,-0.00030543,-0.0039706
0.041748,2.5497,-3.9423,7.9434,-0.032681,0.0088575,0.0009163
0.047028,2.5497,-3.7658,8.0022,-0.030238,0.014966,0.00061087
0.039185,2.2948,-3.6873,7.9434,-0.032376,0.016493,0.00061087
0.035065,2.3732,-3.7658,8.0022,-0.040317,0.011301,-0.0042761
0.056763,2.432,-4.0207,8.1199,-0.041844,0.013744,-0.0064141
0.071045,2.4909,-3.6873,8.0022,-0.03146,0.012217,-0.0073304
0.075714,2.432,-3.7069,7.963,-0.021991,0.012828,-0.0048869
0.075104,2.2948,-3.8246,7.9434,-0.014661,0.016799,-0.0051924
0.078644,2.2948,-3.7658,8.0611,-0.011606,0.018021,-0.0039706
0.07901,2.1575,-3.7069,8.0807,-0.011912,0.018021,-0.0061087
0.068024,2.2948,-3.7658,7.9434,-0.014355,0.015272,-0.0061087
0.064972,2.5497,-3.7265,8.0022,-0.015882,0.013439,-0.0048869
0.053619,2.4517,-3.7265,8.0807,-0.012828,0.011912,-0.0061087
0.058655,2.2359,-3.6873,8.0218,-0.010996,0.014355,-0.010079
0.046783,2.4909,-3.7658,7.963,-0.011301,0.018631,-0.009163
0.042389,2.4713,-3.7265,8.0218,-0.010079,0.019548,-0.0061087
0.037384,2.5497,-3.7658,8.0022,-0.0097738,0.018937,-0.0045815
0.030273,2.5497,-3.6285,8.0022,-0.010385,0.018021,-0.0033598
0.024017,2.5301,-3.7265,8.0218,-0.015882,0.016188,-0.0027489
0.024689,2.2359,-3.8246,8.0611,-0.018631,0.013744,-0.0015272
0.01297,2.4517,-3.8638,8.0022,-0.01741,0.011606,0.002138
0.0046387,2.3732,-3.6677,7.963,-0.018631,0.012217,-0.0045815
0.011017,2.4909,-3.6873,8.0022,-0.019242,0.014966,-0.0064141
0.012909,2.5497,-3.7658,7.963,-0.015882,0.016799,-0.0082467
0.0010681,2.3732,-3.8638,7.9434,-0.01405,0.018021,-0.0061087
-0.0093994,2.5497,-3.7265,8.0022,-0.016799,0.017715,-0.0036652
-0.0033875,2.1771,-3.7069,8.0218,-0.022297,0.017715,-0.0027489
0.0049438,2.2751,-3.7461,7.9434,-0.03543,0.018937,-0.0033598
-0.0041199,2.3732,-3.7265,7.963,-0.040317,0.011606,-0.0073304
-0.0016785,2.4517,-3.6873,8.0022,-0.037568,0.013134,-0.0058032
0.0012817,2.2948,-3.7069,8.0022,-0.025351,0.016799,-0.011301
0.0046997,2.4713,-3.7265,8.0022,-0.0094684,0.021075,-0.010996
-0.0022888,2.334,-3.8638,8.0611,0.0018326,0.021991,-0.009163
-0.0030212,2.5497,-3.7069,8.0807,0,0.018937,-0.0079412
0.0065308,2.1771,-3.6873,8.0807,-0.013134,0.014355,-0.0033598
0.0031738,2.2751,-3.8638,7.963,-0.053756,0.015577,-0.0085521
0.0096436,2.3732,-3.7658,8.0807,-0.050702,0.013744,-0.012523
0.013763,2.4909,-3.6285,7.9434,-0.044288,0.0097738,0.0030543
0.0079956,2.2359,-3.7265,8.0807,-0.03207,0.0097738,0.0012217
0.0067444,2.3732,-3.8442,7.8649,-0.01741,0.01405,-0.0051924
-0.01416,2.5497,-3.7658,7.9434,-0.012217,0.021686,-0.010079
-0.012634,2.2948,-3.7658,7.9042,-0.046731,0.028405,-0.009163
-0.011414,2.3732,-3.5696,8.0611,-0.049786,0.029322,-0.0067195
-0.015564,2.4517,-3.6677,8.1003,-0.024129,0.021991,-0.017104
-0.019348,2.3928,-3.8638,8.0611,-0.012523,0.010079,-0.022602
-0.015594,2.4909,-4.1384,8.0611,0.0036652,0.007025,-0.020464
-0.007782,2.3928,-3.9423,7.963,0.01405,0.011912,-0.0281
-0.0039673,2.5497,-3.8638,7.9042,0.0094684,0.02138,-0.032376
-0.0084534,2.1771,-3.3539,7.8453,-0.013134,0.031154,-0.031154
-0.0021362,2.2751,-3.197,8.1199,-0.017715,0.029016,-0.02474
-0.0016174,2.432,-3.6285,8.0611,-0.024129,0.018021,-0.019242
0.003418,2.6282,-3.9815,7.8649,0.067806,0.026878,0.0042761
0.0082092,2.4517,-3.8638,7.7669,0.0082467,0.0094684,0.0036652
0.0053711,2.2751,-3.6873,7.8649,-0.052229,-0.014355,0.002138
0.0028992,2.3732,-3.6873,8.0022,-0.091019,-0.029322,0.0061087
0.016998,2.4909,-3.6285,8.0611,-0.10201,-0.027489,-0.0018326
0.018616,2.2359,-3.6285,8.0807,-0.087354,-0.014661,-0.01069
0.01593,2.2751,-3.7658,8.0807,-0.048564,0.007025,-0.011301
0.014252,2.432,-3.8246,8.0022,-0.011301,0.022907,-0.0024435
0.010712,2.5497,-3.7658,7.9434,-0.0097738,0.026878,0.0015272
0.010437,2.6086,-3.7658,7.8649,-0.035125,0.028711,0.0030543
0.0062561,2.4909,-3.8246,8.0807,-0.050396,0.030543,-0.0015272
0.0063477,2.2948,-3.8638,8.0611,-0.054367,0.028405,-0.0058032
0.0065308,2.4517,-3.7658,7.963,-0.051313,0.024129,-0.0030543
0.005188,2.4517,-3.6285,7.9042,-0.047647,0.020159,-0.0012217
0.0054932,2.2359,-3.6677,7.963,0.0097738,0.017715,-0.0024435
0.0025635,2.1575,-3.7265,8.1199,0.010385,0.016493,-0.0015272
-0.00061035,2.589,-3.6677,7.9434,-0.0094684,0.0073304,-0.0076358
0.015839,2.7066,-3.8638,8.1199,0.011912,0.010385,-0.0085521
0.033203,2.5301,-3.6873,7.9042,0.017104,0.021686,-0.010079
0.041595,2.432,-3.6677,8.0611,0.010996,0.025962,-0.011301
0.049774,2.1182,-3.8246,8.0611,-0.00030543,0.02474,-0.0085521
0.045624,2.3928,-4.0207,7.8649,-0.018631,0.019548,-0.0048869
0.033661,2.6086,-3.9423,7.9434,-0.036957,0.01405,-0.0030543
0.028809,2.3732,-3.8638,7.9042,-0.041539,0.0088575,-0.0039706
0.028229,2.4517,-3.8834,7.963,-0.018937,0.026878,-0.0094684
0.02533,2.3732,-3.6873,7.9434,-0.026878,0.029322,-0.0054978
0.03714,2.3732,-3.8442,7.9434,-0.033292,0.029016,-0.0064141
0.035522,2.5497,-4.0207,7.9238,-0.035125,0.025962,-0.007025
0.044495,2.2751,-3.7265,7.963,-0.029932,0.024435,-0.010385
0.052307,2.2948,-3.8442,8.0611,-0.017715,0.026267,-0.010996
0.056488,2.334,-3.9423,7.9238,-0.0073304,0.029322,-0.012523
0.071228,2.589,-3.7854,8.0022,-0.002138,0.030849,-0.012523
0.082794,2.4517,-3.6873,8.0022,-0.014355,0.027184,0.0039706
0.083649,2.1771,-3.6285,7.9434,-0.029627,0.018326,0.0045815
0.099915,2.4517,-3.7265,7.9434,-0.041844,0.013439,-0.0036652
0.093597,2.6086,-3.7658,8.0022,-0.047037,0.011606,-0.0039706
0.10898,2.2948,-3.8638,7.9238,-0.044593,0.010079,-0.0039706
0.11981,2.4713,-3.7069,8.0807,-0.034514,0.011301,-0.0030543
0.12936,2.2948,-3.8246,7.963,-0.024129,0.014661,-0.00061087
0.13321,2.432,-3.8638,8.0022,-0.016799,0.015272,0.0024435
0.13211,2.3732,-3.7658,7.9434,-0.014661,0.015272,-0.0061087
0.12195,2.3732,-3.9815,8.0022,-0.018326,0.014966,-0.0085521
0.12527,2.6086,-3.8442,7.9042,-0.026573,0.011301,0.0036652
0.13049,2.6086,-3.6677,8.0022,-0.035736,0.0061087,0.0018326
0.1463,2.2948,-3.6873,8.0022,-0.044899,0.0030543,-0.00061087
0.13925,2.3732,-3.8246,7.9434,-0.047037,0.0024435,-0.002138
0.14575,2.4713,-3.9423,7.9042,-0.040928,0.0027489,-0.0033598
0.14148,2.4713,-3.8246,7.9238,-0.027794,0.0058032,-0.0036652
0.13831,2.4517,-3.8246,7.9434,-0.007025,0.016799,-0.010385
0.1611,2.2948,-3.8638,7.8649,-0.016188,0.01741,-0.011912
0.18179,2.432,-3.7658,8.0218,-0.022297,0.012523,-0.0097738
0.19089,2.4713,-3.6873,7.9434,-0.026878,0.0097738,-0.0085521
0.19244,2.5497,-3.7069,8.0022,-0.034208,0.010385,-0.0076358
0.18915,2.3928,-3.8246,7.9238,-0.036346,0.01069,-0.0064141
0.19156,2.1771,-3.7854,8.0611,-0.029627,0.011301,-0.0058032
0.17725,2.2359,-3.8442,7.9434,-0.018326,0.014355,-0.0079412
0.18149,2.3732,-3.9227,7.963,0.0082467,0.018326,-0.0058032
0.1832,2.432,-3.8638,8.0022,-0.0015272,0.02138,-0.0085521
0.17126,2.2751,-3.6873,8.0807,-0.016493,0.024129,-0.010079
0.17377,2.3732,-3.6873,7.9434,-0.0281,0.020464,-0.007025
0.16888,2.4909,-3.9815,7.9042,-0.023824,0.01405,-0.0061087
0.16519,2.5497,-3.7658,8.0218,-0.0076358,0.0073304,-0.0073304
0.16211,2.334,-3.7658,7.9042,-0.0030543,0.0036652,-0.007025
0.16278,2.589,-3.8442,7.9238,0.0079412,0.0058032,-0.0058032
0.15182,2.2751,-3.8246,7.8649,0.0085521,0.0082467,-0.021075
0.15146,2.2359,-3.7265,7.9434,0.018937,0.009163,-0.016799
0.14832,2.4517,-3.8442,8.0807,0.029016,0.009163,-0.01405
0.1474,2.5497,-3.7658,8.0022,0.035125,0.009163,-0.013134
0.14505,2.5497,-3.8638,7.9434,0.038485,0.0082467,-0.0094684
0.14471,2.4909,-3.8834,7.963,0.039706,0.0094684,-0.014355
0.13773,2.5301,-3.9423,8.0611,-0.0027489,0.011606,-0.023213
0.13626,2.4713,-3.7069,7.9434,-0.0012217,0.015882,-0.025045
0.13669,2.2359,-3.6285,8.0022,0.0094684,0.017104,0.0030543
0.14032,2.4517,-3.6873,7.9434,-0.010385,0.015577,0.0061087
0.13733,2.4713,-3.7658,7.963,-0.030543,0.01741,-0.016188
0.1431,2.3732,-3.6873,7.9042,-0.040928,0.014661,-0.01405
0.14682,2.5301,-3.7265,7.9434,-0.047953,0.0097738,-0.010385
0.15674,2.4909,-3.9815,7.9434,-0.051007,0.0085521,-0.007025
0.16379,2.4517,-3.8638,7.963,0.033598,0.010079,-0.002138
0.17426,2.4517,-3.8638,8.0022,0.021075,0.011301,0.0009163
0.17972,2.5497,-3.7658,8.0022,-0.0015272,0.015577,-0.0088575
0.19293,2.2948,-4.0992,8.0022,-0.0048869,0.017715,-0.0088575
0.21481,2.5497,-3.7658,7.9434,-0.0054978,0.017715,-0.0045815
0.21591,2.2359,-3.7658,8.0807,-0.0094684,0.016188,-0.0009163
0.22266,2.4713,-3.6873,7.963,-0.012523,0.013134,-0.00030543
0.23035,2.1771,-3.6873,8.0611,-0.011301,0.012523,-0.0030543
0.22922,2.2751,-3.8638,8.0807,-0.0067195,0.012217,-0.0042761
0.22836,2.589,-4.0207,7.9434,-0.0024435,0.012828,-0.0064141
0.23401,2.3732,-3.7658,8.0218,-0.0024435,0.016188,-0.0042761
0.22638,2.3732,-3.7658,8.0022,-0.012828,0.015577,-0.0045815
0.22943,2.2751,-3.6873,8.0807,-0.019853,0.015577,-0.0067195
0.22147,2.5497,-3.8638,7.9434,-0.021075,0.015272,-0.0054978
0.21933,2.1575,-3.7069,8.0807,-0.017104,0.015882,-0.0051924
0.22263,2.3732,-3.8638,7.8845,-0.0079412,0.01741,-0.0045815
0.22589,2.3732,-3.7658,7.9434,-0.0012217,0.018631,-0.0051924
0.22018,2.5497,-3.8246,7.9434,-0.0009163,0.018937,-0.0042761
0.21936,2.432,-3.7069,7.9434,-0.007025,0.018326,-0.0082467
0.21936,2.3732,-3.8442,7.8649,-0.017104,0.017104,-0.0073304
0.22543,2.4909,-3.9815,8.0022,-0.026267,0.013134,-0.0051924
0.20346,2.4517,-3.6873,7.9434,-0.026267,0.011301,-0.0064141
0.19824,2.3732,-3.7658,7.9434,-0.01741,0.011606,-0.0061087
0.18671,2.4713,-3.9815,7.9434,-0.0058032,0.013439,-0.0048869
0.18588,2.4713,-3.7265,8.0022,-0.0012217,0.017715,-0.007025
0.18369,2.432,-3.6873,8.0022,-0.0048869,0.019242,-0.0094684
0.16916,2.1771,-3.6873,8.0807,-0.01405,0.019242,-0.007025
0.16489,2.4909,-3.7265,7.9434,-0.027184,0.015272,-0.007025
0.14923,2.2163,-3.6873,8.0807,-0.036957,0.015272,-0.0061087
0.13821,2.2948,-3.7265,7.9434,-0.039095,0.014661,-0.0058032
0.13437,2.432,-3.7658,8.0022,-0.029932,0.014966,-0.0051924
0.11734,2.5497,-3.9815,7.963,-0.016799,0.016799,-0.0058032
0.11209,2.3732,-3.8246,7.9434,-0.0094684,0.018326,-0.009163
0.094421,2.4517,-3.8442,8.0022,-0.0051924,0.019548,-0.009163
0.089325,2.334,-3.7069,7.9434,-0.067806,0.011301,0.00030543
0.095612,2.4713,-3.7658,8.0022,-0.10049,-0.010385,-0.014355
0.10974,2.3732,-3.7658,8.0611,-0.1237,-0.030543,0.0036652
0.11151,2.334,-3.8442,7.8649,-0.1237,-0.03879,-0.0082467
0.11697,2.4713,-3.7265,7.9434,-0.091019,-0.037568,-0.015577
0.11517,2.2359,-3.7658,8.0611,-0.042761,-0.029627,-0.0073304
0.12613,2.2948,-3.7658,7.9434,0.041844,-0.021991,0.0097738
0.13995,2.2948,-3.7658,8.0022,-0.020159,-0.013439,0.012828
0.14127,2.4517,-3.9815,8.0022,0.019242,-0.002138,-0.015882
0.15436,2.334,-3.8246,7.9434,0.025656,0.007025,-0.013439
0.16605,2.5497,-3.8442,7.963,0.028711,0.010079,-0.020769
0.18033,2.4713,-3.7265,8.0611,0.016799,0.018326,-0.018326
0.20111,2.5497,-3.6873,8.0022,-0.0088575,0.027489,-0.013439
0.20413,2.3732,-3.7069,7.9434,-0.032681,0.03146,-0.013134
0.21164,2.6282,-3.8834,7.5315,-0.0058032,0.027794,-0.01741
0.20013,2.1182,-4.4522,7.6884,0.011301,0.021075,-0.018937
0.189,2.2751,-3.6873,8.8652,-0.021686,0.014661,0.0015272
0.18607,2.4517,-2.9028,8.6299,-0.0045815,0.0097738,0
0.19247,2.0006,-3.2558,7.963,0.0064141,0.011301,-0.013134
0.21683,2.4517,-3.4127,7.8061,0.0042761,0.015577,-0.016799
0.2225,2.3732,-4.0207,7.7865,-0.0030543,0.018021,-0.018326
0.23816,2.6086,-4.158,8.0807,-0.014966,0.017104,-0.012217
0.24854,2.2751,-3.9423,8.1003,-0.042761,0.01405,-0.0045815
0.25668,2.2948,-3.6677,7.8453,-0.037263,0.011301,-0.00030543
0.26071,2.4713,-3.55,7.7865,-0.023824,0.01405,0.029322
0.24731,2.2948,-3.6873,8.0807,-0.036957,0.019853,0.016493
0.20819,2.3732,-3.8834,8.1787,-0.035125,0.050396,0.00030543
0.15576,2.432,-3.6873,8.0218,0.05284,0.12492,-0.0030543
0.092834,2.2359,-3.6873,7.963,0.20036,0.17043,-0.01405
0.036987,2.432,-3.5304,8.0807,0.23274,0.13561,-0.013439
-0.017487,2.2359,-3.6677,8.0807,0.18723,0.070555,0.0039706
-0.076874,2.3732,-3.6873,8.0022,0.11454,0.029627,0.019853
-0.1402,2.2948,-3.7854,8.0022,0.015577,0.01405,-0.0036652
-0.17807,2.3928,-4.0207,8.0807,0.020769,0.012523,-0.0024435
-0.20731,2.4517,-3.6873,7.9434,0.012217,0.007025,-0.010079
-0.23602,2.2948,-3.7854,8.0611,-0.007025,0.0027489,-0.0036652
-0.26154,2.4909,-3.8834,8.0611,-0.026573,-0.0036652,-0.0061087
-0.28854,2.4713,-3.6873,8.0807,-0.033292,-0.0079412,-0.0079412
-0.31375,2.1771,-3.6873,8.0807,-0.026878,-0.0039706,-0.0045815
-0.33875,2.4517,-3.7069,8.0022,-0.015272,0.0045815,-0.0039706
-0.34787,2.4909,-3.8442,7.963,-0.007025,0.013134,-0.01069
-0.35892,2.4909,-3.7069,8.0022,-0.0088575,0.017715,-0.0082467
-0.37131,2.3732,-3.8442,8.0611,-0.017715,0.01405,-0.0030543
-0.37256,2.4713,-3.7265,8.0022,-0.024435,0.012523,-0.0045815
-0.36569,2.589,-3.6873,8.0022,-0.023213,0.013744,-0.0058032
-0.36298,2.2359,-3.6285,8.0807,-0.018021,0.01741,-0.0067195
-0.3609,2.3732,-3.7069,8.0022,-0.016799,0.020159,-0.0067195
-0.34641,2.1575,-3.6285,8.1787,-0.018937,0.021991,-0.0085521
-0.33636,2.4517,-3.6873,8.0807,-0.020159,0.014661,-0.0058032
-0.3194,2.4517,-3.7265,7.963,-0.018937,0.014661,-0.0024435
-0.29736,2.3732,-3.9227,8.0807,-0.016493,0.015882,-0.0076358
-0.27219,2.4909,-3.7854,7.9434,-0.0051924,0.01741,-0.0088575
-0.23315,2.4517,-3.8834,7.8649,0.0064141,0.020464,-0.010385
-0.20221,2.3732,-3.5304,8.0807,0.010385,0.02138,-0.012217
-0.16556,2.4517,-3.5696,8.1199,0.0018326,0.016493,-0.011606
-0.11853,2.4713,-3.6873,8.0022,-0.015577,0.0073304,-0.0082467
-0.081604,2.432,-3.6873,7.8061,-0.043371,-0.0039706,-0.014661
-0.0495,2.2359,-3.6873,7.8649,-0.042455,-0.011301,-0.013744
-0.013,2.2359,-3.7265,8.0807,-0.03146,-0.011606,-0.0030543
0.020996,2.432,-3.7854,8.0022,-0.019242,-0.0097738,-0.0048869
0.05658,2.3732,-3.7265,8.0022,-0.009163,-0.0064141,-0.0033598
0.089508,2.2359,-3.6285,8.0807,0.0036652,-0.0033598,-0.0051924
0.11722,2.4517,-3.7265,8.0218,0.013744,0.0009163,-0.010996
0.13791,2.1575,-3.7069,8.0807,0.013134,0.0073304,-0.014661
0.16687,2.3732,-3.7854,7.9238,0.00030543,0.016493,-0.0079412
0.19952,2.334,-3.6285,8.0022,-0.018021,0.022602,-0.0061087
0.24136,2.432,-3.7265,7.9434,-0.030543,0.021686,-0.0027489
0.27429,2.4517,-3.7658,7.963,-0.029932,0.019242,-0.00061087
0.29724,2.432,-3.7854,8.0611,-0.017104,0.015882,-0.0030543
0.30789,2.5497,-3.6873,8.0022,-0.00030543,0.015272,-0.0048869
0.31552,2.5497,-3.6873,7.963,0.0024435,0.018326,-0.007025
0.32852,2.432,-3.6677,7.9434,0.0085521,0.02474,-0.0088575
0.34335,2.4517,-3.9423,7.9434,0.0039706,0.027794,-0.0058032
0.35315,2.5497,-3.7265,8.0022,-0.0054978,0.027489,-0.0048869
0.35483,2.4713,-3.6873,7.963,-0.018937,0.020769,-0.0036652
0.35397,2.2948,-3.7658,8.0807,-0.031765,0.017104,-0.0030543
0.34875,2.4517,-3.6873,8.0022,-0.036346,0.018021,-0.0027489
0.34512,2.2359,-3.6873,8.0807,-0.032681,0.021075,-0.00030543
0.34961,2.3928,-3.7658,8.0022,-0.026878,0.023213,-0.0036652
0.35483,2.4713,-3.7658,8.0022,-0.025045,0.023824,-0.0048869
0.32343,2.432,-3.7265,8.0611,-0.023213,0.015272,-0.016799
0.31018,2.3732,-3.8638,7.9434,-0.021991,0.018326,-0.012523
0.30972,2.4517,-3.8638,8.0022,-0.022602,0.014661,-0.0033598
0.29776,2.4517,-3.5304,7.9434,-0.020464,0.011301,-0.0039706
0.28799,2.4909,-3.5696,8.0022,-0.01741,0.0051924,-0.007025
0.2775,2.2948,-3.6677,8.0022,-0.010996,0.0012217,-0.0097738
0.26392,2.5497,-3.8442,7.9434,0,0.0054978,-0.009163
0.26346,2.432,-3.7069,7.9042,0.0079412,0.011606,-0.014355
0.24371,2.2948,-3.7658,8.0807,0.0073304,0.013744,-0.009163
0.23108,2.5497,-3.6873,7.963,-0.014661,0.0094684,-0.007025
0.2103,2.3732,-3.8246,7.9042,-0.036652,0.010385,-0.0042761
0.19717,2.5301,-3.7854,8.0022,-0.042455,0.0085521,0
0.18268,2.2751,-3.6285,8.0807,-0.033903,0.0036652,-0.0033598
0.16925,2.4909,-3.7069,8.0022,-0.01405,0.00030543,-0.007025
0.1622,2.4517,-3.6873,8.0022,0.014355,0.0033598,-0.0045815
0.15506,2.5497,-3.6873,7.963,0.016188,0.009163,-0.0054978
0.13641,2.2948,-3.7265,7.9434,-0.022602,0.0076358,-0.0061087
0.1214,2.4517,-4.158,7.9434,-0.016493,0.013744,-0.0082467
0.11844,2.334,-3.7658,7.9238,-0.011301,0.010996,-0.010385
0.087494,2.5301,-3.7265,8.0807,-0.018631,0.0085521,-0.0097738
0.030182,2.2948,-3.6873,7.9434,-0.026878,0.0097738,-0.0064141
0.0059814,2.4713,-3.7658,8.0022,-0.028711,0.0088575,-0.0045815
-0.038513,2.2163,-3.6873,8.0807,-0.029016,0.0064141,-0.0039706
-0.095703,2.3732,-3.7069,8.1591,-0.030849,0.0048869,-0.0048869
-0.15262,2.4517,-3.55,8.1591,-0.019242,0.015577,-0.010079
-0.19669,2.3732,-3.6285,8.0807,-0.0088575,0.016799,-0.011301
-0.24576,2.4517,-3.7658,7.963,-0.0018326,0.020159,-0.0079412
-0.2717,2.1771,-3.7658,8.0807,0.0024435,0.020159,-0.0058032
-0.30481,2.3732,-3.7658,7.9434,-0.0027489,0.019242,-0.0051924
-0.31628,2.3732,-3.6481,7.963,-0.012523,0.014355,-0.0076358
-0.33862,2.334,-3.7658,8.0022,-0.023518,0.011301,-0.0054978
-0.34866,2.4517,-3.7658,8.0807,-0.025656,0.014661,-0.0067195
-0.35825,2.3732,-3.7069,8.1003,-0.012217,0.020159,-0.010385
-0.3569,2.432,-3.6677,7.9238,-0.0097738,0.02474,-0.0097738
-0.36002,2.4713,-3.7854,7.9434,-0.013439,0.021686,-0.0076358
-0.36517,2.1182,-3.6873,8.1199,-0.019242,0.019853,-0.0012217
-0.36148,2.3732,-3.7265,8.1003,-0.027794,0.016493,-0.0024435
-0.36017,2.334,-3.7658,7.9042,-0.029932,0.011606,-0.0082467
-0.34967,2.5301,-3.6677,8.0022,-0.024435,0.01069,-0.01069
-0.34845,2.2359,-3.6873,8.0611,-0.014661,0.014966,-0.010079
-0.35754,2.4517,-3.6873,8.0022,-0.0058032,0.020769,-0.0058032
-0.35529,2.4517,-3.7854,8.0218,-0.01069,0.02138,-0.0064141
-0.34714,2.1771,-3.6873,8.1003,-0.022602,0.02138,-0.0088575
-0.33658,2.3928,-3.7658,7.9434,-0.0281,0.019242,-0.0076358
-0.32056,2.5301,-3.5304,8.0611,-0.0281,0.014966,-0.007025
-0.28741,2.2359,-3.6873,8.1787,-0.027794,0.010996,-0.0067195
-0.25793,2.2948,-3.7658,7.963,-0.02474,0.0054978,-0.0073304
-0.22873,2.2948,-3.7854,8.0022,-0.023824,0.0024435,-0.0082467
-0.18484,2.4517,-3.6677,8.0807,-0.0061087,0.018326,0.011301
-0.11212,2.3928,-3.7658,7.9434,-0.010996,0.012828,0.0061087
-0.045959,2.3732,-3.7658,7.9434,-0.021686,0.010079,-0.0064141
0.026184,2.2948,-3.8442,8.0022,-0.03207,0.0082467,-0.0082467
0.066711,2.3732,-3.7658,8.0022,-0.036346,0.0088575,-0.0073304
0.1391,2.5497,-3.7069,8.0611,-0.032376,0.01405,-0.0085521
0.19623,2.432,-3.6873,8.0807,-0.017104,0.023213,-0.0024435
0.24323,2.1182,-3.6873,8.1199,0.0082467,0.027794,0.0088575
0.28189,2.2948,-3.6677,7.9434,-0.032987,0.024129,-0.0054978
0.32474,2.4909,-3.55,8.0022,-0.040317,0.019242,-0.0076358
0.36682,2.4517,-3.7658,7.9042,-0.035125,0.012828,0.0024435
0.3989,2.5497,-3.8638,7.963,-0.021686,0.0097738,0.00061087
0.43616,2.4517,-3.7069,8.0807,-0.0009163,0.0088575,-0.0033598
0.46887,2.2948,-3.6285,8.0022,0.014661,0.016799,-0.010079
0.5105,2.3732,-3.7461,8.0611,0.011301,0.023518,-0.010385
0.54108,2.5301,-3.7854,8.0022,-0.011301,0.021991,-0.0048869
0.55658,2.2948,-3.6873,8.0022,-0.028405,0.021991,-0.0067195
0.5546,2.1575,-3.6873,8.0807,-0.038179,0.01741,-0.0085521
0.52756,2.3732,-3.7854,7.9434,-0.039095,0.013134,-0.0051924
0.51117,2.589,-3.7658,8.0807,-0.036652,0.011912,-0.0018326
0.47293,2.4517,-3.7069,7.963,-0.03146,0.009163,-0.0018326
0.44577,2.3928,-3.55,7.963,-0.028405,0.0073304,-0.0030543
0.42014,2.4517,-3.7069,8.0022,0.0079412,0.0088575,-0.0051924
0.39316,2.5497,-3.7265,8.0807,-0.0094684,0.007025,-0.0058032
0.37262,2.2948,-3.8638,8.0022,-0.020159,0.0039706,-0.0076358
0.36411,2.2948,-3.8638,7.963,-0.0064141,0.0067195,-0.0082467
0.35471,2.4517,-3.8638,7.9238,0.0058032,0.0097738,-0.010996
0.34891,2.589,-4.0011,7.9042,0.014355,0.014355,-0.014966
0.3631,2.4713,-3.8246,7.9042,0.018326,0.020464,-0.015577
0.36472,2.4517,-3.6285,8.0807,0.010385,0.027184,-0.011606
0.37714,2.1575,-3.6285,8.1003,-0.029016,0.029322,-0.010996
0.3876,2.2163,-3.6285,8.0807,-0.027489,0.025656,-0.0094684
0.39606,2.4909,-3.7658,7.9434,-0.0082467,0.015577,-0.009163
0.4212,2.2359,-4.0796,8.1787,0.0009163,0.01741,-0.0073304
0.4418,2.1575,-3.6873,8.0807,0.0051924,0.015577,-0.011606
0.45529,2.4909,-3.6873,7.9434,0.0024435,0.01405,-0.0085521
0.46829,2.2359,-3.7069,8.0022,-0.0067195,0.010385,-0.0061087
0.46533,2.4909,-3.8246,8.0022,-0.013744,0.0094684,-0.007025
0.48151,2.2948,-3.8638,7.7865,-0.015577,0.01069,-0.0076358
0.48077,2.5497,-3.8246,7.9434,-0.013744,0.0094684,-0.009163
0.47916,2.4909,-3.6873,8.0022,0.00030543,0.0079412,-0.01069
0.48859,2.2751,-3.6285,8.0807,0.011912,0.010385,-0.012828
0.48566,2.2751,-3.7069,8.1199,0.018326,0.014355,-0.0064141
0.47339,2.4517,-3.9423,8.0022,0.010996,0.016188,-0.0076358
0.48358,2.3732,-3.7069,7.9238,-0.0058032,0.013134,-0.0067195
0.48486,2.4909,-3.8638,7.9238,-0.021686,0.0073304,-0.0036652
0.47891,2.1575,-3.7658,8.0218,-0.029627,0.0018326,-0.0048869
0.47794,2.4909,-4.0011,7.963,-0.027489,-0.0015272,-0.0082467
0.46887,2.334,-3.7069,8.0218,-0.0097738,-0.002138,-0.021991
0.46628,2.2751,-3.8442,8.0611,0.013744,0.0015272,-0.018021
0.45651,2.4517,-3.7069,7.9434,0.034514,0.0067195,-0.013439
0.44986,2.4713,-3.7658,7.9434,0.054367,0.0073304,-0.012217
0.44766,2.2948,-3.7658,8.0611,0.066584,0.0058032,-0.011301
0.44623,2.5301,-3.7265,8.0807,0.066584,0.0045815,-0.01069
0.44168,2.4517,-3.7265,8.0218,0.060781,0.002138,-0.013439
0.44391,2.2359,-3.8638,7.8061,0.065057,-0.00061087,-0.018937
0.44025,2.1575,-3.8638,8.0611,-0.040012,0.0094684,-0.0076358
0.44022,2.432,-3.9423,7.8649,-0.04215,0.0042761,-0.011301
0.44592,2.589,-3.8638,8.1003,-0.037263,0.0042761,-0.0067195
0.45038,2.2948,-3.8246,8.0807,-0.03146,0.0079412,-0.0051924
0.453,2.4713,-3.7658,7.963,-0.029627,0.011912,-0.0033598
0.45947,2.2948,-3.5304,7.9238,-0.030849,0.013744,-0.0030543
0.46863,2.432,-3.3931,7.9434,-0.029322,0.012217,-0.0030543
0.45721,2.4517,-3.55,7.9042,-0.02138,0.012828,-0.0048869
0.4679,2.2948,-3.55,8.0022,0.0033598,0.0024435,-0.011606
0.47522,2.4517,-3.6285,8.0022,0.029932,0.010079,-0.017715
0.48935,2.5301,-3.7069,8.0807,0.048258,0.01741,-0.018631
0.49799,2.6086,-3.9815,8.1787,0.054978,0.023824,-0.018937
0.50229,2.1771,-3.8834,8.0807,0.050396,0.026267,-0.014661
0.50681,2.2163,-3.8638,7.8649,0.027184,0.025656,-0.012523
0.49448,2.2948,-3.7069,7.8453,-0.039706,0.022297,-0.013134
0.49191,2.3732,-3.6873,7.963,-0.021686,0.018631,-0.010996
0.48337,2.4713,-3.7069,8.0807,-0.025656,0.019548,0.0009163
0.4939,2.2948,-3.7658,7.9434,-0.033903,0.016493,-0.0079412
0.47827,2.4713,-3.7658,8.0218,-0.025962,0.015882,-0.014966
0.47916,2.3732,-3.7658,7.9238,-0.0067195,0.01069,-0.011301
0.47134,2.4909,-3.7854,7.9434,0.012217,0.01069,-0.012828
0.46997,2.5497,-3.9815,8.0022,0.0054978,0.015272,-0.013439
0.45282,2.2163,-3.6873,8.0807,0.00061087,0.018937,-0.0097738
0.44785,2.3732,-3.6873,8.0022,-0.012828,0.017715,-0.002138
0.4519,2.5497,-3.9423,8.0022,-0.034514,0.012523,-0.0018326
0.43747,2.4517,-3.7658,7.963,-0.010385,0.01069,-0.0045815
0.42654,2.1575,-3.8442,8.0611,-0.010385,0.010385,-0.0079412
0.41605,2.2948,-3.8638,7.9434,-0.015577,0.010385,0.0036652
0.41003,2.4713,-3.8246,7.9238,-0.020464,0.0073304,0.007025
0.40631,2.589,-3.6873,8.0807,-0.026878,0.0039706,0.002138
0.38223,2.5497,-3.8638,8.0807,-0.034208,0.0033598,0.00061087
0.37918,2.5497,-3.6285,8.0611,-0.037263,0.0018326,0.0018326
0.38144,2.1378,-3.6285,8.0611,0.0009163,0.020464,-0.014355
0.3765,2.2948,-3.7658,7.9434,0.0048869,0.017104,-0.016799
0.38727,2.2163,-3.7265,8.0022,0.0018326,0.015882,-0.0048869
0.39938,2.4909,-3.7658,8.0611,-0.0054978,0.01405,-0.0064141
0.40738,2.5497,-3.6873,7.9434,-0.014355,0.012523,-0.0045815
0.40118,2.4909,-3.6285,8.0807,-0.025962,0.01069,-0.0027489
0.40326,2.5497,-3.7854,8.0022,-0.039706,0.0073304,-0.0061087
0.40002,2.3732,-3.8442,7.8649,-0.045815,0.0030543,-0.011606
0.40353,2.4909,-3.8638,8.0807,-0.020464,0.013744,-0.011912
0.42456,2.4517,-4.1384,8.0807,-0.03207,0.012217,-0.01069
0.44672,2.2948,-3.8246,8.0022,-0.040012,0.009163,0
0.46997,2.4517,-3.6873,8.0022,-0.047037,0.0042761,-0.00030543
0.48654,2.2359,-3.7658,8.1199,-0.050702,0.0033598,-0.0009163
0.48959,2.589,-3.7265,8.0807,-0.043677,0.0039706,-0.0042761
0.508,2.4517,-3.4519,7.9238,-0.027184,0.0079412,-0.0073304
0.52106,2.2359,-3.3931,8.0022,-0.0088575,0.015272,-0.010996
0.51785,2.2948,-3.5304,8.0022,0.0097738,0.02138,-0.010996
0.51761,2.2948,-3.55,8.0218,0.017715,0.024129,-0.011606
0.5191,2.5497,-3.8638,8.0807,0.013134,0.028405,-0.0097738
0.51657,2.3928,-3.8638,8.0807,0.00030543,0.0281,-0.0097738
0.51068,2.4517,-3.7265,7.963,-0.016799,0.021991,-0.011606
0.49612,2.1575,-3.6677,8.0022,-0.034208,0.015882,-0.011912
0.50034,2.3732,-3.7658,8.0022,-0.047647,0.011301,-0.011912
0.49155,2.4517,-3.7658,7.9434,-0.048564,0.0051924,-0.011606
0.48276,2.2948,-3.7658,8.0807,-0.019242,0.021686,-0.011606
0.47577,2.3732,-3.7069,7.963,-0.013744,0.022907,-0.01069
0.4657,2.432,-3.6873,8.0022,-0.020769,0.023213,0.0024435
0.4491,2.4713,-3.7069,7.9434,-0.036041,0.023824,-0.0030543
0.44171,2.589,-3.6873,8.1199,-0.043371,0.022602,-0.0058032
0.43216,2.2751,-3.6285,8.1003,-0.035125,0.023518,-0.0064141
0.42142,2.3928,-3.7069,8.0218,-0.022907,0.025351,-0.0058032
0.40506,2.432,-3.6873,7.963,-0.017104,0.026878,-0.0085521
0.39832,2.2948,-3.8442,7.9434,-0.018631,0.024435,0.0024435
0.38461,2.2948,-3.9423,7.963,-0.026878,0.020769,0.0018326
0.36765,2.3928,-3.8638,7.7865,-0.030543,0.016799,-0.0045815
0.35239,2.4713,-3.6677,8.0022,-0.02474,0.015577,-0.0045815
0.33557,2.4713,-3.6873,8.0807,-0.018631,0.014661,-0.0097738
0.32205,2.2359,-3.7069,8.1003,-0.013134,0.014661,-0.0097738
0.3201,2.3732,-3.7658,8.0022,-0.0097738,0.017104,-0.0058032
0.31021,2.5497,-3.8246,7.963,-0.010996,0.01741,-0.0009163
0.29749,2.4909,-3.8246,8.0022,0.011606,0.012523,-0.0058032
0.30902,2.5497,-3.7658,8.0022,0.0067195,0.014661,-0.007025
0.32516,2.2948,-3.8442,8.0807,0.0033598,0.013439,-0.0024435
0.34189,2.4517,-3.8246,7.9434,-0.0045815,0.012217,-0.0033598
0.34366,2.2751,-3.7069,7.8649,-0.0097738,0.012523,-0.0076358
0.35425,2.4517,-3.7854,8.0022,-0.0079412,0.013134,-0.011301
0.35022,2.4713,-3.6677,8.0218,0.0045815,0.015272,-0.010385
0.34491,2.4517,-3.6677,7.963,0.013439,0.017715,-0.0061087
0.35452,2.4713,-3.7854,7.9042,-0.047953,0.018021,-0.002138
0.35681,2.4517,-3.5304,7.9434,-0.04215,0.015882,-0.0064141
0.36441,2.2751,-3.6285,8.0807,-0.033598,0.015272,-0.0012217
0.37546,2.1771,-3.7658,8.1787,-0.02474,0.016188,0.00030543
0.37799,2.5497,-3.8638,8.0807,-0.022907,0.016799,0.0039706
0.38556,2.1771,-3.6873,8.0218,-0.026573,0.013744,0.0048869
0.40021,2.2948,-3.6088,8.0807,-0.030543,0.010996,0.0067195
0.40921,2.6086,-3.8638,8.0022,-0.036652,0.013439,0.0051924
0.40726,2.3928,-3.8638,7.9238,-0.03879,0.016799,-0.011606
0.40845,2.2948,-3.8834,7.9434,-0.034514,0.016799,-0.0094684
0.41183,2.2948,-3.8638,7.8649,-0.029627,0.018631,-0.010385
0.40768,2.589,-3.6873,8.0807,-0.025045,0.020159,-0.012828
0.41406,2.6478,-3.6285,8.1003,-0.016493,0.022602,-0.014966
0.4118,2.3732,-3.5304,8.0807,-0.0027489,0.024129,-0.01741
0.4137,2.3732,-3.6873,8.0022,0.012523,0.025351,-0.016799
0.40656,2.2359,-3.8246,7.9238,0.025045,0.027184,-0.014661
0.40594,2.5497,-3.9423,7.9238,-0.0015272,0.028711,-0.0027489
0.3855,2.4713,-3.7658,7.9042,-0.027184,0.029932,-0.0024435
0.37045,2.3928,-3.7658,7.9434,-0.046426,0.019853,-0.0039706
0.36221,2.4517,-3.8246,8.0807,-0.04948,0.0027489,-0.002138
0.35025,2.5497,-3.6285,8.0022,-0.036652,-0.0085521,-0.0042761
0.34457,2.4517,-3.6873,7.963,-0.013744,-0.011606,-0.0054978
0.32022,2.5301,-3.7069,8.0218,0.030543,-0.0079412,-0.0064141
0.30777,2.6086,-3.7658,7.9434,0.019548,0.0033598,-0.0058032
0.29688,2.3732,-3.6677,7.9238,-0.0051924,0.022907,-0.0018326
0.29617,2.2948,-3.9423,8.0807,-0.0058032,0.027184,0.0027489
0.31967,2.4909,-3.6285,8.1003,-0.0085521,0.020159,-0.0079412
0.3154,2.2751,-3.7069,8.1003,-0.0097738,0.015272,-0.0054978
0.31046,2.1575,-3.6677,8.1003,-0.010079,0.014355,-0.0027489
0.30679,2.1575,-3.6873,8.0807,-0.007025,0.01069,-0.0015272
0.29706,2.2948,-3.7658,7.9042,-0.0045815,0.0082467,-0.0030543
0.30231,2.3732,-3.8442,8.0218,-0.0073304,0.0085521,-0.0042761
0.29086,2.589,-3.6873,7.963,-0.011606,0.0085521,-0.0036652
0.28149,2.5497,-3.6285,8.0022,-0.014355,0.0058032,-0.0079412
0.26526,2.2751,-3.6677,8.0611,-0.011912,0.0082467,0.0015272
0.25647,2.4517,-3.7658,8.0807,-0.0058032,0.013134,-0.0012217
0.23523,2.2359,-3.7265,8.1199,0.0036652,0.018326,-0.0042761
0.21387,2.4713,-3.6285,8.0022,0.017715,0.021991,-0.0039706
0.1983,2.5497,-3.6285,8.0807,0.027794,0.022907,-0.0027489
0.17694,2.4909,-3.6873,8.0611,0.039401,0.022907,-0.0039706
0.16452,2.4909,-3.7658,8.0218,0.020464,0.019242,0.0027489
0.15552,2.3732,-3.8246,7.8061,0.022297,0.015882,0.0088575
0.14728,2.5497,-3.6285,8.0022,0.034819,0.015272,-0.020464
0.12753,2.2751,-3.6873,8.0807,0.050702,0.016188,-0.013744
0.13354,2.4517,-3.7265,8.0218,0.055589,0.01741,-0.0015272
0.12033,2.4909,-3.6285,8.0807,0.06017,0.016188,-0.0012217
0.11234,2.3732,-3.6285,8.1199,0.060781,0.017104,-0.0054978
0.10565,2.2359,-3.5304,8.0807,0.044593,0.0085521,-0.0058032
0.082123,2.5301,-3.5304,8.0807,0.012217,-0.002138,0.0061087
0.073334,2.4909,-3.6873,8.0611,-0.0097738,-0.0088575,0.0076358
0.058197,2.2948,-3.7658,7.9238,-0.01069,-0.014661,0.0061087
0.042694,2.6086,-3.5696,8.0218,0.0051924,-0.016493,0.0030543
0.03183,2.432,-3.6088,7.963,0.025656,-0.013439,0.0009163
0.024689,2.1575,-3.5304,8.0807,0.047037,-0.011301,0.002138
0.019867,2.432,-3.3735,8.0611,0.058643,-0.0082467,0.0058032
0.0038452,2.2948,-3.3735,8.2376,0.06689,-0.0079412,0.0042761
-0.0028992,2.4713,-3.5304,8.1199,0.057727,0.082161,-0.011606
0.0044861,2.2948,-3.6285,8.0022,0.049786,0.08094,-0.015577
0.016876,2.5497,-3.6873,8.0611,0.043371,0.074526,-0.034819
0.0058594,2.4713,-3.8638,8.0022,0.038485,0.066584,-0.032987
-0.0032959,2.5497,-3.8834,8.0022,0.03207,0.060476,-0.02474
-0.0077209,2.7459,-3.8442,8.1003,0.024129,0.056505,-0.020464
-0.025421,2.6478,-3.4716,7.9238,0.013134,0.04612,-0.018326
-0.031433,2.4713,-3.5304,7.9238,-0.00061087,0.033598,-0.012828
-0.035706,2.3732,-3.6088,7.8061,0.0051924,0.023213,-0.0036652
-0.040253,2.2948,-3.6873,7.7865,0.013744,0.01741,-0.0067195
-0.045349,2.4713,-3.8638,7.9434,0.019548,0.018021,-0.016188
-0.049866,2.4909,-4.0207,8.0807,0.020159,0.019853,-0.015272
-0.040894,2.5301,-3.8638,8.1199,0.014966,0.020159,-0.01405
-0.031769,2.4909,-3.7658,8.0807,0.0009163,0.019548,-0.012828
-0.02533,2.2359,-3.5304,8.218,-0.0073304,0.020464,-0.0082467
-0.013458,2.4909,-3.55,8.0807,-0.0039706,0.023518,-0.0039706
-0.012115,2.2359,-3.4127,8.218,-0.067806,0.029016,-0.01069
-0.012024,2.4909,-3.5304,8.2572,-0.078496,0.033598,-0.01069
-0.014191,2.2751,-3.6285,8.2572,-0.081551,0.029932,-0.0048869
-0.013641,2.4517,-3.6285,8.0807,-0.076053,0.023518,0.00030543
-0.008606,2.2751,-3.5304,8.0218,-0.066584,0.018021,0.0009163
-0.0010376,2.4517,-3.3931,8.0807,-0.0562,0.015577,0.00061087
-0.00094604,2.2359,-3.4127,8.1003,-0.020464,0.014661,-0.0036652
-0.0045776,2.1182,-3.3931,8.0807,-0.047647,0.012828,-0.009163
-0.0073547,2.334,-3.6285,8.1787,-0.029627,0.012523,-0.018937
-0.012482,2.2751,-3.6873,8.218,-0.036652,0.012523,-0.017104
-0.0080261,2.2359,-3.7658,8.1787,-0.04215,0.011301,-0.010996
-0.0063171,2.3928,-3.6873,8.0611,-0.03879,0.0097738,-0.013439
0.0013428,2.4517,-3.5304,8.0022,-0.024129,0.010996,-0.014661
0.0045471,2.2948,-3.5696,8.0022,-0.0009163,0.011912,-0.014966
0.010101,2.3732,-3.7658,8.0807,-0.043677,0.013744,-0.013744
0.02121,2.5301,-3.7265,8.0807,-0.033903,0.021075,-0.017104
0.02594,2.6282,-3.4519,8.0611,-0.020464,0.010996,-0.007025
0.035522,2.2948,-3.7069,8.0218,-0.032681,0.0061087,-0.0054978
0.02832,2.2948,-3.6285,8.1199,-0.043982,0.00030543,-0.0015272
-0.006073,2.2359,-3.6873,8.1787,-0.054978,-0.0039706,-0.0033598
-0.054688,2.4713,-3.8638,8.0807,-0.05284,-0.007025,-0.0073304
-0.11343,2.2948,-3.8442,8.0022,-0.029627,-0.010385,-0.0097738
-0.18784,2.2948,-3.7069,7.8649,0.0033598,-0.0097738,-0.012828
-0.26733,2.3732,-3.6873,7.963,0.032376,-0.0051924,-0.011301
-0.35056,2.3732,-3.7069,7.9434,0.044593,0.0015272,0.0085521
-0.418,2.4517,-3.8246,8.0807,0.039401,0.0045815,0.011301
-0.49353,2.2948,-3.7069,8.0218,0.018631,-0.0054978,-0.0061087
-0.54547,2.5497,-3.6677,8.1591,-0.012828,-0.024435,-0.0012217
-0.60962,2.5497,-3.3931,8.1003,-0.048258,-0.038179,0.0051924
-0.64871,2.2359,-3.2558,8.0807,-0.085521,-0.049175,0.0058032
-0.68936,2.1182,-3.4519,8.0807,-0.11026,-0.058948,0.009163
-0.71954,2.2948,-3.7658,8.0022,-0.12492,-0.065363,0.009163
-0.73764,2.5497,-3.7658,8.0807,-0.14416,-0.064752,-0.014661
-0.75662,2.2948,-3.6873,8.0807,-0.16677,-0.065668,-0.011606
-0.7778,2.2948,-3.6285,8.0807,-0.18876,-0.062003,0.0076358
-0.79306,2.2751,-3.6285,7.8649,-0.19517,-0.055894,0.0024435
-0.793,2.4909,-3.6088,8.0611,-0.16585,-0.054367,0
-0.7663,2.2751,-3.6285,8.1787,-0.10812,-0.048869,-0.0045815
-0.73831,2.2948,-3.6285,8.1787,-0.034819,-0.030849,-0.007025
-0.69031,2.2359,-3.6677,8.316,0.036041,-0.0051924,-0.011301
-0.63065,2.3732,-3.55,8.1787,0.013744,0.015882,0.010996
-0.54831,2.4713,-3.5304,8.0807,-0.016188,0.018631,0.0042761
-0.47012,2.4517,-3.6285,8.0807,-0.040012,0.0094684,-0.0067195
-0.39224,2.6086,-3.7658,7.9042,-0.04948,0.0030543,0.0036652
-0.32297,2.4909,-4.0207,7.7865,-0.047647,0.0024435,0.0067195
-0.25024,2.432,-4.1384,7.6492,-0.037568,0.0058032,0.0058032
-0.20026,2.4713,-3.9423,7.7473,-0.027184,0.0082467,0.0058032
-0.14154,2.5693,-3.6873,7.7669,-0.019242,0.010079,0.009163
-0.097656,2.6478,-3.8638,7.9042,-0.009163,0.0024435,-0.016188
-0.058441,2.6282,-3.6285,8.0807,-0.0076358,0.00061087,-0.017104
-0.017365,2.589,-3.6873,8.0807,-0.0027489,0.0048869,-0.0088575
0.0091553,2.432,-3.6285,8.0807,0.0042761,0.0064141,-0.01069
0.038239,2.4517,-3.8442,8.0807,0.015272,0.0033598,-0.010996
0.063843,2.2359,-3.6873,8.1787,0.0281,0.0012217,-0.010385
0.081512,2.2948,-3.4127,8.2376,-0.012217,0.0024435,-0.012828
0.097565,2.4713,-3.5108,8.1787,-0.0085521,0.0048869,-0.014966
0.11038,2.2948,-3.6285,8.0807,0.023824,0.011912,0.00061087
0.12665,2.4517,-3.8442,8.0218,0.0097738,0.023518,0.007025
0.13831,2.4517,-3.7658,7.9434,-0.0082467,0.026878,-0.018326
0.16248,2.3732,-3.7658,8.0022,-0.026573,0.028711,-0.017715
0.17706,2.5497,-3.7069,7.9434,-0.044288,0.032376,-0.01069
0.17899,2.4909,-3.9227,8.0022,-0.055589,0.034514,-0.0064141
0.18854,2.2948,-3.7069,8.1003,0.035125,0.032681,-0.0073304
0.18961,2.4517,-3.5304,8.0807,0.030849,0.029932,-0.0061087
0.19485,2.4517,-3.5304,8.0807,-0.027184,0.01741,-0.01069
0.19391,2.4517,-3.55,8.1003,-0.023213,0.018937,-0.01069
0.2037,2.2359,-3.6873,8.1787,-0.01405,0.025045,-0.0018326
0.19907,2.432,-3.6873,8.0807,0.0024435,0.034208,-0.0064141
0.20108,2.5497,-3.7069,8.0022,0.018021,0.041233,-0.007025
0.20746,2.4713,-3.6873,8.0807,0.021686,0.044288,-0.0094684
0.20251,2.4713,-3.6873,8.0807,0.011606,0.039706,-0.012828
0.19916,2.5301,-3.7069,8.0022,0,0.033598,-0.012828
0.18896,2.334,-3.6285,8.0807,-0.014661,0.0281,-0.010996
0.18365,2.432,-3.5304,7.9238,-0.030238,0.02474,-0.0097738
0.19342,2.2948,-3.4519,7.9434,-0.040623,0.018021,-0.012523
0.18106,2.4517,-3.4716,8.0022,-0.045204,0.010996,-0.0097738
0.1795,2.4517,-3.6285,8.0807,-0.044593,0.0048869,-0.011606
0.17871,2.2751,-3.6873,8.2376,-0.040928,0.00061087,-0.013744
0.17621,2.4517,-3.7265,8.1003,-0.03207,0.0009163,-0.010079
0.16705,2.4517,-3.6873,8.1787,-0.019853,0.0027489,-0.010079
0.15536,2.2163,-3.6285,8.0807,-0.017715,-0.043982,0.029322
0.15622,2.2751,-3.9815,8.1787,-0.021991,-0.041844,0.022602
0.1662,2.5497,-3.55,7.963,-0.018021,-0.043066,0.021991
0.15714,2.4517,-3.6873,8.0022,-0.0051924,-0.045815,0.029932
0.14874,2.2948,-3.6677,8.0022,0.026573,-0.048258,0.039095
0.13718,2.4713,-3.8246,8.0022,0.062308,-0.047647,0.040623
0.1235,2.2948,-3.6873,8.0022,0.073304,-0.045509,0.036957
0.11896,2.2948,-3.6873,7.9434,0.054672,-0.045509,0.034208
0.11554,2.2948,-3.6285,7.9434,0.12156,-0.050091,-0.016799
0.1019,2.2948,-3.5304,8.0022,0.040012,-0.059254,-0.0073304
0.083588,2.2359,-3.5304,8.1199,0.015577,-0.061697,0.019853
0.067444,2.4713,-3.6873,7.9434,0.009163,-0.051007,0.016799
0.060333,2.3928,-3.7658,8.0611,0.009163,-0.043677,0.0030543
0.055786,2.2948,-3.8638,7.9238,0.012217,-0.043982,-0.01405
0.051727,2.3732,-3.7658,7.963,0.034514,-0.045204,-0.013439
0.043976,2.432,-3.7265,8.0022,0.079107,-0.046731,-0.011301
0.047333,2.3732,-3.6285,8.1003,0.017104,0.010996,0.0009163
0.033905,2.0594,-3.5108,8.1787,0.039706,0.02138,-0.015272
0.047913,2.3732,-3.6285,8.2572,0.060781,0.025351,-0.013744
0.067413,2.4909,-3.6873,8.1787,0.071166,0.02474,-0.015577
0.072784,2.4517,-3.5696,8.1199,0.076358,0.02138,-0.014661
0.085327,2.2359,-3.55,8.1787,0.083689,0.011606,-0.011606
0.091339,2.3732,-3.6677,8.0022,0.09163,0.0036652,-0.010079
0.095306,2.3732,-3.3735,8.0611,0.072998,-0.01069,-0.0027489
0.094269,2.4713,-3.4127,8.0022,0.026573,-0.028405,0.0094684
0.1012,2.6086,-3.6677,8.2376,0.022297,-0.044593,0.01741
0.094025,2.687,-3.8638,8.1787,0.036346,-0.048258,-0.017104
0.091919,2.7851,-3.6873,8.1787,0.051313,-0.047037,-0.0094684
0.10977,2.5497,-3.5696,8.0022,0.058032,-0.045509,-0.0082467
0.1105,2.4713,-3.5304,7.9238,0.051007,-0.043677,-0.012217
0.10693,2.3732,-3.5304,8.0807,0.027794,-0.040928,-0.012217
0.096649,2.432,-3.5108,8.3945,0.002138,-0.043371,-0.0024435
0.09845,2.1378,-3.3931,9.0417,1.2477,0.53878,-0.59559
0.10071,1.9809,-3.0793,9.6694,1.0177,0.73273,-0.60964
0.10114,1.7456,-2.8832,11.062,0.34208,0.85185,0.16218
0.077606,1.2945,-4.0403,12.553,-0.4667,0.84788,0.28527
-0.015869,1.5102,-5.6486,13.082,-0.50427,0.54978,0.46976
-0.17352,1.7456,-6.3547,11.827,0.076053,-0.018326,0.59956
-0.38373,2.8047,-4.158,10.375,0.70921,-0.4102,0.40775
-0.66299,2.5301,-1.3141,9.8066,1.1035,-0.48717,-0.15363
-0.94772,3.2558,0.37265,9.2771,1.5091,0.21533,0.76847
-0.99997,4.1188,0.078453,8.218,1.0473,0.35155,0.73945
-0.99997,4.7464,-1.1768,5.8252,0.55375,0.39004,1.5803
-0.99997,5.5898,-0.86299,3.4716,0.11606,0.36896,1.4783
-0.99997,5.5113,-0.37265,2.7655,-0.15455,0.36408,1.3375
-0.99997,4.5699,-0.72569,3.5304,-0.21289,0.40959,1.1481
-0.99997,3.4127,-2.3732,5.6094,-0.082772,0.53603,0.95753
-0.99997,3.2558,-5.7467,7.0019,0.1573,0.75778,0.82406
-0.99997,3.5696,-8.218,5.9821,0.46212,1.0336,-0.43524
-0.99997,4.1188,-7.8453,4.2953,0.55192,1.3109,-0.3488
-0.99997,3.3146,-5.3348,3.2166,0.85216,1.4297,0.70463
-0.99997,0.39227,-6.9627,6.2763,1.3036,1.2532,0.62156
-0.99997,1.3533,-7.1785,10.297,1.5968,1.0931,0.32254
-0.99997,0.27459,-3.2166,12.827,1.5605,1.0751,-0.26084
-0.99997,1.6083,0.56879,10.846,0.36957,0.97005,-0.59712
-0.99997,4.1972,1.3925,7.3354,0.44899,0.69119,-0.53603
-0.99997,5.4329,0.19613,6.4332,0.13683,0.27031,0.085216
-0.99997,4.9818,-1.6867,6.3351,-0.15516,-0.12828,0.12187
-0.99997,4.5111,-2.687,8.0218,-0.28375,-0.32987,-0.26878
-0.99997,5.3544,-1.6867,9.3752,-0.2697,-0.34636,-0.15669
-0.99997,4.7464,-0.56879,11.376,-0.09163,-0.25992,-0.03207
-0.99997,-1.3141,-5.7075,14.337,0.26145,-0.11454,0.048564
-0.99997,1.3533,-6.3939,12.082,1.1353,0.080634,0.073915
-0.99997,4.4326,-0.56879,9.2575,0.57727,0.30482,0.062919
-0.99997,0.80415,1.471,9.179,-1.4166,-0.42089,0.78618
-0.99997,-1.3925,-2.7851,9.0417,-1.4395,-0.35766,0.85888
-0.99997,0.2942,-5.884,7.1392,-1.5183,-0.33262,0.28863
-0.99997,2.8047,-4.9426,7.4531,-1.6435,-0.35522,0.40439
-0.99997,3.3343,-2.3144,8.8652,-1.774,-0.41233,0.50946
-0.99997,3.3735,-0.31381,9.7478,-1.8888,-0.47403,0.61392
-0.99997,3.4912,0.62763,9.6497,-1.9801,-0.51282,0.6973
-0.99997,3.8834,0.76492,8.8848,-2.0449,-0.5342,0.74251
-0.99997,4.3345,0.72569,7.6492,-2.1316,-0.5452,1.3295
-0.99997,4.6287,0.72569,6.9235,-2.1707,-0.57116,1.3118
-0.99997,4.3149,0.66685,6.9235,-2.2009,-0.61331,0.95661
-0.99997,4.4914,0.47072,7.1392,-2.2413,-0.65943,1.0534
-0.99997,4.3542,0.52956,7.2765,-2.2895,-0.7083,1.1231
-0.99997,4.2561,0.62763,7.7865,-2.346,-0.75289,1.1808
-0.99997,4.1776,0.05884,8.1787,-2.3637,-0.80146,1.2431
-0.95255,4.2169,-1.1768,8.0611,-2.3054,-0.87415,1.2996
-0.84174,4.2561,-1.6475,7.9238,-2.2333,-0.92271,1.3879
-0.74072,3.9423,-2.0594,7.5511,-2.1985,-0.90378,1.3564
-0.63046,4.1776,-2.432,7.3158,-2.1756,-0.85674,1.2663
-0.51657,4.5307,-2.7459,7.1589,-2.1958,-0.82528,1.2694
-0.42047,4.1972,-3.6677,6.6685,-2.2877,-0.78007,1.3375
-0.33252,4.2561,-5.1387,6.1193,-2.427,-0.7535,1.3925
-0.26804,4.0403,-5.276,5.6094,-2.6108,-0.77,1.4041
-0.21515,4.1188,-5.276,5.1387,-2.8237,-0.79871,1.4025
-0.17886,3.8638,-5.3348,4.8053,-2.9086,-0.84116,1.1726
-0.16306,4.1188,-5.5702,4.3345,-2.7678,-0.91019,1.1723
-0.16937,4.06,-7.4531,2.5105,-2.4429,-0.93371,1.3216
-0.19409,4.6484,-9.2771,1.0983,-1.9206,-0.88301,1.2477
-0.21927,5.1191,-8.8652,0.84337,-1.3002,-0.75411,1.1295
-0.25006,4.3345,-7.4531,1.3337,-0.74251,-0.562,1.0446
-0.2861,4.1776,-8.2376,0.96105,-0.30299,-0.37446,1.0498
-0.29974,4.3149,-9.1006,1.0003,0.11301,-0.24343,1.1182
-0.29703,4.158,-8.1591,1.4122,0.0073304,0.10018,-0.16616
-0.28754,3.5892,-7.1785,1.9417,-0.10201,0.054367,-0.14478
-0.27017,3.8638,-7.1589,2.1575,-0.21411,0.015577,0.060781
-0.25076,3.7069,-7.0019,3.0597,-0.30513,-0.012523,0.0073304
-0.25452,3.2362,-6.7666,4.3345,-0.30055,-0.020769,-0.048258
-0.26251,2.432,-6.0409,5.276,-0.17654,0.016493,-0.10934
-0.29041,1.6475,-4.4914,6.5116,0.014355,0.10629,-0.16524
-0.34531,0.60801,-3.4127,7.4531,0.18479,0.20861,-0.18479
-0.44901,-0.27459,-2.8243,8.4141,0.38301,0.26664,-0.36621
-0.56607,-0.68647,-3.0989,9.7282,0.36988,0.2645,-0.41325
-0.65884,-1.3141,-3.9815,10.101,0.37599,0.23885,-0.15699
-0.73837,-1.4318,-4.9426,10.12,0.39431,0.20861,-0.22449
-0.79626,-1.0003,-5.2564,9.434,0.41233,0.17929,-0.30268
-0.84641,-0.64724,-4.9229,8.5514,0.40623,0.14569,-0.3262
-0.85748,-0.2942,-4.0207,9.0025,0.29963,0.089797,-0.32559
-0.89294,-0.17652,-3.55,9.2771,0.37018,0.012828,-0.34086
-0.87918,-0.05884,-3.8246,8.8652,0.42547,-0.067501,-0.41722
-0.87289,0.33343,-4.4914,8.0807,0.48381,-0.12187,-0.35613
-0.85178,0.86299,-4.9426,7.4531,0.53756,-0.12798,-0.46365
-0.81479,0.8826,-4.4914,7.5903,0.5959,-0.097738,-0.48442
-0.78568,0.23536,-4.6091,8.4926,0.65637,-0.055589,-0.50457
-0.73944,0.45111,-4.413,9.0417,0.67898,-0.0082467,-0.51954
-0.68512,0.49033,-4.158,9.1202,0.37538,0.036957,-0.50121
-0.64014,0.27459,-3.9423,9.1202,0.38271,0.044288,-0.46242
-0.60635,0.13729,-4.3149,8.7475,0.84696,0.76328,0.10201
-0.58112,0.82376,-4.4522,8.0611,0.62339,0.60812,0.092546
-0.55402,1.216,-3.8638,8.1787,0.4331,0.48747,0.34392
-0.54315,0.96105,-3.0401,7.4727,0.27061,0.39218,0.27367
-0.52338,0.86299,-2.4124,7.6296,0.20586,0.30971,0.21228
-0.52832,0.74531,-2.1378,7.6884,0.20311,0.25626,0.14936
-0.52051,0.8826,-2.2751,7.4923,0.17623,0.20372,0.10385
-0.52966,1.0787,-2.6674,7.7865,0.10507,0.15088,0.097738
-0.51355,1.0395,-2.6086,7.9238,-0.19426,-0.026573,0.009163
-0.48804,0.8826,-2.432,8.4926,-0.197,-0.053451,0.012523
-0.45468,0.43149,-1.6867,8.4926,-0.15241,-0.0562,0.012828
-0.4361,0.27459,-1.6671,8.7083,-0.077885,-0.036652,0
-0.39969,0.17652,-2.2751,8.5514,0.0054978,0.0018326,-0.011912
-0.37094,0.56879,-3.0793,8.8848,0.06353,0.045509,-0.013134
-0.35657,0.72569,-3.3146,9.179,0.079107,0.080329,-0.0054978
-0.31763,0.98067,-2.7851,9.434,0.059559,0.094684,0.0024435
-0.29758,0.60801,-2.4124,9.4732,0.022907,0.089797,0.016493
-0.27905,0.80415,-2.589,9.1986,-0.020159,0.072693,0.012217
-0.25244,1.0395,-2.8439,8.9437,-0.05681,0.057116,0.0094684
-0.22211,0.98067,-2.5693,8.8064,-0.079107,0.043066,0.0061087
-0.19989,1.0395,-2.5105,8.5514,-0.080329,0.029932,0.0030543
-0.17535,0.74531,-2.7262,8.3945,-0.063225,0.020159,0.0042761
-0.1651,0.66685,-2.7459,8.4141,-0.039706,0.025656,0.0058032
-0.16495,0.54917,-2.2751,8.9437,-0.012217,0.029627,0.010079
-0.15582,0.41188,-2.0986,9.1986,0.019242,0.027184,0.033903
-0.1553,0.2942,-1.824,9.179,0.051007,0.023213,0.027184
-0.15332,0.39227,-1.9809,8.9437,0.071166,0.029932,0.0030543
-0.13626,0.49033,-2.3732,8.6495,0.065363,0.036346,0.0039706
-0.14011,0.74531,-2.7459,8.4926,0.030543,0.036346,0.015577
-0.13962,0.49033,-2.4713,8.6887,-0.025962,0.029016,0.023213
-0.12485,0.54917,-2.2948,8.8652,-0.082161,0.015272,0.026267
-0.10699,0.49033,-2.0398,8.8652,-0.1237,-0.0030543,0.031154
-0.093994,0.2942,-2.0986,9.0221,0.20953,0.060476,0.020464
-0.081085,0.41188,-2.3732,8.8848,0.31765,0.1014,0.019853
-0.061829,0.43149,-2.4517,9.1202,0.37996,0.12339,-0.016799
-0.047821,0.56879,-2.4713,8.9437,0.38882,0.12737,-0.0064141
-0.034576,0.66685,-2.3732,9.0417,0.32956,0.10599,0.0027489
-0.033691,0.49033,-2.0594,9.0417,0.2193,0.073915,0.024435
-0.022156,0.41188,-1.9809,8.8064,0.089186,0.048869,0.030543
-0.024811,0.56879,-2.1575,8.9437,-0.044593,0.016493,0.022297
-0.025269,0.43149,-2.5105,8.8456,0.018326,0.034514,-0.0085521
-0.0045166,0.70608,-2.7262,8.7083,0.050091,0.041233,-0.012523
0.023682,0.49033,-2.3732,8.7083,0.060476,0.055589,-0.018326
0.027496,0.66685,-2.2751,8.8064,0.04612,0.066584,-0.016493
0.033478,0.66685,-2.2751,8.8652,0.0009163,0.069639,-0.01741
0.031555,0.66685,-2.2751,8.8652,-0.060476,0.069944,-0.016188
0.032715,0.66685,-2.2948,8.8652,-0.025962,0.063225,-0.014355
0.041504,0.45111,-2.2751,8.8848,-0.016188,0.033598,-0.012828
0.042542,0.54917,-2.3144,8.7083,-0.036346,-0.00061087,-0.013744
0.044342,0.64724,-2.2555,8.8064,0.024129,-0.017715,-0.02138
0.043152,0.60801,-2.0398,8.9437,0.061697,-0.011301,-0.021686
0.044952,0.43149,-2.2751,8.8652,0.065363,0.01069,-0.025351
0.043518,0.49033,-2.4517,8.9437,0.041539,0.029932,-0.023824
0.025543,0.49033,-2.3144,8.7083,0.0082467,0.037874,-0.017104
0.034302,0.45111,-2.1182,8.8064,-0.092852,0.032376,-0.01069
0.031769,0.49033,-2.1967,8.9437,-0.082467,0.022297,-0.0082467
0.032776,0.54917,-2.3144,8.8848,0.012828,0.029932,-0.012828
0.0177,0.45111,-2.5105,8.9044,0.042455,0.039401,-0.016493
0.031677,0.56879,-2.432,8.7083,0.041233,0.040012,-0.0045815
0.027466,0.54917,-2.3536,8.8064,0.014355,0.035125,-0.0061087
0.029968,0.49033,-2.1182,8.7475,-0.026267,0.025656,-0.0054978
0.012421,0.5884,-2.3144,8.7083,-0.059865,0.010385,-0.0039706
-0.0094299,0.43149,-2.432,8.8064,-0.073609,-0.0027489,-0.007025
-0.022552,0.56879,-2.432,9.0221,-0.069944,-0.0088575,-0.010079
-0.017731,0.60801,-2.2751,9.0025,0.0036652,-0.0076358,0.0045815
-0.043518,0.56879,-2.0006,9.1202,0.029016,-0.0018326,-0.012523
-0.054932,0.54917,-2.2751,8.9437,0.052229,0.0048869,-0.016188
-0.068451,0.74531,-2.432,8.8652,0.065363,0.011912,-0.01069
-0.082947,0.80415,-2.2751,8.8652,0.047037,0.022297,-0.007025
-0.097168,0.41188,-2.0006,9.0221,0.0018326,0.036041,-0.0054978
-0.10898,0.66685,-2.1378,8.8848,-0.051313,0.043982,0
-0.1022,0.49033,-2.1182,8.8064,-0.025045,0.039706,0.0076358
-0.10605,0.35304,-2.2948,8.9437,-0.083383,0.02138,-0.08094
-0.087952,0.49033,-2.687,8.9437,-0.10537,0.024435,-0.088881
-0.06427,0.60801,-2.2751,8.8652,-0.099571,0.018326,-0.022907
-0.04538,0.56879,-2.2163,8.8064,-0.054978,0.018021,-0.040623
-0.036194,0.43149,-2.1967,8.9437,0.019853,0.022907,-0.062003
-0.025726,0.54917,-2.4517,8.8652,0.092546,0.030543,-0.066584
-0.015656,0.54917,-2.2751,8.9437,0.12187,0.04215,-0.058643
-0.017578,0.35304,-2.2555,8.9044,0.10201,0.04948,-0.065668
-0.0083923,0.60801,-2.2751,8.7868,-0.036652,0.018326,-0.029627
-0.0039368,0.39227,-2.0986,8.8848,-0.045815,0.014661,-0.033598
0.0012817,0.56879,-2.2751,8.8456,-0.051618,0.0076358,-0.0051924
0.0062866,0.39227,-2.1967,8.9437,-0.055894,-0.00030543,-0.010079
0.0054932,0.35304,-2.3144,8.8652,-0.054367,0.0015272,-0.015272
0.013794,0.49033,-2.3144,9.0221,-0.050091,0.0054978,-0.018326
0.015808,0.70608,-2.2555,9.0417,-0.048258,0.0054978,-0.018631
0.019257,0.66685,-2.2555,9.0025,-0.04612,0.0058032,-0.024129
0.042542,0.66685,-2.4124,8.9437,-0.025656,0.007025,-0.045509
0.052979,0.66685,-2.2751,8.9044,-0.002138,0.0079412,-0.04612
0.069977,0.41188,-2.1378,8.9044,0.010079,0.015272,-0.03543
0.076202,0.5884,-2.3144,8.9437,-0.0042761,0.018937,-0.033292
0.086487,0.60801,-2.3732,8.8652,-0.04215,0.013744,-0.030238
0.096497,0.49033,-2.4124,9.0025,-0.084299,-0.0033598,-0.027794
0.1012,0.5884,-2.432,8.8652,-0.11148,-0.029322,-0.026267
0.099426,0.86299,-2.432,8.6495,-0.10904,-0.045815,-0.032376
0.081055,0.8826,-2.4124,8.7475,-0.085521,-0.047037,-0.025656
0.056335,0.86299,-2.3732,8.9044,-0.065363,-0.037568,-0.020159
0.024506,0.8826,-2.5105,8.9437,-0.062308,-0.035125,-0.035736
-0.013702,0.50995,-2.6674,9.0613,-0.073609,-0.04215,-0.022602
-0.052246,0.90221,-2.687,8.8064,-0.082772,-0.048869,-0.014661
-0.10263,0.8826,-2.6086,8.5906,-0.072693,-0.046426,-0.016188
-0.14774,0.76492,-2.8243,8.5514,-0.059254,-0.029016,-0.02474
-0.19513,0.74531,-2.3732,8.6299,-0.061697,-0.002138,-0.028405
-0.24695,0.5884,-1.9417,8.8456,0.40103,0.13958,0.15608
-0.28809,0.80415,-1.8829,8.4141,-0.002138,0.14661,0.098655
-0.31909,0.41188,-1.9809,7.9238,-0.072388,0.20708,-0.068722
-0.33875,0.60801,-2.0594,8.2572,0.036346,0.29474,-0.074831
-0.35818,0.17652,-1.6867,9.6694,0.26267,0.37171,-0.038179
-0.38464,0.17652,-1.824,10.474,0.53451,0.4328,0.015272
-0.41641,1.0591,-2.1182,9.0025,0.71929,0.44288,0.067806
-0.46167,1.5102,-1.8829,8.1591,0.66859,0.35247,0.12126
-0.5275,0.60801,-1.5691,8.1003,-0.050091,-0.29688,-0.10721
-0.58124,-2.0594,-2.3144,12.16,0.04948,-0.25229,-0.10507
-0.61557,-0.68647,-3.0793,11.846,0.077885,-0.22877,-0.10293
-0.63388,0.98067,-2.2751,8.1787,0.03879,-0.22938,-0.041844
-0.64816,-0.05884,-1.118,7.9434,-0.060781,-0.23854,-0.010996
-0.64908,-0.039227,-1.3533,7.9238,-0.20159,-0.2419,-0.027489
-0.64236,0.49033,-2.3732,8.4141,-0.33109,-0.24618,-0.058643
-0.60474,0.70608,-2.432,9.1594,-0.35705,-0.23427,-0.087659
-0.54813,0.76492,-2.1182,9.179,0.17654,-0.18112,0.048869
-0.4494,1.1376,-1.8044,9.0025,0.2926,-0.083383,-0.0082467
-0.36826,1.3533,-2.3144,8.316,0.29169,0.026267,-0.080023
-0.28168,1.5298,-2.8243,7.963,0.16646,0.11423,-0.031154
-0.20264,1.6083,-2.589,8.1003,0.016799,0.17868,0.027794
-0.14349,1.3729,-2.0006,8.1787,-0.083078,0.19334,0.060781
-0.10938,0.70608,-1.7456,8.2572,-0.23305,0.15669,0.067195
-0.074707,0.35304,-2.6282,8.2376,-0.015577,0.10263,0.071471
-0.054352,1.0395,-3.3931,8.5906,0.077885,0.06353,-0.019548
-0.056335,1.6475,-3.2558,9.3359,0.19517,0.061392,-0.037874
-0.053741,1.8633,-2.589,9.7478,0.31093,0.079107,-0.049175
-0.057953,2.3732,-1.6867,9.0417,0.3934,0.10476,-0.064141
-0.048035,2.6086,-1.9809,8.218,0.37965,0.13195,-0.075136
-0.098053,1.6867,-2.3732,8.0218,0.23488,0.14172,-0.074831
-0.12912,0.60801,-2.1967,8.5906,-0.094684,0.14997,-0.043677
-0.17096,-0.37265,-1.2553,9.2771,-0.025962,0.15241,-0.019853
-0.23886,-0.76492,-1.6475,9.4928,-0.65454,-0.20006,-0.085216
-0.2944,-0.5884,-2.7459,8.4926,-0.6298,-0.25901,-0.11148
-0.35175,0.039227,-2.2751,8.0022,-0.49908,-0.25107,0.044593
-0.40152,-0.27459,-1.5298,9.5321,-0.31612,-0.18601,-0.044288
-0.45276,-0.35304,-2.1575,10.768,-0.13836,-0.11026,-0.084605
-0.47162,0.039227,-2.1182,9.7478,0.040012,-0.046731,-0.094073
-0.49493,-0.23536,-1.7456,10.277,0.19609,0.0018326,-0.089797
-0.50839,0.56879,-0.70608,9.5713,0.29627,0.036652,-0.078802
-0.52155,0.90221,-0.11768,7.9042,0.43433,0.066279,0.050702
-0.50443,0.11768,-0.94144,7.61,0.55283,0.10293,0.09896
-0.47833,0.23536,-2.942,7.61,0.66859,0.15058,-0.11301
-0.41266,0.66685,-3.3931,8.316,0.73762,0.21441,-0.07086
-0.29742,0.19613,-3.0793,9.1202,0.74312,0.27978,-0.040317
-0.16855,0.078453,-3.0793,9.0613,0.69822,0.3259,-0.03146
-0.031464,0.70608,-3.6677,8.4337,0.6524,0.35522,-0.010079
0.087677,1.118,-4.2561,8.316,0.66432,0.36255,0.018937
0.18521,1.1964,-3.7265,8.3945,0.75045,0.35003,0.002138
0.24527,1.4318,-3.3146,8.7083,0.88026,0.34453,-0.14111
0.26248,1.5495,-2.687,8.1199,1.0452,0.34117,0.12187
0.2493,1.6867,-2.2751,8.0807,1.1985,0.38515,0.072388
0.21451,1.6083,-1.8044,8.316,1.2905,0.45907,0.00061087
0.17221,1.5298,-1.6671,8.6299,1.2953,0.4893,0.017715
0.13562,0.92183,-1.9809,9.179,1.0586,0.3543,0.079412
0.094086,0.74531,-3.3931,9.6497,0.74526,0.088881,0.093157
0.041138,1.4318,-3.0793,9.434,0.59132,-0.19395,-0.12737
-0.031586,-0.11768,-1.6867,10.944,0.68875,-0.34178,-0.12248
-0.10785,-0.5884,-2.0006,12.199,0.90622,-0.31521,-0.26389
-0.19864,1.0787,-3.1381,9.8066,1.0495,-0.17898,-0.34911
-0.285,1.8437,-2.3144,7.9238,1.0128,-0.037568,-0.35155
-0.35062,1.1964,-0.56879,7.8453,0.85155,0.033292,-0.28069
-0.39893,0.49033,-0.25497,8.3945,0.68081,0.036957,-0.19914
-0.41678,0.41188,-0.39227,8.5514,0.53237,0.013439,-0.14722
-0.41486,0.56879,-0.80415,8.8064,-0.050396,-0.21533,-0.029627
-0.35608,0.66685,-1.3337,8.4337,-0.46976,-0.30055,-0.014966
-0.28964,0.72569,-0.86299,8.6299,-0.80023,-0.34392,0.0281
-0.21149,0.8826,-1.0591,8.8064,-0.86926,-0.31765,-0.014966
-0.15271,0.74531,-0.72569,8.8848,-0.69914,-0.23182,-0.062614
-0.096893,0.74531,-0.31381,8.7475,-0.39676,-0.085827,-0.10507
-0.06485,0.60801,-0.23536,9.0417,-0.085521,0.045815,-0.11423
-0.033478,0.56879,-1.5102,9.0417,0.13378,0.13195,-0.064141
0.0031128,0.41188,-2.7459,9.0025,0.096822,0.20097,-0.015882
0.032379,0.19613,-1.824,9.7282,-0.22052,0.23366,-0.012217
0.053162,-0.5884,-0.94144,10.12,-0.53145,0.20311,0.045815
0.059692,-0.35304,-1.4318,10.611,-0.75075,0.12767,0.089797
0.058868,0.27459,-2.0986,10.572,-0.84086,0.044593,0.07025
0.01062,1.5298,-1.824,7.6296,-0.81764,0.0054978,0.033292
-0.054657,1.3925,-1.824,9.5125,0.27306,0.01069,-0.0015272
-0.11081,0.66685,-1.118,11.219,0.2868,0.026573,-0.019548
-0.15033,1.3533,0.62763,10.591,-0.45357,0.053145,-0.19945
-0.20261,1.824,0.52956,8.6299,-0.29841,0.078802,-0.22663
-0.23969,1.7456,-1.0395,7.2765,-0.14325,0.087965,-0.0045815
-0.26321,1.5298,-1.824,7.3354,-0.029322,0.097433,0.0064141
-0.23853,1.118,-2.0398,8.5514,0.029322,0.11087,0.0042761
-0.1965,0.56879,-1.2553,9.0417,0.13592,0.14783,-0.029932
-0.13223,0.2942,-0.80415,9.179,-0.7141,0.20342,-0.10079
-0.064148,0.23536,-1.0591,8.8652,-0.58765,0.21044,-0.16218
-0.0013733,0.41188,-1.5691,8.3945,-0.52473,-0.25595,0.013744
0.070435,0.27459,-1.9613,8.0611,-0.45448,-0.26939,0.021991
0.12897,0.27459,-2.2751,8.5318,-0.22327,-0.21228,-0.024129
0.1777,0.27459,-2.6086,9.179,0.040012,-0.12675,0.0015272
0.20914,0.60801,-3.0989,9.5713,0.20097,-0.085521,-0.0030543
0.22711,0.96105,-3.5304,9.4928,0.39584,-0.043371,-0.053756
0.23315,0.54917,-2.589,10.925,0.46731,-0.060476,-0.067501
0.2291,0.2942,-0.43149,13.2,0.27703,-0.14508,-0.019853
0.18918,0.92183,0.52956,11.631,-0.29047,-0.24984,0.022602
0.1283,1.6867,-0.8826,7.9434,-0.13928,-0.18876,-0.017715
0.07019,1.9221,-1.9613,6.0409,0.023213,-0.040012,-0.025962
3.0518e-05,1.2945,-2.4713,6.9823,0.13286,0.15547,-0.040623
-0.048157,0.80415,-2.1967,8.7475,0.14264,0.32559,-0.026267
-0.07605,0.86299,-2.4124,8.4926,0.03879,0.42272,0.0054978
-0.088165,0.72569,-2.7655,7.2961,-0.083689,0.43066,0.030849
-0.081543,0.82376,-2.1575,7.1196,-0.092852,0.35766,0.035736
-0.1008,0.11768,-0.43149,8.5318,0.079107,0.25809,-0.010079
-0.14972,-0.70608,-0.80415,9.1202,0.3375,0.2364,-0.03879
-0.1972,-1.9417,-2.2751,10.827,0.52321,0.2755,-0.07025
-0.22717,-1.9417,-1.9809,14.455,0.56322,0.29322,-0.077885
-0.20068,0.35304,-1.8829,10.689,0.47037,0.26725,-0.042455
-0.19357,1.1768,-1.3337,6.845,0.29963,0.18479,-0.009163
-0.16562,0.5884,-0.80415,6.5508,0.10599,0.081245,0.010996
-0.10092,0.98067,-1.0591,8.316,-0.068111,-0.01405,0.011606
-0.021729,1.216,-2.3732,10.454,0.31398,0.11423,-0.062614
0.069733,1.0199,-2.6086,10.12,0.040928,-0.15944,-0.071777
0.15833,1.0395,-1.6475,9.2575,-0.18815,-0.41233,0.098044
0.23938,0.86299,-1.8829,8.6299,-0.24099,-0.46884,0.03879
0.2995,1.3925,-2.6086,8.4141,-0.24038,-0.38332,-0.027184
0.35483,1.9221,-2.2751,7.4334,-0.27489,-0.28283,-0.046426
0.38367,1.216,-1.471,7.2373,-0.27733,-0.2022,-0.053756
0.39447,0.80415,-1.3533,7.9238,-0.23946,-0.14416,-0.052229
0.41165,0.56879,-2.8439,9.0417,-0.20311,-0.10904,0.062308
0.40933,1.1964,-3.2558,10.12,-0.23732,-0.12004,0.015577
0.42874,0.80415,-2.3144,10.572,-0.29077,-0.14661,-0.075136
0.43616,0.66685,-1.471,10.219,-0.29505,-0.15699,-0.076358
0.42224,0.43149,-1.3141,9.9636,-0.27245,-0.15394,-0.032681
0.40131,0.80415,-1.8829,9.0613,-0.28008,-0.1518,0.033903
0.38199,0.74531,-2.2948,8.7475,-0.34117,-0.18234,0.080329
0.37936,0.98067,-2.3732,8.5514,-0.39034,-0.2364,0.089797
0.36838,1.0199,-1.8829,8.7475,-0.057116,-0.092852,0.11698
0.37265,0.86299,-1.471,9.0417,-0.073609,-0.067195,0.085521
0.37711,0.86299,-1.1768,9.0613,-0.18998,-0.027794,0.030849
0.36865,0.90221,-1.5102,8.8064,-0.3427,-0.01741,0.065057
0.36902,0.96105,-2.1967,8.5318,-0.44838,-0.059254,0.11179
0.35226,0.56879,-1.7456,9.1202,-0.4499,-0.13683,0.15333
0.34772,0.56879,-1.3533,9.7282,-0.2303,-0.21564,0.16524
0.34,0.80415,-1.118,9.6301,-0.13256,-0.2532,0.14936
0.31125,0.76492,-0.86299,9.179,-0.10201,-0.219,0.055283
0.27853,0.23536,-0.80415,9.4732,-0.036652,-0.14416,0.0082467
0.24265,0.45111,-1.3533,9.3555,-0.0076358,-0.062308,0.083689
0.21191,0.41188,-1.2553,9.0613,-0.032681,0.010996,0.089492
0.18457,0.54917,-0.86299,9.0613,-0.10263,0.06689,0.085827
0.15677,0.25497,-0.70608,9.179,-0.17287,0.098044,0.091324
0.12814,0.27459,-0.90221,9.179,-0.34972,0.094073,0.097128
0.11664,0.56879,-1.3729,9.2183,-0.20831,0.053756,0.081245
0.11646,0.54917,-1.3337,9.1202,-0.19456,-0.030238,0.034514
0.12222,0.49033,-1.2553,9.5125,-0.25107,-0.054367,-0.033292
0.14227,0.90221,-1.9025,9.3359,-0.2926,-0.054978,0.037263
0.15793,1.0395,-2.0006,9.0221,-0.30757,-0.043677,0.034514
0.18576,0.70608,-1.4318,9.0417,-0.27519,-0.019853,0.04612
0.18289,0.72569,-1.3533,9.2575,-0.24893,-0.0094684,0.069028
0.19128,0.56879,-1.471,9.2575,-0.27245,-0.039095,0.09163
0.19434,0.90221,-1.8044,9.0417,-0.30116,-0.075747,0.09499
0.19144,0.74531,-1.1964,9.179,-0.13347,-0.077274,0.026267
0.19922,0.56879,-0.72569,9.5909,-0.10629,-0.040012,0.019853
0.19666,0.5884,-1.3533,9.3359,-0.14722,0.020464,-0.044593
0.19376,1.0395,-2.2751,8.7475,-0.21961,0.064141,-0.02138
0.17734,1.0591,-2.4713,8.3749,-0.28375,0.074526,0.0076358
0.14392,1.1768,-1.9809,8.3749,-0.28894,0.039401,0.03207
0.099579,0.98067,-1.6279,8.7083,-0.2813,-0.028405,0.051007
0.057922,1.6083,-2.1967,9.179,-0.21411,-0.079718,0.045815
0.0072937,2.0594,-3.3735,9.3359,0.10996,0.16463,-0.089186
-0.0058289,2.1182,-4.1972,9.434,0.31093,0.24709,-0.10904
0.0040894,2.0006,-3.5304,8.7083,0.58613,0.39676,0.07758
-0.0061951,1.3533,-2.4517,8.316,0.5678,0.55467,0.12767
-0.034515,0.45111,-1.1768,8.8456,0.2138,0.48197,0.15852
-0.086365,0.11768,-0.70608,9.3555,-0.23396,0.21472,0.13714
-0.17621,0.27459,-0.72569,7.9434,-0.50213,-0.093768,0.069944
-0.2865,-0.11768,-0.8826,6.8647,-0.49999,-0.24374,-0.0024435
-0.36874,-2.0986,-0.52956,10.611,-0.077885,0.1066,0.053756
-0.43433,-2.5301,-0.41188,12.553,0.25626,0.25565,0.058338
-0.47104,-1.1572,-1.0199,9.3359,0.6017,0.37018,-0.135
-0.48611,0.17652,-1.3337,6.9823,0.93401,0.46548,-0.12706
-0.48053,0.39227,-1.5102,6.139,1.1713,0.53787,-0.10965
-0.46567,0.49033,-1.3533,7.3158,1.0785,0.44807,-0.045509
-0.43521,0.2942,-1.824,9.0221,0.69425,0.208,0.0054978
-0.40073,-0.039227,-0.39227,11.415,0.25962,-0.039095,0.015882
-0.35645,-0.13729,0.76492,12.337,-0.31521,-0.24557,0.064141
-0.32367,0.41188,-0.17652,12.396,-0.47525,-0.40653,0.062308
-0.28329,1.2356,-1.1768,11.14,-0.53329,-0.46578,0.041233
-0.26114,1.8633,-1.0003,9.3752,-0.58124,-0.43646,0.023213
-0.24579,1.824,-1.1768,8.316,-0.66371,-0.38851,0.03543
-0.22537,1.5298,-1.6279,7.7865,-0.71532,-0.35797,0.065973
-0.20575,1.1768,-2.1967,7.4531,-0.6915,-0.32651,0.08094
-0.16321,0.90221,-1.8437,7.7473,-0.63469,-0.24832,0.075442
-0.13437,0.8826,-1.5102,8.5514,-0.49266,-0.16035,0.067501
-0.11462,0.66685,-2.5693,9.5909,-0.26909,-0.076358,0.044288
-0.12582,0.86299,-2.6674,8.5514,-0.030543,0.023824,0.065057
-0.15784,0.60801,-1.6475,5.1387,0.13317,0.12065,0.057727
-0.17181,-1.7652,-0.49033,10.375,0.20342,0.18906,0.054672
-0.17374,-1.2945,-1.0983,12.337,0.16829,0.23121,0.067195
-0.16153,0.66685,-1.5887,8.9437,0.065057,0.22113,0.078802
-0.14197,0.43149,-1.118,8.0807,0.022602,0.16493,0.0956
-0.12753,0.23536,-1.118,8.8456,-0.3262,-0.25656,-0.1854
-0.08847,0.74531,-2.1967,9.3359,-0.28588,-0.27489,-0.16188
-0.05249,0.74531,-2.3144,9.5125,-0.19426,-0.27245,-0.15913
-0.0056152,0.72569,-1.6671,9.5713,-0.10721,-0.26481,-0.17501
0.017303,0.56879,-0.5884,9.5125,-0.058948,-0.26298,-0.17043
0.038727,0.27459,-0.5884,9.0613,-0.043371,-0.25595,-0.17471
0.063019,0.39227,-1.7456,9.1202,-0.0085521,-0.22602,-0.18143
0.1011,1.0591,-1.9809,9.179,0.08491,-0.15882,-0.1854
0.12979,0.76492,-1.6671,9.689,0.22846,-0.068722,0.036041
0.15747,0.76492,-1.4318,9.6694,0.18265,0.0094684,0.10537
0.19675,0.70608,-1.7848,9.689,0.21197,0.051313,-0.14661
0.24149,0.98067,-1.9809,9.4928,0.35705,0.068417,-0.15394
0.28391,1.118,-2.4124,9.1594,0.59895,0.1014,-0.16524
0.31564,1.118,-2.3536,9.1202,0.8094,0.14019,-0.18479
0.31134,1.1964,-2.5105,8.9044,0.1854,0.19395,-0.15882
0.27487,0.8826,-1.8437,8.0807,0.24038,0.24435,-0.073304
0.23193,1.118,-1.3533,7.8061,0.34117,0.23579,-0.0054978
0.19012,0.80415,-1.0395,8.4729,0.12187,0.14966,0.017715
0.16336,1.118,-1.4906,8.2572,-0.036041,0.051007,0.12431
0.15036,0.76492,-1.0591,8.8064,-0.083689,-0.00030543,0.11057
0.15256,0.25497,-0.39227,10.003,0.021686,-0.021991,0.064141
0.15204,0.23536,-0.31381,10.277,0.22999,-0.034208,0.031765
0.14191,0.5884,-1.0003,9.4144,0.80146,-0.011912,0.018631
0.10922,0.66685,-1.9613,9.0025,0.59956,0.062003,0.0033598
0.068634,0.8826,-2.1575,9.1202,0.34392,0.13958,0.0956
0.031708,0.8826,-1.216,9.5713,0.14936,0.16554,0.085216
-0.0020752,0.56879,-0.39227,9.6497,-0.041844,0.12828,0.07086
-0.040863,0.66685,-0.56879,9.3555,-0.14447,0.053451,0.11942
-0.059204,1.0199,-1.1572,8.8652,-0.15516,-0.030238,0.14569
-0.090027,0.90221,-1.6475,8.5514,-0.11851,-0.083994,0.14233
-0.10794,1.1964,-1.3729,8.6299,0.41386,-0.092852,0.12156
-0.10468,0.98067,-0.94144,8.6887,0.45326,-0.074526,0.10446
-0.11322,1.1768,-0.86299,8.4141,0.4215,0.3653,0.053756
-0.11597,1.0199,-1.4318,8.2768,0.4328,0.32956,-0.071471
-0.10669,0.96105,-1.5691,8.5514,0.29047,0.17807,0.29474
-0.10782,1.0591,-1.5691,8.9437,0.19792,0.061087,0.36957
-0.10144,0.66685,-1.6867,9.6497,0.17593,0.054367,0.34636
-0.082397,0.98067,-1.5691,10.925,-0.00061087,-0.067195,0.27153
-0.083008,1.3337,-1.6475,11.297,-0.32529,-0.32345,0.22327
-0.056793,1.6867,-1.6671,10.768,-0.63194,-0.56963,0.1686
-0.02356,2.432,-1.3729,9.6694,-0.5452,-0.6072,-0.043677
0.0022278,2.0006,-1.4318,8.9044,-0.3204,-0.47586,-0.023213
0.032806,1.7652,-1.5691,8.8848,-0.11729,-0.31093,-0.086437
0.063751,1.7652,-1.3337,9.689,0.051924,-0.17196,-0.078496
0.073181,1.1964,-0.80415,8.5318,0.15302,-0.048564,-0.081856
0.087921,0.90221,-1.1572,7.6492,0.15302,0.047647,-0.07758
0.086761,0.35304,-0.96105,8.1003,0.03207,0.10263,-0.075136
0.042114,-1.8437,-0.31381,9.9439,-0.13683,0.10873,-0.063835
-0.03476,-2.334,-1.1768,8.4337,-0.26023,0.08094,0.11545
-0.1004,-2.8635,-0.72569,10.611,-0.28314,0.036957,0.10721
-0.14401,-1.9417,-0.86299,12.729,-0.24771,0.018937,-0.015272
-0.15753,0.039227,-2.0594,8.1787,-0.19456,0.029322,-0.036041
-0.15891,0.41188,-1.7848,6.4332,-0.11179,0.029627,-0.041233
-0.14999,0.27459,-0.94144,7.0019,-0.020769,0.02474,0.0027489
-0.12372,0.74531,-0.54917,8.5318,0.04612,0.01741,0.061087
-0.092163,0.60801,-0.72569,9.434,0.078496,0.0048869,0.10201
-0.03772,0.98067,-1.6279,9.3359,0.19853,-0.0079412,0.08491
0.043304,1.4906,-1.824,9.3163,0.082772,-0.002138,0.044593
0.1358,1.3533,-1.824,9.8263,0.078191,0.01069,0.10232
0.23441,1.2356,-1.7848,9.9636,0.064141,0.035736,0.11301
0.30951,1.2945,-1.6671,9.689,0.053756,0.067806,0.12278
0.36359,1.6083,-1.471,9.0025,0.083994,0.092241,0.11301
0.38361,1.5887,-1.1768,8.316,0.14447,0.10599,0.098044
0.37323,1.3533,-1.3533,9.3359,0.19181,0.10599,0.097433
0.33945,1.3533,-1.9809,10.474,0.10476,0.078191,-0.032376
0.28876,1.3925,-1.9809,10.199,0.11668,0.12248,-0.033598
0.20496,1.6083,-1.5691,7.3158,0.11362,0.14569,-0.15547
0.11169,0.039227,-1.3729,10.591,0.080023,0.14783,-0.10751
0.038818,-0.05884,-1.118,11.925,0.0045815,0.14661,-0.06353
-0.018555,1.1376,-0.80415,9.4732,-0.089492,0.14172,-0.025351
-0.068359,0.92183,-0.17652,7.1589,0.06353,0.12614,-0.011301
-0.10699,0.92183,-0.54917,6.9823,0.083994,0.10354,-0.019853
-0.10004,1.8044,-1.6867,8.0022,-0.12645,0.097738,0.056505
-0.07843,2.0006,-1.9417,8.8652,-0.06017,0.10873,0.074831
-0.010742,1.5298,-1.5102,9.0417,0.018021,0.10507,-0.019853
0.059235,1.118,-1.5691,9.2575,0.091019,0.1127,-0.023518
0.11765,1.3337,-1.9809,9.0417,0.13134,0.14142,-0.048564
0.16245,1.5298,-1.824,8.7083,0.12156,0.16432,-0.051313
0.1861,0.80415,-1.7848,8.7083,-0.15272,0.17532,-0.02138
0.20801,0.43149,-1.824,9.3555,-0.16249,0.15882,0.018631
0.20145,0.41188,-1.824,9.689,-0.18387,0.12126,-0.018937
0.18469,0.70608,-1.5887,9.2771,-0.3146,0.072388,-0.053451
0.1644,0.86299,-1.1768,8.9437,-0.40867,0.039706,0.065363
0.13367,0.49033,-0.62763,8.8652,-0.39737,0.018937,0.051924
0.10327,0.17652,-0.49033,9.0417,-0.26725,-0.0085521,0.046731
0.07193,0.098066,-0.56879,9.3359,-0.11973,-0.027794,0.044899
0.054718,0.039227,-0.86299,9.179,0.047953,0.0009163,0.036346
0.048828,-0.37265,-1.1768,9.0417,-0.064446,0.069028,0.012217
0.055817,0.13729,-1.4906,8.8848,0.0045815,0.15608,-0.1799
0.089325,0.23536,-0.96105,9.1986,0.0281,0.17929,-0.18845
0.14117,0.17652,-0.49033,9.6694,0.031765,0.17287,-0.12523
0.19864,0.80415,-0.54917,9.7478,0.032376,0.14966,-0.12859
0.24652,1.9809,-1.1572,9.9636,0.03207,0.11637,-0.13103
0.30325,2.6086,-1.9809,10.199,0.040623,0.084605,-0.13531
0.35373,2.6086,-3.0008,9.7478,0.04948,0.060476,-0.15882
0.38568,2.9028,-2.9224,9.0025,0.052534,0.053756,-0.16799
0.37668,2.2751,-2.6086,8.5318,0.27672,0.24343,-0.044288
0.34113,0.90221,-1.8044,9.8066,0.10904,0.20403,-0.027184
0.25012,-0.35304,-0.54917,10.062,-0.0956,0.15149,0.032987
0.12186,-0.70608,-0.098066,7.0608,-0.25717,0.092852,0.040623
-0.0015259,-2.2751,-0.23536,7.6884,-0.32437,0.029016,0.04612
-0.087555,-1.9025,-1.471,10.611,-0.27489,-0.01741,0.044288
-0.1312,0.039227,-1.9025,9.179,-0.12553,-0.010996,0.010385
-0.15399,0.23536,-1.2553,8.218,0.057116,0.044593,-0.033598
-0.14819,0.35304,-1.118,6.6097,0.20586,0.10934,-0.058643
-0.13983,0.50995,-2.432,7.4727,0.2865,0.16035,-0.058032
-0.084503,0.72569,-2.4124,10.199,0.28253,0.18601,-0.021075
0.0028992,-0.50995,-0.31381,12.474,0.20372,0.17837,-0.021991
0.116,0.41188,-0.098066,12.082,0.098655,0.14233,-0.020769
0.24149,1.9025,-1.5691,10.356,0.025656,0.089797,-0.02474
0.38663,2.1378,-2.3144,8.4141,-0.00061087,0.048564,-0.036957
0.51956,1.3337,-2.0006,7.7669,0.0009163,0.030238,-0.051618
0.60309,0.49033,-1.9025,7.9434,-0.50121,-0.26542,0.18387
0.63998,0.66685,-2.2163,7.9434,-0.90744,-0.48594,0.17501
0.66226,0.98067,-3.3735,7.4923,-1.062,-0.5623,-0.04948
0.68634,1.3533,-3.7854,8.0807,-0.94928,-0.49175,-0.13195
0.70596,1.1964,-2.8243,8.7083,-0.7367,-0.36896,-0.10293
0.7103,0.82376,-1.5691,9.3359,-0.55986,-0.25015,-0.015577
0.69141,0.8826,-1.1572,9.3752,-0.45296,-0.17257,0.081551
0.6355,0.74531,-1.6671,9.1986,-0.42272,-0.13958,0.15638
0.56912,0.80415,-2.6282,8.9437,-0.45235,-0.12034,-0.040623
0.51724,1.118,-2.9224,9.0025,-0.52046,-0.085521,0.0073304
0.46841,1.0591,-2.5693,9.1986,-0.51313,-0.07422,0.14325
0.41727,0.82376,-2.0398,9.434,-0.35858,-0.067501,0.087659
0.37271,0.80415,-1.824,9.5713,-0.11454,0.0073304,-0.0079412
0.33139,0.5884,-1.9613,9.3359,0.14019,0.11179,-0.09163
0.2919,0.60801,-2.0986,9.0417,0.31398,0.20097,-0.12004
0.2608,0.56879,-2.432,8.5514,0.35613,0.24893,-0.094379
0.24057,0.66685,-2.3732,8.7083,-0.068417,0.093768,-0.01069
0.23761,0.5884,-1.9417,9.1202,-0.083689,0.097433,-0.002138
0.24731,0.66685,-1.6475,9.179,-0.098044,0.078802,0.015882
0.23962,0.8826,-1.824,9.0417,-0.087048,0.047037,0.029627
0.23416,0.90221,-1.8829,8.8456,-0.036957,0.01741,0.032681
0.22528,0.72569,-2.0594,8.6887,0.039706,0.0015272,0.033292
0.21576,0.74531,-2.3144,8.7279,-0.07422,0.0088575,0.015272
0.19653,0.98067,-2.3732,8.6299,-0.061392,0.038485,-0.0061087
0.17654,0.98067,-2.0986,8.7475,0.0076358,0.036957,-0.019853
0.14349,0.98067,-1.9809,9.0221,0.0042761,0.010996,-0.014966
0.11642,0.90221,-1.9809,9.2183,0.04215,-0.0030543,-0.050091
0.09726,0.56879,-2.2751,9.2575,0.085827,-0.011301,-0.04612
0.09433,0.39227,-2.1378,9.2575,0.084605,-0.039401,-0.024129
0.088165,0.41188,-1.9613,9.0417,0.047342,-0.079718,-0.0073304
0.080994,0.70608,-1.8437,8.8456,0.0054978,-0.1014,-0.013439
0.069305,0.70608,-1.7848,8.5514,-0.020769,-0.097738,-0.020159
0.052673,0.72569,-1.3533,8.8064,-0.025962,-0.076664,-0.046426
0.049408,0.39227,-1.7456,8.9633,-0.011912,-0.049175,-0.03543
0.033691,0.90221,-2.432,8.8652,-0.00030543,-0.038179,0.00061087
0.025818,0.76492,-2.3536,8.8064,-0.0085521,-0.050091,0.034208
0.014587,1.118,-1.824,8.7279,-0.02138,-0.071471,0.052534
-0.0112,0.92183,-1.5102,8.9437,-0.00030543,-0.068111,0.022297
-0.029572,0.98067,-1.6671,8.8456,0.056505,-0.036346,-0.027794
-0.049774,1.1964,-1.8437,8.8848,0.12126,0.01069,-0.050702
-0.065613,1.1964,-1.9417,8.8652,0.062003,0.053756,-0.021686
-0.088531,0.98067,-1.8829,9.179,-0.014355,0.080634,-0.0097738
-0.10074,0.80415,-2.0986,9.3163,-0.065668,0.071166,-0.025351
-0.11569,0.98067,-2.5105,9.0417,-0.090408,0.046731,-0.021686
-0.12039,1.118,-2.1967,8.8652,-0.096517,0.033292,-0.025656
-0.13324,0.98067,-1.824,9.0417,-0.094379,0.036041,-0.029322
-0.13651,0.70608,-1.5691,9.1202,0.15394,0.052534,-0.029322
-0.14078,0.86299,-2.0594,8.8652,0.13195,0.073609,-0.025351
-0.14673,0.80415,-2.2751,8.8652,0.1127,-0.025045,-0.079107
-0.14172,0.70608,-1.9809,9.0417,0.24374,0.029322,-0.092241
-0.15118,0.49033,-1.5102,8.6299,0.33598,0.069333,-0.054672
-0.14642,0.80415,-1.5298,9.0025,0.3824,0.085827,-0.048564
-0.16449,0.41188,-2.0006,9.6694,0.39065,0.083994,-0.047037
-0.17548,0.49033,-2.7459,9.9636,0.37843,0.078802,-0.047647
-0.2204,0.92183,-2.8243,6.845,0.37202,0.076969,-0.054672
-0.25885,-0.39227,-2.0594,9.9439,0.40134,0.069944,-0.065057
-0.29721,-0.17652,-1.2553,11.219,-0.0042761,-0.0085521,-0.025045
-0.32773,0.74531,-0.94144,8.8652,-0.1237,-0.058338,-0.0048869
-0.36371,0.39227,-1.4318,7.61,-0.15547,-0.074831,-0.0045815
-0.39313,0.56879,-2.3144,7.7865,-0.092546,-0.052229,-0.067195
-0.38397,0.82376,-2.687,8.4926,0.031765,-0.0030543,-0.10079
-0.37253,0.76492,-2.2948,9.1594,0.16188,0.053756,-0.09896
-0.33395,0.39227,-1.9025,9.3555,0.23182,0.099266,-0.077885
-0.28574,1.0395,-2.2751,8.7475,0.22449,0.11637,-0.051007
-0.2338,1.1964,-2.4713,8.6299,0.091935,0.099876,-0.076053
-0.18414,1.2945,-2.3732,8.8064,0.0064141,0.072693,-0.059559
-0.15311,0.90221,-1.8829,8.9437,-0.059254,0.050091,-0.0018326
-0.11481,0.90221,-1.6867,9.1006,-0.091019,0.022907,-0.0045815
-0.095886,0.80415,-1.8437,9.0613,-0.058643,-0.0088575,-0.0064141
-0.072693,0.56879,-2.3732,9.0221,0.027184,-0.027184,-0.028711
-0.04837,0.98067,-2.6282,9.0417,0.12798,-0.020159,-0.058643
-0.014923,0.90221,-2.2751,9.179,0.21991,-0.0024435,-0.078191
0.0054932,0.8826,-1.5691,9.0613,0.27184,0.012523,-0.054367
0.016022,0.70608,-1.3729,9.179,0.26817,0.018021,-0.06017
0.022797,0.8826,-1.9417,8.7083,0.20433,0.018631,-0.047037
0.03067,1.118,-2.7262,8.7083,0.076664,0.01405,-0.034208
0.042633,0.82376,-2.687,8.7083,-0.065973,-0.0073304,-0.019242
0.03479,0.74531,-2.0006,9.1594,-0.14416,-0.044288,-0.007025
0.013977,0.72569,-1.6475,9.2575,-0.12217,-0.072388,-0.014355
-0.003418,0.86299,-1.8437,8.9437,-0.024129,-0.065668,-0.037874
-0.028046,0.92183,-2.0594,8.8652,0.55497,0.25809,-0.023824
-0.059601,0.92183,-1.6475,9.0417,0.43097,0.17379,-0.013134
-0.09079,0.41188,-1.0395,9.1594,0.19426,0.018326,0.1069
-0.14456,0.66685,-0.5884,9.179,-0.10996,-0.14111,0.12401
-0.19992,0.72569,-0.39227,9.5125,-0.40073,-0.2529,0.079107
-0.2695,0.98067,-1.1572,9.179,-0.58185,-0.29108,0.03207
-0.32874,0.80415,-2.2163,10.062,-0.62644,-0.26237,-0.0033598
-0.366,0.66685,-1.7456,10.042,-0.58215,-0.20403,-0.023824
-0.40491,0.86299,-0.72569,9.3359,-0.31368,-0.13134,-0.13439
-0.43854,0.70608,-0.17652,8.7083,-0.25504,-0.0562,-0.16066
-0.47394,1.0199,-1.118,7.9434,-0.18265,0.013744,-0.0051924
-0.51144,1.1964,-1.471,7.7865,-0.12767,0.036346,-0.0097738
-0.48306,0.43149,-1.7456,9.4732,-0.09896,0.048258,-0.045204
-0.45404,0.41188,-0.86299,10.317,-0.051618,0.089186,-0.11912
-0.42618,0.11768,-0.74531,10.768,-0.51007,0.12401,-0.14936
-0.39047,1.216,-0.86299,9.8459,-0.41233,0.1518,-0.13531
-0.37036,1.4318,-1.3729,8.4926,0.011606,0.18418,0.025962
-0.34058,1.6083,-1.5298,7.9042,-0.00030543,0.22724,0.089492
-0.31299,1.118,-1.6475,8.0807,-0.051618,0.26389,-0.17837
-0.28546,1.3337,-1.9809,8.7083,-0.12492,0.28039,-0.15608
-0.24796,1.5495,-1.9809,9.3555,-0.17654,0.26237,-0.12065
-0.20169,1.6475,-1.8829,8.7279,-0.18998,0.21716,-0.076969
-0.18152,1.6083,-1.5691,8.7868,-0.01069,0.16249,-0.040928
-0.15356,0.98067,-0.84337,8.8064,0.0054978,0.10446,-0.018937
-0.16071,0.35304,-0.49033,9.1986,-0.19761,0.034514,0.026878
-0.17493,0.039227,-0.39227,9.4928,-0.13134,-0.034514,0.040317
-0.2081,-0.70608,-0.43149,9.8459,-0.025045,-0.085216,0.1069
-0.22391,-0.13729,-1.4318,10.689,0.041844,-0.097128,0.075136
-0.23657,-0.54917,-2.2555,10.787,0.068722,-0.12462,0.071471
-0.23318,-0.76492,-1.471,11.317,-0.01069,-0.17135,0.097433
-0.22287,-0.17652,-0.39227,10.513,-0.19761,-0.22633,0.085827
-0.23535,0.27459,0.13729,8.7083,-0.19334,-0.30452,0.045204
-0.25705,0.80415,0.039227,7.1589,0.37385,0.28405,-0.1237
-0.26962,0.019613,-1.6475,7.1785,0.28161,0.21869,-0.10843
-0.25543,-0.27459,-2.1378,8.3945,0.12401,0.14355,-0.010079
-0.22589,-0.45111,-2.3144,9.3555,-0.00030543,0.089492,-0.062614
-0.16846,-0.33343,-2.2751,9.9832,-0.05284,0.069944,-0.097433
-0.10913,0.35304,-1.6475,9.8851,-0.048258,0.07086,-0.1069
-0.042572,0.78453,-1.3533,9.8851,-0.0061087,0.08491,-0.11179
0.024017,0.90221,-1.3533,9.6301,0.067195,0.10996,-0.12004
0.085602,1.3533,-1.7848,9.1986,0.13195,0.12737,-0.038485
0.1091,2.1771,-2.0986,8.7083,0.0956,0.12553,-0.039401
0.12674,2.7655,-2.0594,8.6299,0.048564,0.10324,-0.083689
0.13336,2.5497,-1.5298,8.7083,-0.002138,0.067806,-0.058032
0.1304,2.4517,-1.1572,8.7475,-0.061087,0.02138,-0.021075
0.1319,2.1575,-1.6279,8.5514,-0.10324,-0.028405,-0.0033598
0.13205,1.6867,-2.1378,8.5514,-0.10415,-0.051007,-0.018937
0.13861,1.3533,-2.0594,8.9437,-0.070555,-0.044593,-0.033598
0.13269,0.72569,-1.5102,9.4732,-0.029016,-0.037263,0.089797
0.13254,0.5884,-1.6475,9.7478,0.021991,-0.029322,0.20403
0.11206,0.60801,-2.0006,9.179,0.064752,0.002138,-0.034514
0.099426,0.50995,-1.8829,8.7083,0.049786,0.050396,-0.022602
0.078522,0.49033,-1.726,8.7279,0.02474,0.096517,-0.0067195
0.051788,0.35304,-1.118,9.1594,0.076053,0.14233,-0.0061087
0.021545,0.35304,-1.1572,9.5713,0.16799,0.21136,-0.010079
-0.0099487,0.17652,-1.6279,9.8066,0.23824,0.28802,0.011912
-0.041687,0.35304,-1.6475,9.3359,-0.032987,0.032376,-0.046426
-0.081268,0.35304,-1.3729,9.3163,-0.049175,0.069944,-0.010385
-0.12128,0.74531,-1.2553,8.5514,-0.058948,0.088881,-0.042455
-0.16254,1.1964,-1.5102,7.9238,-0.039095,0.11179,-0.051313
-0.20517,0.90221,-1.3533,8.5318,0.023824,0.15577,-0.068417
-0.24512,0.49033,-0.74531,9.1202,0.13378,0.20831,-0.085827
-0.29556,-0.50995,-1.0199,9.9636,0.26114,0.2642,-0.083383
-0.33487,-1.1768,-2.0006,11.376,0.35277,0.29719,-0.068722
-0.34775,0.56879,-2.2751,10.062,-0.16249,-0.087048,0.10721
-0.34229,1.3533,-1.4318,8.0807,-0.060781,-0.084299,0.11637
-0.32178,0.74531,-0.96105,7.2373,0.082772,-0.076358,0.028405
-0.31622,0.49033,-1.1768,7.2961,0.15638,-0.030849,0.019242
-0.29855,0.098066,-1.8829,8.7868,0.11851,0.039401,0.01741
-0.26169,0.23536,-2.1967,9.6301,0.025656,0.096822,0.043982
-0.20319,0.43149,-1.9025,9.7478,-0.10599,0.11301,0.083078
-0.13147,0.56879,-1.7456,9.3359,-0.16799,0.093462,0.1011
-0.033081,0.60801,-2.3732,8.8652,-0.078191,0.06689,0.0030543
0.068115,1.0395,-2.2751,9.2575,-0.023824,0.053451,-0.013744
0.173,0.56879,-1.8437,9.8066,0.048258,0.062308,0.10996
0.24628,0.27459,-1.9025,9.6694,0.096822,0.088575,0.085521
0.30478,0.90221,-2.3144,8.8652,0.13897,0.11668,0.076053
0.34848,1.216,-2.589,8.3749,0.18754,0.13164,0.071777
0.38229,1.0395,-2.5105,8.6887,-0.053451,0.12859,0.044288
0.40497,0.86299,-1.9809,9.3752,-0.087659,0.13011,0.015272
0.41876,0.98067,-1.2553,9.3359,0.19212,-0.075442,-0.067501
0.3934,1.5298,-1.1964,9.0025,0.22358,0.13317,-0.061087
0.34995,1.8044,-1.4318,8.8064,0.1909,0.12309,-0.072998
0.28131,1.9221,-1.118,8.6299,0.1573,0.10782,-0.072998
0.22833,1.6083,-1.5691,8.4926,0.14294,0.099571,-0.0562
0.19165,1.824,-1.824,8.4926,0.097738,0.090408,-0.067806
0.16074,1.9221,-1.5102,8.8652,0.02138,0.083078,-0.11118
0.14517,1.6083,-1.1768,8.9437,-0.023518,0.093157,-0.12859
0.11563,1.3337,-1.7848,9.0025,0.33781,-0.0562,-0.0012217
0.092712,1.2945,-2.2948,8.7279,0.33506,-0.067501,0.020159
0.077576,1.0395,-2.589,8.7475,0.2532,-0.11148,-0.023518
0.052002,1.0395,-2.432,8.8456,0.13775,-0.16035,-0.00061087
0.037567,1.2945,-2.0594,9.0613,0.047647,-0.18326,0.0024435
0.0094299,1.5102,-1.5691,9.3555,0.012217,-0.17898,-0.0058032
-0.026215,1.6083,-1.118,9.434,-0.0027489,-0.1518,-0.013744
-0.045532,1.6671,-1.0199,9.434,-0.038179,-0.1127,-0.013744
-0.050903,2.1771,-1.2553,8.9633,0.020159,-0.067806,-0.015882
-0.047485,1.9221,-1.6475,8.8456,0.090408,-0.073609,-0.088575
-0.0066528,1.4318,-1.3337,8.6887,0.089797,-0.089492,0.02474
0.026306,0.039227,-1.5298,9.8263,0.013744,-0.11454,0.050091
0.049988,-0.019613,-2.0986,10.375,-0.092546,-0.16127,0.097128
0.059052,0.39227,-2.0398,9.5125,-0.1741,-0.22235,0.11942
0.049988,-0.80415,-3.0008,8.6299,-0.18326,-0.25992,0.10415
0.054718,-0.39227,-2.942,11.317,-0.085521,-0.25137,0.057727
0.042358,0.15691,-1.8829,11.925,0.11698,-0.18295,-0.10171
-0.0033569,0.90221,-0.72569,9.3359,0.33323,-0.073915,-0.14203
-0.057434,0.92183,-0.17652,7.61,0.46365,0.055589,-0.1066
-0.12897,1.0199,0.37265,7.2765,0.45998,0.15791,-0.079718
-0.19565,1.1964,0.52956,7.5511,0.32742,0.21472,-0.071777
-0.23926,1.216,0.19613,8.3749,0.23549,0.27947,-0.065363
-0.2608,0.98067,-0.80415,8.4141,0.21105,0.33903,-0.026267
-0.24881,0.98067,-1.7456,8.4141,0.22052,0.35247,-0.026573
-0.21326,0.86299,-1.726,8.9437,0.19059,0.17715,0.072998
-0.15161,0.56879,-1.5102,9.4928,0.015882,0.19426,0.092241
-0.065216,0.50995,-1.1768,9.8459,-0.067501,0.22938,0.012523
0.036865,0.039227,-1.118,10.12,-0.084605,0.26848,-0.01069
0.14688,0.17652,-2.1378,9.5125,-0.065057,0.31124,-0.021991
0.24731,0.43149,-2.6086,9.1202,-0.044593,0.33414,-0.020769
0.31985,0.80415,-2.5105,9.179,-0.043982,0.3207,0.0097738
0.36584,0.90221,-1.3729,9.689,-0.070555,0.27519,0.04612
0.38321,1.0199,-0.62763,9.9636,-0.19548,0.21777,0.054672
0.3634,1.1768,-1.118,9.3163,-0.30024,0.15913,0.035125
0.32431,1.8633,-2.4124,8.8456,-0.36805,0.081856,0.12401
0.27795,1.9613,-2.7851,9.179,-0.37263,-0.017104,0.16738
0.19073,1.7456,-2.0006,9.0025,-0.32681,-0.073609,0.19639
0.082581,1.6083,-0.5884,7.708,-0.26512,-0.08094,0.17013
-0.030792,2.2751,-0.33343,6.8058,-0.18295,-0.075442,0.11179
-0.13257,1.1768,-0.72569,9.6694,-0.079107,-0.067806,0.075747
-0.22354,0.86299,-0.80415,12.082,-0.014355,0.032376,-0.021991
-0.26752,0.54917,-0.019613,12.474,-0.025351,0.013134,-0.021991
-0.28748,0.92183,0.37265,10.591,-0.039706,-0.0064141,0.013744
-0.28464,1.0395,-0.72569,8.6299,-0.0562,-0.013134,0.0024435
-0.24561,1.9221,-2.6086,6.492,-0.068111,-0.011606,-0.0079412
-0.19534,2.432,-3.8638,6.9823,-0.062614,-0.0067195,-0.0085521
-0.13785,2.1575,-2.8243,7.6884,0.013439,-0.0045815,-0.0088575
-0.044159,1.3925,-0.94144,9.0025,0.0039706,-0.0058032,-0.014355
0.065155,0.49033,-0.33343,9.8066,0.1014,0.11912,0.026267
0.16348,0.80415,-1.471,9.787,0.024129,0.10049,0.048258
0.26578,1.2945,-2.3732,9.2183,-0.083994,0.07422,0.093157
0.34793,1.4318,-1.824,9.0221,-0.15699,0.071471,0.080023
0.38806,1.1964,-0.94144,9.0221,-0.17287,0.094073,0.043982
0.43372,0.76492,-0.86299,8.8652,-0.13622,0.13378,0.025962
0.42422,0.92183,-1.4318,8.7083,-0.072998,0.17746,0.026573
0.40347,0.76492,-1.5102,8.7083,-0.030238,0.20067,0.025045
0.38712,0.56879,-1.5691,9.0221,-0.15272,0.20647,0.057116
0.34943,0.74531,-1.6475,8.9437,-0.059559,0.19975,0.047647
0.32071,0.72569,-2.3144,8.4141,0.1408,0.17043,0.053451
0.29443,0.56879,-2.3732,9.0221,0.32926,0.17196,0.018631
0.28311,0.41188,-1.7456,10.14,0.38423,0.22999,-0.017104
0.26309,0.25497,-1.3337,10.219,0.29291,0.28588,-0.018937
0.23587,0.5884,-1.4318,9.4928,-0.044593,0.27367,0.0097738
0.21051,0.98067,-1.5691,9.1202,-0.11423,0.20036,0.043677
0.18811,1.0395,-1.4906,9.0417,-0.1405,0.1066,-0.0024435
0.15829,1.0395,-1.5102,8.9633,-0.13317,0.022297,0.013744
0.14301,0.49033,-1.5691,9.2575,-0.093768,-0.024435,0.024435
0.14853,1.0395,-1.6475,9.179,-0.062614,-0.027489,0.0073304
0.13953,0.98067,-1.5691,9.0417,-0.032681,-0.018021,0.0033598
0.15732,1.0395,-1.6475,9.0417,-0.0018326,-0.0064141,-0.0015272
0.16824,1.0395,-1.6475,9.0417,0.12004,0.014966,-0.012217
0.20624,0.98067,-1.5102,9.179,-0.051618,0.034208,-0.017104
0.22351,0.80415,-1.1768,9.2575,-0.081245,-0.0030543,-0.013439
0.25189,0.66685,-1.5691,9.3359,-0.092241,0.0042761,-0.00061087
0.29324,1.0787,-1.5887,8.8652,-0.094379,0.014355,-0.042455
0.31378,1.0395,-1.9417,8.8848,-0.051618,0.019853,-0.039401
0.32495,0.98067,-1.824,9.1594,0.048258,0.030543,-0.037874
0.34454,1.0395,-1.6475,9.3359,0.15455,0.047647,-0.043982
0.35352,1.1376,-1.5691,9.2771,0.21869,0.05681,-0.040623
0.36676,1.1768,-1.5298,9.2183,0.20983,0.046731,-0.027794
0.36914,0.98067,-1.5691,9.1202,0.045509,0.021075,-0.06689
0.36249,1.1964,-1.7456,8.8848,-0.071166,-0.0067195,-0.083383
0.35724,1.118,-1.824,9.0417,-0.13531,-0.034208,0.0018326
0.34799,1.0591,-1.6475,9.0025,-0.13683,-0.037263,-0.0064141
0.32184,1.118,-1.8829,8.7475,-0.11851,-0.011301,-0.0082467
0.30167,0.98067,-2.0398,8.8064,-0.12065,0.023518,-0.0054978
0.2688,0.96105,-1.726,9.179,-0.071166,0.037874,-0.009163
0.25153,0.66685,-1.1572,9.6694,0.079718,0.043371,-0.026878
0.22775,0.80415,-1.118,9.3359,0.31826,0.053756,0.020159
0.19418,0.72569,-1.118,8.8848,0.54856,0.072998,0.015272
0.17105,0.76492,-1.4122,8.6299,0.62766,0.060781,-0.039095
0.16989,0.76492,-2.5105,8.4141,0.51404,-0.026267,0.064752
0.19864,0.41188,-2.5693,8.8064,0.27031,-0.17043,0.15394
0.23367,-0.27459,-1.118,10.885,-0.026267,-0.32498,0.17135
0.26669,-0.23536,-0.098066,11.454,-0.27,-0.42486,0.1292
0.26965,1.0395,0,9.9832,-0.41692,-0.42974,0.065363
0.24832,2.2359,-0.86299,8.1003,-0.48045,-0.36102,0.072998
0.17056,2.4909,-2.1378,7.4334,-0.39859,-0.25045,0.080634
0.049072,2.0202,-2.3144,6.845,-0.055589,-0.12553,0.035736
-0.061096,1.824,-1.2553,10.513,0.42699,0.06689,0.058338
-0.16962,2.0594,-0.96105,10.885,0.61361,0.2416,0.068417
-0.26581,1.9025,0,9.0417,0.54153,0.2364,0.032987
-0.34088,1.0395,0.15691,7.5511,0.30513,0.15088,-0.012217
-0.39252,1.0395,-1.7456,7.61,-0.010996,0.040623,0.024129
-0.4075,1.6671,-3.3931,8.8652,-0.11912,0.072693,-0.069333
-0.37759,1.6867,-3.6285,9.5321,-0.025656,0.12462,-0.047037
-0.34952,0.86299,-1.8437,8.7279,-0.040012,0.15058,-0.018021
-0.34494,-0.68647,-1.5102,8.0807,-0.14142,0.12309,0.027794
-0.35706,-1.9417,-2.687,12.082,-0.25045,0.058643,0.053145
-0.36292,0.56879,-1.4318,11.376,-0.31215,0.023213,0.031765
-0.36124,0.96105,-0.43149,8.8064,-0.29444,0.028711,-0.029627
-0.34244,0.54917,-1.2553,7.4923,-0.1573,0.057727,-0.072998
-0.31073,1.2945,-2.4713,7.6884,0.11057,0.090713,-0.052229
-0.25607,1.6671,-1.9025,8.4926,0.034819,0.10446,-0.068111
-0.17734,1.1768,-0.86299,9.2183,-0.030849,0.081856,-0.042761
-0.096832,1.3533,-0.56879,9.1594,-0.056505,0.025656,-0.042455
-0.024292,1.5298,-1.0395,9.0025,-0.057421,-0.036346,-0.03879
0.045563,1.5298,-1.8044,8.8652,-0.053756,-0.058338,-0.041844
0.11432,1.3729,-2.1182,8.9437,0.019242,-0.040317,-0.046426
0.16922,1.118,-1.6475,9.3359,0.12034,-0.017715,-0.046426
0.21429,0.74531,-1.6867,9.2575,0.057116,-0.009163,-0.043982
0.24194,1.118,-1.9417,8.7083,0.078802,-0.002138,-0.045204
0.26154,1.1964,-2.0594,8.5514,0.062919,0.007025,-0.072388
0.2926,1.3337,-2.0006,9.6301,0.02138,0.0018326,-0.058032
0.3223,1.2945,-1.6279,10.12,-0.024129,-0.018937,-0.046426
0.34647,0.98067,-1.5102,9.7478,-0.065668,-0.046426,-0.039401
0.3555,1.2356,-1.6475,9.0613,-0.039706,-0.070555,-0.035125
0.3671,1.216,-1.6475,8.9044,0.0039706,-0.079107,-0.034514
0.3623,0.98067,-1.5298,9.2575,0.076358,-0.082467,-0.052229
0.3555,1.0199,-1.5691,9.4144,-0.13347,-0.090408,-0.041539
0.34152,1.0199,-1.824,9.6301,-0.17318,-0.10324,-0.027794
0.33484,1.2945,-1.8044,9.3555,-0.16982,-0.10415,-0.021075
0.3114,1.118,-1.5298,8.9437,-0.11973,-0.082772,-0.037568
0.28622,1.1768,-1.6475,8.7083,-0.039706,-0.039095,-0.053756
0.26816,1.3533,-1.9809,8.7279,0.041844,0.015272,-0.061087
0.22659,1.2945,-1.8044,8.7083,0.087048,0.06353,-0.060781
0.19418,1.2945,-1.3729,8.7083,0.11851,0.044899,-0.015272
0.16183,1.118,-1.7456,8.9437,0.067195,0.029016,-0.007025
0.14786,1.3533,-1.8829,8.8652,-0.020464,-0.011912,0.034819
0.11569,1.3337,-1.824,8.9044,-0.1066,-0.051924,0.034819
0.093964,1.118,-1.7456,8.8652,-0.1686,-0.076358,0.025962
0.072266,1.0787,-1.6279,9.0417,-0.17471,-0.090713,0.011912
0.063232,1.0199,-1.5102,9.2771,-0.12217,-0.086437,-0.00030543
0.059448,0.82376,-1.7456,9.4928,-0.044899,-0.053756,-0.012828
0.057465,1.1964,-1.9613,9.0221,0.021075,-0.0012217,0.023518
0.060913,1.1964,-1.8829,9.0025,0.073915,0.043371,0.012217
0.060272,1.1376,-1.5691,9.0417,0.10018,0.074831,0.0045815
0.068817,1.3729,-2.0398,8.8652,0.10201,0.098044,0.011912
0.070984,1.6083,-1.9809,8.8064,0.085216,0.12523,0.017715
0.069397,1.3729,-1.6475,9.0613,0.050396,0.13806,0.025656
0.077393,1.216,-1.5102,9.179,0.028711,0.11973,0.03146
0.098114,0.90221,-1.9809,9.3359,0.039095,0.093157,0.029016
0.12704,1.0199,-2.5105,8.8848,0.078191,0.070555,0.088881
0.15192,1.0395,-2.0594,9.0417,0.13408,0.064141,0.051007
0.18021,0.80415,-1.6475,9.434,0.18479,0.072693,0.0061087
0.19531,0.5884,-1.5298,9.434,0.19975,0.086132,0.022907
0.2001,0.92183,-1.8829,9.0025,0.16249,0.094379,0.05284
0.21954,1.0591,-1.9809,8.6887,0.076969,0.093157,0.077885
0.22482,1.118,-1.7848,8.7083,-0.014355,0.076358,0.094684
0.21976,1.0787,-1.5691,8.8848,-0.062614,0.048869,0.10324
0.18762,0.74531,-1.2553,8.8652,0.072998,0.10049,-0.019242
0.17087,0.66685,-1.4122,9.1202,0.072082,0.10385,0.014966
0.14886,0.96105,-1.6671,9.2183,0.02138,0.088575,0.013134
0.13687,1.0199,-1.8044,9.1986,-0.058948,0.05284,0.022907
0.12497,1.118,-1.3729,9.2575,-0.12553,0.0064141,0.021686
0.11322,1.118,-1.1768,9.179,-0.13164,-0.021075,0.0030543
0.11459,1.3533,-1.5102,8.7083,-0.061087,-0.0054978,-0.017104
0.12167,1.6083,-2.2555,8.5906,0.048258,0.0281,-0.030238
0.12781,1.6867,-2.589,8.8064,-0.15608,-0.026573,0.025656
0.15619,1.5298,-2.0398,9.0417,-0.14661,0.016799,0.045204
0.18143,1.0395,-1.5298,9.2575,-0.12462,0.049786,-0.032987
0.18173,0.80415,-1.3533,9.434,-0.098044,0.062308,-0.031765
0.1925,0.60801,-1.8829,9.3359,-0.072388,0.064752,-0.037874
0.19537,0.64724,-2.1182,9.0025,-0.059559,0.069333,-0.037568
0.21509,0.74531,-1.9613,9.434,-0.14691,0.076053,-0.021075
0.25497,0.80415,-1.6867,9.6694,-0.15058,0.088881,0.0036652
0.28519,0.96105,-1.5102,9.6694,-0.1518,0.095906,0.16524
0.31503,1.4318,-1.5691,9.3163,-0.16524,0.099571,0.12401
0.33679,1.5887,-1.6475,9.179,-0.15424,0.098655,0.063835
0.32513,1.6671,-1.6867,8.8848,-0.135,0.091324,0.082161
0.27829,1.3533,-1.216,8.7475,-0.14294,0.10293,0.086132
0.26373,0.80415,-1.2553,8.7083,-0.18357,0.11668,0.089186
0.22403,1.1768,-1.6475,8.9633,-0.080634,0.092241,0.12767
0.18268,1.216,-1.5691,9.3752,-0.12095,0.042455,0.17257
0.1434,1.0395,-1.3533,9.5713,-0.05681,-0.029322,-0.072082
0.097198,0.56879,-1.3337,9.3752,-0.069944,0.010385,-0.05681
0.062073,0.66685,-1.3337,9.1202,-0.10171,0.030849,-0.072388
0.021271,0.41188,-1.2553,8.8064,-0.1182,0.020464,-0.072082
-0.015411,0.54917,-1.3337,8.6299,-0.1014,0.011606,-0.08491
-0.046448,0.56879,-1.118,8.7083,-0.057421,0.0281,-0.11362
-0.064728,0.35304,-1.216,8.5318,-0.002138,0.051007,-0.12859
-0.0784,0.49033,-1.3729,8.8064,0.03146,0.052229,-0.10599
-0.088989,0.5884,-1.3533,8.9437,-0.034819,0.026573,-0.023518
-0.090332,0.74531,-1.3729,8.9437,-0.055283,-0.014661,-0.033903
-0.090118,0.98067,-1.6279,8.5906,-0.083994,-0.048869,-0.046426
-0.090698,1.118,-1.1964,8.7475,-0.11942,-0.069944,-0.03207
-0.091736,1.0395,-1.3337,9.689,-0.14172,-0.077885,-0.018021
-0.084534,1.216,-1.9809,9.8459,-0.14783,-0.079107,-0.0042761
-0.07782,1.6083,-3.0008,9.3359,0.026573,-0.075747,0
-0.084259,1.8044,-2.942,8.7083,-0.0042761,-0.060476,-0.0079412
-0.11771,1.5298,-2.3732,8.8848,0.063225,0.053451,0.044288
-0.15973,0.76492,-1.9809,10.591,-0.02474,0.012828,0.045509
-0.211,0.27459,-1.4122,11.14,-0.10751,-0.031765,0.055589
-0.2796,0.8826,-1.0591,9.6694,-0.16066,-0.064446,0.053451
-0.33743,0.92183,-0.17652,9.1594,-0.17959,-0.076664,0.044288
-0.39917,0.17652,0.098066,8.6495,-0.16157,-0.071166,0.041539
-0.43362,0.74531,-0.78453,7.4923,-0.098655,-0.061087,0.041539
-0.44196,0.41188,-2.0006,7.4334,-0.0067195,-0.04215,0.04215
-0.40643,0.82376,-2.1182,8.0807,-0.059254,-0.018937,0.011912
-0.33197,0.5884,-1.3533,9.7478,-0.22052,-0.075136,-0.023213
-0.24683,0.41188,-0.86299,9.9636,-0.30299,-0.11118,0.057116
-0.1557,0.98067,-1.118,9.0417,-0.26114,-0.11637,0.043677
-0.074799,1.3337,-1.824,9.0417,-0.11393,-0.081551,0.044593
-0.017426,1.3337,-2.3732,9.2183,0.14478,-0.0024435,0.031154
0.036346,0.98067,-1.6867,10.375,0.3769,0.050702,-0.018937
0.065582,0.96105,-1.0199,10.827,0.47495,0.027489,-0.0045815
0.072754,1.1376,-0.70608,10.219,0.44685,-0.040012,-0.032987
0.063751,1.6083,-0.5884,9.2575,0.33078,-0.11698,0.00030543
0.049805,1.6083,-0.54917,8.6299,0.16799,-0.18631,-0.045204
0.025879,1.1768,-0.5884,8.2572,-0.0048869,-0.22724,-0.073915
0.013641,0.80415,-1.471,8.1787,-0.15302,-0.23182,-0.11087
0.013763,1.3729,-1.9417,8.4926,-0.25626,-0.208,-0.13042
0.044006,1.3337,-2.0594,8.9437,-0.3149,-0.18112,-0.11301
0.079102,0.90221,-1.6671,9.3163,-0.36285,-0.14233,-0.076358
0.095825,0.80415,-1.216,9.3359,-0.4444,-0.1069,0.0281
0.12619,0.98067,-1.0591,9.3163,-0.40867,-0.10049,0.043371
0.13251,1.0787,-1.0983,9.1202,-0.28955,-0.08827,0.010079
0.12366,0.98067,-1.0983,9.0613,-0.13592,-0.037568,-0.0079412
0.10144,1.1964,-1.2553,8.8848,-0.0027489,0.030543,-0.034208
0.085175,1.118,-1.3533,8.8652,0.091324,0.074526,-0.037263
0.055023,1.0395,-1.216,9.0417,0.13439,0.088881,-0.012523
0.025482,1.1768,-1.1768,9.3359,0.12217,0.079107,0.013134
0.0015869,0.86299,-0.96105,9.5713,0.16493,0.10965,-0.08094
-0.0080566,1.118,-1.3337,9.9439,0.14539,0.078802,-0.16402
-0.016632,1.3533,-1.6867,9.3359,0.14936,-0.017104,0.067806
-0.025543,1.824,-2.0986,8.8652,0.11698,-0.092241,0.05284
-0.026581,1.6083,-2.0986,8.7279,0.016493,-0.11637,0.021686
-0.03598,1.216,-1.8829,9.2575,-0.072082,-0.09499,-0.010996
-0.018768,1.1964,-1.5298,9.434,0.12614,-0.062919,-0.04215
-0.021637,0.76492,-1.5102,9.3752,0.18937,-0.033598,-0.050702
-0.025696,1.1376,-1.8044,8.9437,-0.071471,0.10079,-0.041844
-0.021881,1.3729,-2.0006,8.2572,0.01405,0.11729,-0.051618
-0.027924,1.3533,-1.7456,8.2768,0.09896,0.13744,-0.10965
-0.03894,0.98067,-0.8826,8.8064,0.13225,0.1463,-0.08827
-0.057251,0.56879,-0.86299,9.179,0.10965,0.13897,-0.066279
-0.083618,0.90221,-1.5691,9.179,0.062919,0.12706,-0.041539
-0.07605,0.8826,-1.7456,9.3359,0.023213,0.12462,-0.025656
-0.10309,1.0395,-1.4318,9.4928,0.013439,0.12034,-0.029627
-0.12677,0.50995,-1.0199,9.1006,0.12034,0.11759,-0.0079412
-0.13419,0.66685,-1.1964,8.5318,0.06353,0.12553,-0.014966
-0.17139,0.70608,-1.118,8.6299,-0.039706,0.13256,-0.053145
-0.18185,0.49033,-1.0003,9.4928,-0.12798,0.12339,-0.048258
-0.18231,0.49033,-1.0591,9.5713,-0.15302,0.094684,-0.034514
-0.18185,0.13729,-1.1768,9.179,-0.11912,0.068111,-0.013744
-0.18042,0.35304,-1.3141,8.9044,0.046731,0.054062,-0.0039706
-0.17957,0.5884,-1.118,9.0417,0.1011,0.048258,-0.0067195
-0.17542,0.70608,-1.1572,9.6694,0.011301,0.048258,0.05681
-0.17261,1.118,-1.3729,9.6301,0.044899,0.052534,0.078802
-0.17358,1.118,-1.5298,8.6495,0.029322,0.057116,-0.022297
-0.18405,0.76492,-1.6475,9.5321,-0.034208,0.057727,-0.019548
-0.18939,0.17652,-2.1182,10.748,-0.061697,0.061087,-0.017104
-0.19763,0.8826,-2.3144,10.16,0.022297,0.067806,-0.012217
-0.19391,0.98067,-1.0003,8.4337,-0.078802,0.067806,0.0082467
-0.19012,0.49033,-0.56879,7.4531,-0.037874,0.090103,0.034514
-0.17923,0.66685,-1.5691,7.61,-0.021075,0.047342,0.039401
-0.1459,1.0199,-1.3141,9.434,-0.009163,0.054367,0.03207
-0.082367,0.60801,0.84337,11.69,-0.04948,0.032987,-0.020769
-0.038544,0.39227,1.3533,11.846,-0.14172,0.00061087,0.014355
-0.023987,0.8826,0.52956,10.14,-0.2587,-0.007025,0.019853
6.1035e-05,1.3729,-0.39227,9.1986,-0.36133,0.0045815,0.022297
0.012146,1.118,-1.118,9.0417,-0.39767,0.0061087,0.034208
0.015747,0.74531,-2.0594,8.8652,-0.3207,0.015882,0.04215
0.032654,1.2945,-2.1575,8.2376,0.028711,0.062919,0.04948
0.042511,1.4514,-1.7456,7.9434,0.19731,0.13897,0.026267
0.063873,1.1964,-1.3533,8.1787,0.26053,0.197,0.034514
0.098877,0.80415,-1.5691,8.8848,0.21533,0.20892,0.054978
0.12485,1.3533,-1.8044,9.0417,0.11332,0.17776,0.081856
0.15549,1.3533,-1.2553,9.3752,0.025656,0.10751,0.098044
0.17999,1.2356,-0.72569,9.2771,-0.013439,0.043066,0.09499
0.20294,1.4906,-0.78453,8.6299,-0.018631,0.0051924,0.075442
0.21399,0.98067,-1.6279,8.2572,-0.018021,-0.013439,-0.02474
0.23056,1.1768,-2.1967,8.6299,-0.035736,-0.017715,-0.023824
0.22507,1.0787,-1.6475,9.3359,-0.046426,-0.020769,0.021075
0.22845,0.80415,-1.3337,9.6694,-0.023213,-0.027184,0.016799
0.22128,0.74531,-1.5102,9.8066,0.01741,-0.030849,0.0079412
0.20822,0.98067,-1.5691,9.6694,0.056505,-0.014661,0
0.20627,1.1376,-1.5298,9.5125,0.07422,0.016493,-0.0097738
0.19974,1.118,-1.6475,9.1594,0.054367,0.043371,-0.021686
0.18451,1.216,-1.7456,9.0417,0.025045,0.054672,0.054367
0.16428,1.3729,-1.5298,9.0417,0.022297,0.053451,0.039401
0.12473,1.0787,-1.5102,9.0221,0.051618,0.053145,-0.026267
0.08432,1.0395,-1.2553,9.1202,0.084605,0.055589,-0.020159
