-0.092346,1.118,-4.0207,7.9434,-0.015272,0.022602,0.0064141
-0.073975,1.118,-4.0207,7.8453,-0.019853,0.021991,0.0036652
-0.067169,1.2945,-3.9423,8.0022,-0.016799,0.016799,-0.01069
-0.067108,1.4318,-3.9423,7.9238,-0.011606,0.011301,-0.0045815
-0.074066,1.3729,-4.0796,8.0022,-0.0097738,0.0039706,0.00061087
-0.087219,1.3337,-4.158,8.0611,-0.012217,0.0030543,0.0030543
-0.079376,1.0199,-4.0403,8.0611,-0.018631,0.0054978,0.0036652
-0.079346,0.96105,-3.9423,8.0807,-0.016799,0.0027489,0.0051924
-0.078247,1.1964,-3.9423,7.9042,-0.036652,-0.027489,0.0012217
-0.074768,1.0395,-3.9423,8.0022,-0.03543,-0.029932,-0.0048869
-0.076508,0.96105,-4.158,7.8649,-0.030849,-0.018631,0.019242
-0.072754,1.118,-4.1776,7.9434,-0.016799,-0.0082467,0.025045
-0.075195,1.2945,-4.0011,7.8649,-0.013439,-0.0018326,0.019548
-0.067352,1.0395,-3.8638,7.963,-0.013439,0.0085521,0.018937
-0.06839,1.2945,-3.9815,7.9434,-0.015272,0.011606,0.012523
-0.069244,1.3337,-4.0011,8.0611,-0.020464,0.018021,0.0033598
-0.061249,1.3533,-4.1776,8.0218,-0.024129,0.024129,-0.022297
-0.064392,1.2749,-3.8834,8.0022,-0.029932,0.0281,-0.021686
-0.070404,1.2945,-3.9423,8.0022,-0.036041,0.029322,-0.0067195
-0.071899,1.0395,-3.9423,7.9434,-0.03879,0.032376,-0.0088575
-0.066162,1.0395,-4.0207,7.9434,-0.035125,0.041233,-0.014355
-0.061401,1.216,-4.0207,7.9434,-0.02474,0.051618,-0.017715
-0.053162,1.2945,-3.9423,7.9434,-0.016493,0.057421,-0.020769
-0.0578,1.1964,-4.0207,8.0611,-0.017104,0.059865,-0.023824
-0.054565,1.1376,-4.1384,8.0218,-0.021075,0.057116,-0.025656
-0.049408,1.2356,-4.0207,7.9434,-0.021686,0.049175,-0.018937
-0.043945,0.90221,-3.9815,8.0022,-0.021075,0.046731,-0.028711
-0.038025,0.92183,-4.0992,7.9238,-0.018326,0.043982,-0.03543
-0.035034,0.98067,-4.158,8.0807,-0.0097738,0.040928,-0.040317
-0.034943,0.98067,-4.158,8.1003,-0.0058032,0.038179,-0.038179
-0.027313,1.2945,-3.9423,7.9434,-0.0082467,0.033903,-0.03207
-0.029236,1.2945,-3.9423,7.963,-0.013134,0.027184,-0.028711
-0.027496,1.3337,-4.0207,7.963,-0.0042761,0.011606,-0.00030543
-0.011566,1.118,-4.3542,8.0807,-0.0097738,0.0018326,0.0024435
-0.0016174,1.1964,-4.0796,7.963,-0.012217,0.0012217,-0.0094684
-0.0057678,0.8826,-3.8638,8.0611,-0.0058032,0.0082467,-0.010079
0.0031433,1.216,-3.9423,7.9434,0.010079,0.010079,-0.010385
0.0056152,1.0787,-4.0207,7.963,0.018937,0.011606,-0.0048869
0.0083923,1.2945,-4.1384,7.963,0.019548,0.011606,0
0.0076599,1.3533,-4.0207,8.0218,0.0088575,0.0085521,-0.00030543
0.0050354,1.2945,-3.9815,8.0611,-0.013439,0.0051924,0
-0.0059204,1.118,-4.0207,7.963,-0.020464,0.007025,0.0076358
-0.016113,1.216,-4.1384,8.0022,-0.022297,0.0061087,0
-0.0093994,1.0591,-4.0403,8.0022,-0.020464,0.0018326,-0.00061087
-0.0071716,1.118,-4.0207,7.963,-0.017104,0.0051924,0.00030543
-0.0092468,1.118,-4.0403,8.0022,-0.016493,0.0082467,-0.0009163
-0.0177,1.1376,-4.0403,7.9434,-0.016799,0.013744,-0.0042761
-0.024261,0.98067,-4.0011,8.0611,-0.018021,0.015272,-0.0042761
-0.021484,1.118,-3.8834,7.9238,-0.019853,0.013439,-0.0048869
-0.017792,1.2749,-3.9815,8.0611,-0.023824,0.014966,-0.010385
-0.019287,1.1964,-3.9423,7.9434,-0.025045,0.020464,0.0039706
-0.0083923,1.0787,-4.0796,8.0611,-0.019853,0.026573,0.0018326
-0.0040283,1.2356,-4.0207,8.0611,-0.01069,0.028711,0.0042761
0.013397,1.1964,-4.0011,7.9042,0.0058032,0.031154,0.0030543
0.017181,1.2356,-3.9423,8.0218,0.028711,0.029627,0.002138
0.017242,1.0395,-3.8834,8.0807,0.05681,0.027794,0.00030543
0.019989,1.2945,-4.0796,8.0022,0.081551,0.032681,-0.013134
0.017853,1.0395,-4.0796,8.1199,0.093157,0.036652,-0.016188
0.02597,1.216,-4.3149,8.0807,0.097128,0.042761,-0.011606
0.024933,1.118,-4.0403,7.9434,0.083078,0.044288,-0.01069
0.026672,1.0591,-3.8246,7.8649,0.058032,0.041233,-0.0076358
0.031525,1.1768,-3.8442,7.9042,0.035736,0.033903,-0.0036652
0.012573,1.1964,-3.8246,7.9434,0.024129,0.025656,-0.0097738
0.021057,1.1964,-4.0403,7.9434,0.028711,0.021991,-0.015272
0.018188,1.0395,-3.9227,8.0807,-0.058032,0.010385,-0.022297
0.031342,1.1964,-3.8246,8.0218,-0.066279,0.016493,-0.014966
0.044342,1.1964,-3.6873,8.0611,-0.060781,0.017715,0.0015272
0.052246,1.118,-3.8638,8.0807,-0.016493,0.011301,0.0088575
0.063171,1.1768,-3.9815,8.0807,0.067195,0.0027489,0.0076358
0.055664,1.1768,-3.8638,7.8649,0.16493,0.0097738,-0.00061087
0.047852,1.118,-3.8246,8.0611,-0.058032,0.037874,-0.012217
0.042419,1.1964,-3.8442,8.2572,-0.053145,0.073915,-0.021075
0.055237,1.216,-3.8638,8.1199,0.25351,0.10232,-0.024435
0.044983,0.92183,-3.8638,8.1003,0.22785,0.11637,-0.0027489
0.031891,1.118,-3.8638,8.0022,0.20159,0.10507,-0.0061087
0.025452,1.1964,-3.8442,8.0807,0.18112,0.078191,-0.0079412
0.025696,1.1964,-3.8246,8.1003,0.16952,0.044593,-0.014355
0.031036,1.216,-3.8638,8.1003,0.14905,0.0088575,-0.010079
0.02478,1.118,-3.8638,8.0022,0.2361,-0.0082467,-0.0076358
0.026215,1.1964,-3.9423,7.963,0.26237,-0.0073304,-0.025656
0.010498,1.1964,-3.9423,8.0611,-0.010079,-0.0061087,0.067195
-0.032532,1.2749,-4.0207,8.0611,-0.040012,-0.012828,0.055589
-0.088318,0.98067,-3.9423,8.0807,-0.030543,-0.021075,0.013134
-0.16608,1.118,-4.3345,7.8649,-0.020159,-0.020464,0.017715
-0.285,1.3925,-4.5699,7.7669,-0.059254,-0.0048869,0.017104
-0.42294,1.2356,-4.0011,8.2376,-0.14386,0.020159,0.0061087
-0.57907,0.92183,-3.6285,8.3749,0.10934,0.034208,0.021075
-0.72476,0.92183,-3.6873,8.4141,0.051924,0.024129,0.055894
-0.8613,1.0395,-3.6873,8.1787,-0.040928,0.0048869,0.0073304
-0.97418,1.0199,-3.6088,8.1787,-0.04612,0.0045815,0.0024435
-0.99997,0.98067,-3.3931,8.1591,-0.047953,0.0051924,0.012523
-0.99997,1.1964,-3.3735,8.0022,-0.051313,0.0042761,0.010996
-0.99997,1.118,-3.3539,8.0807,-0.055589,0.0042761,0.009163
-0.99997,1.0395,-3.5304,8.316,-0.059254,0.0073304,0.0058032
-0.99643,1.2945,-3.7854,8.1003,-0.063225,0.0064141,0.0033598
-0.89749,1.1768,-4.158,8.2572,-0.063225,0.0058032,0.007025
-0.7731,1.3533,-4.3345,8.2768,0.014661,0.054367,0.025045
-0.63028,1.2749,-4.4914,8.2572,-0.0036652,0.04612,0.025045
-0.51422,1.3337,-4.0403,7.9434,-0.01741,0.030849,0.010079
-0.42413,1.1768,-4.0403,7.7473,-0.018631,0.020159,0.011606
-0.35205,1.2356,-4.1776,7.7473,-0.016799,0.012217,0.012217
-0.30191,0.98067,-4.158,7.9042,-0.01405,0.0018326,0.016188
-0.25336,1.0787,-3.8638,8.2572,-0.009163,-0.0064141,0.022907
-0.21194,0.98067,-3.7069,8.316,-0.0039706,-0.0088575,0.02474
-0.18207,1.1964,-3.8246,8.1199,-0.002138,-0.0085521,0.033903
-0.15448,1.0199,-3.8834,8.0807,-0.0027489,-0.0079412,0.025045
-0.13123,1.118,-4.0207,7.8649,-0.0061087,-0.010996,0.025351
-0.10483,1.1964,-4.0403,7.9434,-0.010385,-0.018631,0.03146
-0.068054,1.1964,-3.8638,8.1591,-0.016188,-0.025962,0.033598
-0.052368,1.216,-3.8442,8.1787,-0.020464,-0.03543,0.038485
-0.026611,1.118,-3.8246,8.0807,-0.013134,-0.04948,0.047647
0.0023804,0.98067,-3.8638,8.218,0.019548,-0.060476,0.04612
0.0224,1.216,-3.9423,7.963,-0.0073304,0.010385,0.0076358
0.048431,0.92183,-4.0011,8.0807,0.0281,0.025045,0.0042761
0.078735,1.118,-4.0207,7.9434,0.051007,0.041233,-0.0064141
0.094604,1.0395,-4.0207,7.9434,0.055894,0.050396,-0.007025
0.10364,1.2356,-3.8638,8.1003,0.045815,0.051313,-0.0036652
0.10135,1.1376,-3.8638,8.0218,0.025045,0.04948,-0.00061087
0.10593,1.1768,-3.9423,8.0807,0.0018326,0.044593,0.00030543
0.10263,1.0199,-4.0011,7.9434,-0.021075,0.033903,0.0058032
0.089111,1.0395,-4.0207,7.9434,-0.03879,0.028405,0.0088575
0.076782,1.0395,-3.8442,8.1003,-0.047037,0.023824,0.0094684
0.074921,1.118,-3.9227,8.2572,-0.040928,0.025045,0.0061087
0.076691,0.8826,-4.1972,8.1787,-0.025045,0.032987,0.0094684
0.074707,1.0395,-4.1972,8.2572,-0.0064141,0.041233,0.0082467
0.074615,1.1768,-3.8246,8.0807,0.011301,0.050396,0.010079
0.064301,1.0395,-3.6285,8.2572,0.023824,0.057421,0.010996
0.051239,1.2945,-3.8442,8.1787,0.029322,0.057421,0.0067195
0.039459,1.4318,-4.2561,7.9042,-0.71074,1.0971,-1.1222
0.058502,1.4906,-4.1384,7.9434,-0.8375,1.0925,-1.0409
0.063934,1.5102,-4.3345,7.8649,-0.93523,1.0327,-1.3186
0.073883,1.824,-4.9426,7.7473,-0.97861,0.95387,-1.2792
0.10077,2.589,-5.884,7.963,-0.97464,0.89431,-1.2669
0.14008,2.6478,-6.4332,7.61,-0.94531,0.86682,-1.266
0.20779,3.0008,-6.7666,7.2765,-0.5565,0.86163,-1.2471
0.30371,3.4912,-6.5116,7.1589,-0.59162,0.86407,-1.1939
0.40662,3.6285,-6.0801,7.4531,-0.7086,0.87659,-0.49755
0.51059,3.5696,-5.3937,7.4531,-0.55008,0.90286,-0.39981
0.61505,3.4912,-4.9426,7.3158,-0.37843,0.93279,-0.95081
0.68701,3.8442,-5.021,7.2373,-0.20525,0.9502,-0.86101
0.76035,4.158,-5.4329,7.1392,-0.028711,0.94898,-0.77488
0.82474,4.06,-5.3348,7.0019,0.15516,0.94318,-0.70677
0.87714,4.1972,-5.4133,6.8254,-0.89614,0.94623,-0.64996
0.92856,3.903,-4.9622,6.845,-0.82711,0.9615,-0.58246
0.9935,4.0403,-4.5111,5.9232,-2.1887,0.28711,-1.8207
1,3.5696,-4.0796,6.1782,-2.2504,0.32559,-1.7324
1,3.3146,-4.0011,6.3547,-2.2465,0.37232,-2.0333
1,3.0008,-5.1779,5.4917,-2.1939,0.42364,-2.0742
1,2.9616,-7.2177,4.6287,-2.0968,0.49327,-2.0776
1,3.2558,-8.4729,4.3934,-1.9737,0.55772,-2.0372
1,2.7851,-7.5315,4.5111,-1.887,0.60842,-1.9682
1,2.2948,-6.2959,5.0798,-1.8714,0.65454,-1.8958
1,2.1182,-5.6094,4.9622,-2.0287,0.67104,-1.4878
1,2.4713,-5.7075,4.8641,-1.8888,0.65821,-1.3912
1,2.4909,-5.9821,4.5503,-1.6484,0.64385,-1.6542
1,2.3732,-5.9821,4.2365,-1.3448,0.65912,-1.6362
1,2.1575,-5.5702,3.9227,-1.0033,0.71319,-1.682
1,1.824,-5.7271,3.9227,-0.70127,0.8097,-1.7071
1,1.5887,-6.0213,4.3542,-1.9484,0.93065,-1.6664
1,1.5298,-6.0409,4.6287,-2.04,1.0379,-1.5864
1,1.1964,-5.5898,4.9426,-1.1429,-0.49572,-0.62064
1,0.90221,-5.3937,5.276,-1.2025,-0.62217,-0.71685
0.9295,0.98067,-5.021,5.4329,-1.2617,-0.7141,-0.25045
0.78302,0.66685,-4.9426,5.5702,-1.295,-0.77824,-0.31948
0.67191,0.49033,-5.1191,5.884,-1.2608,-0.83108,-0.4047
0.61005,0.90221,-4.8053,6.1978,-1.1588,-0.90805,-0.45845
0.59528,1.1768,-4.2561,6.6097,-0.98807,-0.99785,-0.48442
0.58969,1.0591,-4.3345,6.8647,-0.76267,-1.0733,-0.53145
0.6311,1.2945,-4.766,7.1785,-0.49755,1.0644,0.016799
0.65979,1.6083,-5.0406,7.1392,-0.78313,0.44043,0.002138
0.7052,1.5495,-5.1779,7.5511,-1.3518,-0.19731,0.34208
0.75323,1.6671,-5.0995,8.316,-0.72724,-0.28588,0.051007
0.79312,1.5102,-5.4133,8.5318,0.79504,0.12248,-0.36438
0.84277,-1.118,-10.885,19.476,1.668,0.59223,-0.26084
0.87369,4.1972,-10.611,7.9042,1.5687,0.71044,0.034819
0.88577,3.9619,-5.5506,5.5702,0.8546,0.48319,0.07758
0.88794,0.96105,-1.6279,8.7083,0.015577,0.12737,-0.13073
0.8779,-0.35304,-1.5102,8.3945,-0.69547,-0.19151,-0.046426
0.85913,1.0395,-3.7265,7.7473,-1.1616,-0.36316,-0.039706
0.83646,1.0787,-7.0019,7.2373,-1.3812,-0.41783,-0.13561
0.85867,1.6867,-7.9238,5.5702,-1.3757,-0.40561,-0.16982
0.93201,1.6083,-6.7077,5.3544,-1.1402,-0.31918,-0.15485
1,0.98067,-5.5506,6.8254,-0.72724,-0.16707,-0.17074
1,0.96105,-5.4133,7.4531,-0.29474,0.011301,-0.18448
1,1.4906,-5.4525,7.6296,0.11454,0.15272,-0.15241
1,2.1575,-6.0409,7.9434,0.070555,0.20525,-0.20342
1,2.7655,-7.1589,8.4141,-0.069028,0.15547,-0.011912
1,2.7459,-7.9434,8.7083,-0.24435,0.068111,-0.040012
1,2.7459,-7.2177,8.2376,-0.43585,-0.021075,-0.094073
1,2.9028,-6.4528,8.3357,-0.6411,-0.11668,-0.12034
1,3.3735,-6.3351,8.4926,-0.8659,-0.22358,-0.10996
1,3.8638,-6.3939,7.963,-1.0519,-0.35033,-0.10843
1,3.7265,-6.5508,8.2376,0.075747,-0.043371,1.2788
0.99573,4.0403,-5.3348,8.0807,0.85399,0.29016,1.0599
0.91797,3.805,-3.8834,8.0807,1.6203,0.72907,0.61728
0.78183,3.7265,-2.7851,7.6296,2.2373,1.1518,0.62522
0.58521,3.9423,-2.4124,6.6881,2.452,1.4197,0.8998
0.3533,4.1188,-2.6086,5.3937,2.2651,1.5046,1.226
0.073517,4.7464,-2.4124,4.4914,1.8259,1.405,1.3955
-0.21448,4.1188,-1.9809,4.8053,1.4065,1.2428,1.4053
-0.50113,3.5304,-3.0008,4.7856,1.1805,1.1548,0.91783
-0.77148,3.3146,-3.7069,4.3149,1.1289,1.1625,0.74617
-0.97733,2.7851,-4.9426,3.5304,1.2138,1.2682,0.85155
-0.99997,2.942,-8.4141,2.5105,1.3689,1.4777,0.77733
-0.99997,4.2561,-10.14,2.0006,1.5592,1.726,0.83353
-0.99997,3.4127,-6.2174,3.8638,1.726,1.9093,0.92149
-0.99997,1.6867,-3.3931,5.2564,1.7477,1.9664,0.98594
-0.99997,0.33343,-3.8834,5.9036,1.5687,1.8692,1.0006
-0.99997,0.60801,-6.3743,5.1387,0.87873,1.664,0.72876
-0.99997,0.90221,-7.0019,5.3544,0.85155,1.4255,0.70188
-0.99997,-0.17652,-5.4133,5.2368,0.88759,1.2208,0.58674
-0.99997,-1.6083,-3.7658,6.2959,0.90225,1.0825,0.49236
-0.99997,-1.7652,-3.4716,7.7865,0.81153,0.98166,0.46426
-0.99997,-1.1768,-4.4522,9.1202,0.55741,0.87598,0.51038
-0.99997,-0.27459,-4.7856,9.4144,1.2865,0.74739,0.60689
-0.99997,-0.66685,-4.0207,9.6497,1.0327,0.58002,0.69242
-0.99997,-1.2945,-3.6677,9.5321,-0.58338,0.38057,0.21961
-0.99997,-1.3141,-4.0403,9.4928,-0.73457,0.18815,0.1741
-0.99997,-0.98067,-4.9622,8.4926,-0.74739,0.041539,0.60995
-0.99997,-0.52956,-5.2564,8.0022,-0.68967,-0.037568,0.48594
-0.99997,-0.33343,-4.8837,7.963,-0.63347,-0.058948,0.37568
-0.99997,0.2942,-4.6484,7.61,-0.61514,-0.050702,0.30238
-0.99997,0.80415,-4.4914,7.3158,0.16799,-0.034819,0.26023
-0.99997,0.86299,-4.1972,7.0019,-0.25901,-0.047037,0.24099
-0.99997,0.54917,-3.1381,6.8254,0.091324,-0.025962,-0.10263
-0.99997,0.11768,-3.0597,7.2373,0.38943,0.098655,-0.16035
-0.99997,0.039227,-3.5304,7.7865,0.55925,0.18845,-0.047037
-0.99997,-0.45111,-3.8246,8.1003,0.54306,0.21869,0.036652
-0.99997,-0.90221,-2.7459,8.9437,0.37507,0.20281,0.072998
-0.99997,-3.903,-1.4122,13.043,0.1518,0.16646,0.060781
-0.99997,-3.6677,-4.2953,9.4732,-0.030849,0.12431,0.025351
-0.99997,-0.76492,-5.3937,7.3158,-0.10629,0.090713,-0.032987
-0.99997,-0.68647,-4.0796,7.6492,0.036346,0.059865,-0.17623
-0.99997,-1.0003,-2.8243,7.5903,0.22907,0.034819,-0.18143
-0.99997,-0.68647,-3.0793,7.4727,0.42455,0.016799,-0.197
-0.99997,-0.50995,-4.2953,7.4531,0.56322,-0.010079,-0.19517
-0.99997,-0.05884,-3.55,8.6887,0.61667,-0.023213,-0.16066
-0.99997,-0.039227,-3.0793,8.6299,0.61178,-0.020159,-0.15211
-0.99997,0.13729,-3.8638,7.2373,0.56566,-0.013439,-0.17135
-0.99997,0.64724,-3.7069,7.2373,0.47647,-0.0058032,-0.17807
-0.99997,-0.37265,-3.1577,8.0807,0.36224,-0.011301,-0.17562
-0.99997,-0.64724,-3.0401,8.316,0.24404,-0.023824,-0.11942
-0.99997,-0.5884,-3.5696,7.7865,0.14691,-0.04215,-0.20525
-0.99997,-0.64724,-4.3345,7.7865,0.10324,-0.048869,-0.24221
-0.99997,-0.70608,-4.5699,7.9434,0.13928,-0.039401,-0.27214
-0.99997,-0.68647,-4.2953,8.0022,0.24374,-0.018631,-0.28191
-0.99997,-0.13729,-3.3146,8.1591,0.36621,0.012828,-0.26817
-0.99268,-0.33343,-2.6282,8.3749,0.43768,0.047037,-0.22907
-0.92392,-0.23536,-2.589,8.6299,-0.281,0.064752,0.039706
-0.86508,0.41188,-2.7459,8.6887,0.44135,0.069333,0.029322
-0.81052,0.66685,-2.7459,8.8064,0.38607,0.065057,-0.071777
-0.78333,0.49033,-2.589,8.7083,0.24862,0.048258,-0.015882
-0.77078,0.11768,-2.2751,8.9437,0.063225,0.013439,0.032376
-0.76715,-0.35304,-2.1967,8.9437,-0.11454,-0.037874,0.057727
-0.77985,-0.50995,-2.5105,8.8064,-0.23885,-0.076053,0.065057
-0.802,-0.5884,-3.3931,8.4141,-0.29383,-0.088881,0.057116
-0.82428,-0.45111,-3.7658,8.316,0.27275,0.13164,-0.27061
-0.81985,-0.43149,-3.8442,8.2572,0.23274,0.076664,-0.25656
-0.79749,-0.23536,-3.5108,8.316,0.26328,0.025351,-0.29016
-0.78085,-0.23536,-3.3735,8.2572,0.33139,0.0042761,-0.3146
-0.77719,-0.039227,-3.3931,8.218,0.38759,0.014661,-0.32865
-0.73999,-0.039227,-3.8638,8.0611,0.41264,0.043677,-0.3149
-0.68698,-0.039227,-4.2561,8.0807,0.50732,0.079718,-0.29963
-0.62411,0.098066,-4.5699,7.963,0.38149,0.10721,-0.28466
-0.55563,0.13729,-4.1972,7.9238,0.35216,0.13317,-0.10049
-0.49759,0.039227,-3.3146,8.2768,0.29291,0.1631,-0.11118
-0.42767,-0.05884,-2.9028,8.6299,0.18845,0.17929,-0.22694
-0.40335,0.56879,-3.2558,8.0807,0.089186,0.17623,-0.19151
-0.39203,0.5884,-3.4127,8.1787,0.036041,0.15363,-0.16493
-0.40378,0.41188,-3.1577,8.6299,0.028405,0.11484,-0.14172
-0.43982,0.27459,-3.0793,8.8064,0.41111,0.083689,-0.1179
-0.48761,0.25497,-3.3146,8.6887,0.38912,0.062003,-0.10476
-0.54697,0.45111,-2.942,8.7475,0.16616,0.056505,-0.13714
-0.61093,0.23536,-2.1967,9.0417,0.22419,0.079107,-0.17074
-0.66803,0.13729,-1.8044,9.1202,0.29902,0.10873,-0.1179
-0.71503,0.64724,-1.8437,8.8064,0.32284,0.069639,-0.060476
-0.72952,0.66685,-2.2555,8.4141,0.19761,-0.024129,0.021686
-0.72919,0.66685,-2.0398,8.4337,-0.024435,-0.075442,-0.007025
-0.7067,0.39227,-1.9809,8.3749,0.06017,-0.12309,-0.12828
-0.65451,0.25497,-1.8829,8.5514,0.12126,-0.24618,-0.15516
-0.6077,0.11768,-2.1575,8.8652,0.39309,0.072388,-0.30574
-0.55508,0.17652,-2.6086,8.7083,0.39462,0.07758,-0.29413
-0.48706,0.17652,-3.0401,8.7475,0.38118,0.061697,-0.12584
-0.42056,0.49033,-2.6086,8.7083,0.39981,0.055283,-0.16035
-0.37061,-0.33343,-2.0594,8.4926,0.45845,0.072998,-0.22144
-0.33765,0.019613,-2.942,9.9636,0.53848,0.12065,-0.28588
-0.31366,0.098066,-2.3732,11.042,0.59682,0.16066,-0.32132
-0.31226,-0.05884,-2.0986,10.768,0.58582,0.16066,-0.31948
-0.30988,0.64724,-1.7848,9.8066,-0.1347,-0.041233,-0.0027489
-0.30167,0.5884,-1.726,9.0613,-0.19028,-0.067195,0.0027489
-0.30789,0.66685,-0.86299,8.4926,-0.21838,-0.078802,0.0024435
-0.33548,0.5884,-1.6475,8.0022,-0.19609,-0.076664,-0.012523
-0.3533,1.118,-2.3732,7.61,-0.13011,-0.044288,-0.035125
-0.35837,1.1964,-3.2166,7.9042,-0.035736,0.011301,-0.057421
-0.3295,0.60801,-3.7069,8.2572,0.054672,0.059254,-0.054978
-0.29568,0.56879,-3.8442,8.316,0.10354,0.085521,-0.028711
-0.24661,0.60801,-3.3931,8.4141,0.10751,0.087048,0.012217
-0.22055,0.76492,-3.0008,8.3749,0.074526,0.069333,-0.01405
-0.2113,0.5884,-3.1381,7.9434,0.024129,0.040012,-0.0018326
-0.21216,0.70608,-3.3539,7.8061,-0.042455,0.0036652,-0.0036652
-0.2164,0.5884,-3.5304,8.2572,-0.10751,-0.022602,-0.0018326
-0.21262,0.72569,-3.3735,8.7083,-0.1295,-0.044288,-0.0015272
-0.20938,0.27459,-3.3146,8.7279,-0.13011,-0.059559,-0.0076358
-0.20737,0.35304,-3.2362,8.7475,-0.12004,-0.079718,-0.00061087
-0.19345,0.2942,-3.2362,8.4729,-0.10415,0.17746,-0.034208
-0.17102,0.54917,-3.2362,8.4141,-0.0009163,0.16768,-0.045509
-0.14987,0.13729,-3.0008,8.6887,0.066584,0.16249,-0.076969
-0.14081,0.35304,-3.0008,8.7279,0.069639,0.14539,-0.058032
-0.12817,0.078453,-2.7851,8.7083,0.029932,0.11668,-0.03146
-0.1188,0.27459,-2.6086,8.8064,-0.035125,0.086437,-0.013134
-0.10822,0.27459,-2.9224,8.4141,-0.11393,0.061392,-0.013439
-0.097504,0.45111,-3.3146,8.0807,-0.18021,0.036652,-0.023213
-0.098938,0.49033,-3.3146,8.2572,-0.1967,0.012217,-0.0061087
-0.086975,0.098066,-3.0793,8.6495,-0.16585,0.0073304,0.0061087
-0.098328,0.27459,-3.1381,8.8064,-0.11454,0.0094684,-0.061392
-0.10217,0.41188,-3.3146,8.7083,-0.064446,0.010079,-0.069639
-0.10367,0.49033,-3.1381,8.3945,-0.032987,0.0085521,-0.064141
-0.11102,0.49033,-3.6285,8.0022,-0.020769,0.009163,-0.059254
-0.1015,0.64724,-3.9815,7.61,-0.02474,0.002138,-0.051618
-0.10718,0.43149,-3.8638,7.5903,-0.046731,-0.018021,-0.029627
-0.1283,0.72569,-3.5696,7.8649,-0.048258,-0.033292,-0.01741
-0.12973,0.80415,-3.7265,7.963,-0.073304,-0.036041,-0.03879
-0.12775,0.72569,-3.197,8.2572,-0.075442,-0.048869,0.010385
-0.13705,0.098066,-2.7851,8.5514,-0.045509,-0.051924,-0.0045815
-0.16232,0.27459,-2.2751,9.3359,-0.012217,-0.042455,-0.018021
-0.16083,0.60801,-2.3144,9.5713,0.0054978,-0.014355,-0.029932
-0.16708,0.41188,-2.3536,9.5125,0.0009163,0.017715,-0.037874
-0.19492,0.60801,-2.432,9.1594,-0.015272,0.026878,-0.0281
-0.2305,0.74531,-2.687,8.8848,-0.12523,-0.066584,-0.087048
-0.24344,0.74531,-3.197,8.3945,-0.075136,-0.025045,-0.08827
-0.24405,0.90221,-3.3146,8.316,-0.019548,0.016493,0.022297
-0.24881,0.90221,-3.3931,8.3945,0.049786,0.063225,-0.016799
-0.19315,1.1768,-3.6677,8.3749,0.12492,0.11576,-0.06017
-0.14713,0.98067,-3.3539,8.316,0.17654,0.16127,-0.083689
-0.10355,0.90221,-2.942,8.4926,0.18143,0.19242,-0.083078
-0.064667,0.56879,-2.7262,8.4926,0.13744,0.20647,-0.08094
-0.0098877,0.56879,-3.0989,8.218,0.085216,0.19823,0.012217
0.022766,0.56879,-2.9224,8.4926,0.07422,0.1744,0.029627
0.070251,0.2942,-2.6282,8.9437,0.12828,0.16249,-0.092852
0.10086,0.35304,-2.3536,9.1202,0.22235,0.17837,-0.10324
0.13165,0.17652,-2.687,8.7083,0.30788,0.18021,-0.097433
0.15976,0.5884,-3.197,8.4141,0.34483,0.15669,-0.068722
0.19,0.5884,-3.8834,8.2376,0.30513,0.12126,-0.046731
0.21133,0.74531,-3.4519,8.2572,0.17165,0.082467,-0.019548
0.22617,0.5884,-3.197,8.3749,-0.27336,0.023824,0.0064141
0.21295,0.70608,-3.0989,8.4141,-0.34728,-0.051313,0.023824
0.20297,0.49033,-3.3735,8.4337,-0.3146,-0.10171,0.025351
0.1879,0.66685,-2.9028,8.5514,-0.22174,-0.12675,0.0076358
0.17188,0.49033,-2.8243,8.4337,-0.12584,-0.12828,-0.0036652
0.14969,0.39227,-2.7655,8.7083,-0.039401,-0.10507,-0.014661
0.11472,0.2942,-2.6086,8.5514,0.0073304,-0.072693,-0.024129
0.075165,0.45111,-2.3144,8.8064,-0.14233,-0.044288,-0.021686
0.045258,0.2942,-2.5105,8.5514,1.0131,0.61025,-0.3485
0.022186,0.27459,-2.9812,8.9437,0.71166,0.81612,-0.18998
0.0060425,0.41188,-2.7851,8.5318,-0.35308,0.91416,0.31796
-0.0093994,-0.13729,-2.4713,8.9437,-1.3607,0.41386,0.35339
-0.028656,-0.5884,-2.6282,9.179,-1.4792,-0.24435,0.39218
-0.044281,-0.078453,-3.295,8.6299,-0.88362,-0.4612,0.19242
-0.05661,0.45111,-3.0008,8.3357,-0.15821,-0.29566,-0.14019
-0.061096,0.74531,-2.7655,7.7669,0.31215,-0.0051924,-0.36499
-0.07077,0.43149,-2.5105,8.2768,0.20097,-0.092852,0.32437
-0.064392,0.76492,-3.2362,9.2575,-0.091324,-0.22266,0.42333
-0.048981,0.90221,-4.3345,10.101,-0.2135,-0.26909,-0.074831
-0.024719,1.2945,-5.0406,9.3555,-0.17043,-0.20006,-0.090408
0.018799,1.9613,-3.3539,9.1594,-0.06353,-0.038485,-0.092241
0.0057983,0.90221,-1.1572,9.7478,-0.024435,0.081856,-0.0033598
-0.089508,0.60801,-0.37265,9.434,-0.026573,0.10537,0.14019
-0.24808,0.8826,-1.4906,8.0022,0.070555,0.14386,0.24526
-0.40518,1.3533,-1.5298,6.9039,0.49938,0.24496,0.03146
-0.56168,0.49033,-2.0986,7.61,0.50427,0.24251,0.069944
-0.70187,-0.27459,-2.7459,5.9036,0.37018,0.083078,0.4273
-0.79068,-2.589,-3.7854,10.277,0.12645,-0.0956,0.28986
-0.82562,-1.6083,-3.9423,12.317,-0.13439,-0.27397,0.17135
-0.85608,0.49033,-2.2751,10.219,-0.37415,-0.37385,0.058643
-0.86771,0.54917,-0.31381,8.0022,-0.64721,-0.38668,-0.036652
-0.85419,0.27459,-0.90221,6.0409,-0.99205,-0.39156,-0.025962
-0.85129,0.70608,-3.4519,6.845,-1.226,-0.44502,0.32437
-0.81039,1.5298,-4.5111,8.0611,-1.1918,-0.47922,0.34667
-0.75162,1.824,-3.5304,6.9235,-0.87629,-0.46365,0.074526
-0.70889,1.6671,-2.589,6.0409,-0.39981,-0.36346,0.048869
-0.71393,-0.80415,-0.37265,12.023,0.10385,-0.17776,-0.0051924
-0.74521,-2.9028,-2.7851,11.14,0.55772,0.068111,-0.041844
-0.73724,1.0787,-5.9821,8.1003,0.83475,0.29352,0.022297
-0.6394,2.1378,-4.668,7.9434,0.96242,0.46731,0.19853
-0.5054,0.039227,-1.7456,8.9437,-0.045509,0.029627,-0.0073304
-0.35138,-0.35304,-0.90221,9.3359,-0.10476,0.0064141,-0.016188
-0.21317,0.039227,-2.5693,8.7083,-0.13806,-0.0018326,0.010996
-0.065857,0.49033,-3.8442,8.8064,-0.13134,0.011606,0.0018326
0.086456,0.70608,-3.9423,8.9437,-0.090713,0.022297,-0.00030543
0.21347,0.80415,-3.4519,8.8652,-0.033292,0.019242,0.0033598
0.29794,0.76492,-2.9028,8.8652,0.021686,0.013744,0.0036652
0.34662,1.0395,-2.942,8.3945,0.058032,0.00061087,-0.0018326
0.37366,0.98067,-2.9812,7.8061,0.13714,-0.0085521,-0.04215
0.36871,0.76492,-2.9028,7.9434,0.11759,-0.0027489,-0.038485
0.37045,0.74531,-3.2166,8.2768,0.05681,0.016188,-0.025962
0.37683,0.56879,-3.0793,8.5514,-0.018937,0.033903,-0.0281
0.36914,0.27459,-3.0401,8.9044,-0.079107,0.029932,-0.029932
0.38293,0.35304,-3.0793,8.7083,-0.1011,0.0054978,-0.032376
0.38382,0.49033,-3.0989,8.218,0.081856,-0.021686,-0.033292
0.38037,0.39227,-3.1381,8.316,0.11393,-0.035736,-0.03879
0.37021,0.11768,-3.1381,8.7279,-0.043371,-0.032681,-0.03146
0.3504,0.39227,-3.2558,8.8064,-0.040012,-0.015272,-0.041233
0.32086,0.49033,-3.0008,8.4337,-0.053451,0.013439,-0.033598
0.28177,0.56879,-2.7262,8.3749,-0.070555,0.036957,-0.020464
0.24744,0.5884,-2.7262,8.7083,-0.072082,0.04612,-0.0064141
0.22568,0.74531,-3.0008,8.6299,-0.050702,0.044288,-0.0042761
0.20044,0.8826,-3.197,8.4141,-0.090713,0.04215,-0.0079412
0.17609,0.98067,-2.9028,8.2768,-0.065363,0.050091,-0.014966
0.15356,0.72569,-2.9224,8.3357,0.045509,0.062003,-0.034208
0.12192,0.74531,-3.3146,8.316,0.050702,0.067501,-0.014966
0.1066,0.80415,-3.3931,8.4926,0.030543,0.072388,-0.038485
0.089172,0.49033,-3.295,8.6299,0.0076358,0.07025,-0.032376
0.095367,0.54917,-3.1381,8.5514,0.0045815,0.058643,-0.024129
0.085114,0.5884,-3.1381,8.4337,0.023518,0.037568,-0.019853
0.070435,0.54917,-3.0008,8.5514,-0.016799,0.022907,-0.022297
0.050629,0.25497,-2.8439,8.6299,0.018021,0.029016,-0.032376
0.027435,0.27459,-3.0793,8.2572,-0.11484,-0.22052,-0.073609
0.0080566,0.27459,-3.4519,8.1787,-0.24435,-0.21258,-0.062308
0.010925,0.56879,-3.0597,8.4141,-0.3094,-0.18845,-0.16829
0.012939,0.5884,-2.8439,8.4926,-0.31734,-0.16157,-0.16341
0.012085,0.74531,-3.0597,8.2572,-0.26237,-0.13347,-0.13256
0.0018921,0.49033,-3.2362,8.2572,-0.1741,-0.093462,-0.10629
-0.0076294,0.74531,-3.0793,8.2768,-0.037263,-0.031765,-0.089797
-0.01413,0.17652,-2.9224,8.6495,0.10721,0.018631,-0.091324
-0.03363,0.27459,-3.0008,8.8652,0.2645,0.052229,-0.015882
-0.026978,0.23536,-2.7262,9.0613,0.28253,0.083994,0.0051924
-0.026367,0.17652,-2.687,8.9437,0.24954,0.10201,-0.065363
-0.021667,0.078453,-3.3931,9.689,0.17654,0.099571,-0.047037
-0.0090332,0.27459,-3.8834,9.5321,0.088575,0.086437,-0.030238
-3.0518e-05,0.41188,-3.7854,9.1006,0.024435,0.071166,-0.035125
-0.0083923,0.66685,-2.7459,9.3359,-0.0051924,0.066279,-0.043371
-0.063049,0.80415,-2.1182,9.3359,-0.023518,0.076358,-0.034819
-0.14841,1.3925,-2.3144,8.2376,-0.048869,0.094684,0.059865
-0.2533,1.3533,-2.6086,7.61,-0.097128,0.11148,0.029932
-0.34549,1.2749,-3.3146,7.7865,-0.18265,0.12553,0.033292
-0.39703,0.90221,-3.55,7.61,-0.27336,0.13042,0.061697
-0.418,0.60801,-3.5304,7.7473,-0.26114,0.13378,0.089797
-0.40955,0.41188,-3.197,7.8649,-0.11118,0.15516,0.11087
-0.39996,0.27459,-2.589,7.9238,0.15699,0.17623,0.11515
-0.37506,0.23536,-2.589,7.7865,0.4105,0.19395,0.090103
-0.35391,0.13729,-2.9028,8.1787,-0.081551,-0.061392,-0.12217
-0.33505,0.39227,-2.589,8.4141,-0.044899,-0.10293,-0.14233
-0.32346,0.25497,-2.2751,8.2768,0.076664,-0.11332,0.079412
-0.32465,0.45111,-2.7851,7.7865,0.27061,-0.095906,0.026267
-0.31949,0.27459,-3.9423,9.0417,0.4386,-0.066584,-0.0030543
-0.33917,0.41188,-3.8638,10.728,0.44318,-0.074831,-0.028405
-0.38803,0.49033,-2.4124,10.611,0.30024,-0.12675,-0.075442
-0.47891,0.43149,-1.0199,10.356,0.082161,-0.18967,-0.1124
-0.61121,1.1376,-2.4517,9.1594,-0.28833,-0.16127,-0.023518
-0.72491,1.8633,-4.4522,6.9235,-0.35155,-0.11851,-0.010385
-0.82001,2.2948,-3.5304,5.3544,-0.2361,-0.1405,-0.074831
-0.90179,-2.2359,-0.39227,12.003,0.017715,-0.19823,-0.067501
-0.9697,-1.9417,-2.1182,8.8064,0.22602,-0.21411,-0.047647
-0.98901,0.80415,-3.7265,8.0807,0.29566,-0.14722,-0.069639
-0.95593,0.96105,-1.8829,8.5514,-0.23763,-0.039095,-0.094684
-0.88376,-0.23536,0,8.8652,-0.18754,0.061087,-0.058338
-0.79291,-0.90221,-5.6486,5.7467,0.051924,0.12126,-0.059865
-0.65033,2.2948,-8.6495,5.6094,0.0073304,0.12798,-0.063225
-0.46146,2.4517,-7.2961,7.8649,0.01741,0.12401,0.00061087
-0.38141,-0.21575,-4.5111,10.454,0.07422,0.11606,-0.014661
-0.36557,0.35304,-3.0793,10.12,0.15424,0.10385,-0.028405
-0.39609,0.72569,-1.4318,9.5713,0.23946,0.092546,-0.03146
-0.36963,0.27459,-0.17652,9.0417,0.26114,0.085216,-0.037874
-0.32935,-0.50995,-0.52956,8.1199,0.15485,0.094073,-0.048258
-0.27197,-0.98067,-2.7851,8.1003,0.032987,0.11729,-0.068417
-0.18436,-0.078453,-5.1191,7.4531,0.31734,0.14264,-0.073915
-0.057251,0.98067,-5.021,6.9235,0.3262,0.14569,-0.057727
0.065552,0.86299,-5.021,7.2373,0.28894,0.12859,-0.04948
0.18546,0.90221,-4.4914,8.8456,0.23274,0.10873,-0.043371
0.29257,0.72569,-4.6287,7.9434,0.17074,0.089797,-0.045815
0.36215,1.3925,-4.5111,7.2765,0.10721,0.069333,-0.052229
0.40067,1.5298,-3.5304,7.3158,0.055589,0.049786,-0.058338
0.39954,0.86299,-3.3146,7.61,-0.47892,-0.19914,-0.087965
0.37332,0.74531,-3.6873,7.8061,-0.91966,-0.29719,-0.058643
0.34631,0.74531,-4.158,8.0807,-1.2825,-0.41081,0.058338
0.32523,0.80415,-4.3542,8.0807,-1.4722,-0.50274,0.090408
0.30612,1.118,-4.1972,8.0218,-1.4581,-0.55772,0.054367
0.27267,0.76492,-3.6088,8.2768,-1.2004,-0.50763,-0.019853
0.23117,0.66685,-3.4519,8.3749,-0.79077,-0.36682,-0.10171
0.20508,0.5884,-3.4519,8.4141,-0.43768,-0.23732,-0.13775
0.16959,0.66685,-3.7854,8.3749,0.2529,0.15333,0.34025
0.15997,0.70608,-4.0403,8.4729,0.19914,0.13225,0.32865
0.15997,0.80415,-3.5108,8.2768,0.15669,0.11209,0.063225
0.14413,0.66685,-3.3931,8.316,0.098044,0.094073,0.12156
0.13904,0.60801,-3.5108,8.2768,0.063225,0.080634,0.15944
0.1228,0.72569,-3.6873,8.2572,0.099571,0.095906,0.18601
0.11832,0.66685,-3.7854,7.9238,0.19548,0.15608,0.23121
0.11142,0.86299,-3.6677,7.8649,0.12248,0.25931,0.28863
0.095367,0.80415,-3.6873,8.0022,-0.12431,0.17776,-0.065668
0.08493,0.86299,-3.6285,8.2376,-0.34483,-0.051313,-0.087354
0.069427,1.0395,-3.7854,8.1003,-0.6579,-0.25473,0.19639
0.037415,1.2356,-3.6873,8.1003,-0.99632,-0.47189,0.069944
0.01239,1.2945,-3.4519,8.1199,-1.2514,-0.63194,-0.027184
-0.036072,0.76492,-3.2362,8.3945,-1.3919,-0.71349,-0.11545
-0.10269,0.76492,-3.295,8.7868,-1.4138,-0.75259,-0.12217
-0.18436,0.54917,-3.3931,8.9633,-1.2828,-0.76053,-0.076053
-0.2529,0.8826,-3.5304,8.6887,0.48136,0.28894,-0.097433
-0.3327,0.43149,-3.3146,8.4926,0.46059,0.25534,-0.095295
-0.39645,0.35304,-3.2166,8.6299,0.41081,0.2135,-0.064446
-0.46317,0.41188,-2.7851,8.7083,0.35155,0.17074,-0.058948
-0.5087,0.5884,-3.0597,8.1003,0.28955,0.14416,-0.072693
-0.57175,0.49033,-2.5105,8.0807,0.23518,0.13317,-0.086743
-0.61243,0.33343,-2.1378,8.2768,0.20708,0.13195,-0.085216
-0.63605,0.39227,-1.9809,9.0613,0.22083,0.13836,-0.085827
-0.63699,0.2942,-2.7262,9.5713,0.27672,0.14142,0.0051924
-0.65585,0.74531,-3.1381,7.9434,0.28008,0.14172,0.025962
-0.67661,-0.45111,-3.4519,8.3945,0.26053,0.13439,-0.092241
-0.69974,-2.5497,-4.2561,11.67,0.24129,0.11301,-0.094379
-0.71597,-0.76492,-3.2362,11.69,0.25901,0.099266,-0.085827
-0.7236,0.17652,-2.2751,8.6887,0.31704,0.1182,-0.073609
-0.72171,-0.21575,-2.2948,6.9235,0.35216,0.15272,-0.064141
-0.71725,0.098066,-3.1381,5.9036,0.3204,0.16677,-0.034208
-0.65875,0.5884,-4.0403,6.6097,-0.50121,-0.097128,-0.43249
-0.57172,0.86299,-3.3146,7.4531,-0.64171,-0.13286,-0.45998
-0.43454,-0.05884,-2.7655,8.8456,-0.65851,-0.26053,0.035125
-0.29883,0.2942,-3.0008,8.8064,-0.61087,-0.3711,0.027489
-0.19571,0.90221,-3.8246,8.0807,-0.53787,-0.42638,-0.075747
-0.10623,1.3925,-4.2953,7.4531,-0.42974,-0.44593,-0.21105
-0.054718,1.3533,-3.8638,7.4531,-0.13378,-0.45601,-0.32712
-0.013275,1.1964,-3.0793,8.0807,-0.28741,-0.44868,-0.39981
-0.0074768,1.1964,-3.3735,7.8649,0.063835,0.18967,-0.0562
-0.0023193,1.5495,-3.5108,8.1199,0.093768,0.19456,-0.054367
0.016052,1.5298,-3.6873,8.316,0.10843,0.19639,-0.018937
0.020325,1.6083,-3.8638,8.1003,0.1124,0.19731,-0.023213
0.034058,1.2356,-3.9815,8.2376,0.1179,0.20036,-0.019548
0.026855,1.6083,-3.8834,8.3749,0.12614,0.19578,-0.022907
0.020844,1.216,-3.8442,8.316,0.12431,0.17685,-0.036957
0.0032654,1.0591,-3.7658,8.2768,0.11026,0.1573,-0.051313
-0.0067444,0.74531,-3.5304,8.2572,0.092546,0.1405,0.3094
-0.031677,0.74531,-3.3539,8.0807,0.16524,0.12706,0.4612
-0.05014,0.66685,-3.1381,8.1199,0.36133,0.1127,-0.034514
-0.085602,1.1376,-3.4716,7.7865,0.68356,0.090713,0.0015272
-0.1539,1.5495,-3.1577,6.8254,1.0886,0.096822,0.050091
-0.23929,1.0787,-1.6279,8.0807,1.4902,0.18082,0.095906
-0.40375,-3.8246,-0.80415,13.298,0.089186,0.33353,0.14966
-0.55762,-4.6091,-5.1191,10.454,0.080634,0.5397,0.21166
-0.64111,1.1964,-4.9229,8.4337,0.0024435,0.77427,-0.34911
-0.64359,0.56879,-2.7459,7.61,-1.0629,0.90683,-0.10537
-0.59921,-1.1572,-1.9417,7.6296,-1.3705,0.562,0.58826
-0.54083,-1.1572,-3.6285,8.2572,-1.1035,-0.14722,0.62094
-0.47314,-0.37265,-5.4133,9.1986,-0.63133,-0.59284,0.46151
-0.38834,0.098066,-5.7467,8.9437,-0.24251,-0.62766,0.12248
-0.29596,0.27459,-4.9426,8.7475,1.6435,-0.44685,-0.24251
-0.20901,0.17652,-4.3934,8.7279,1.1671,-0.22785,-0.44043
-0.15662,-0.05884,-4.0011,8.6495,-1.1765,-0.71288,-0.3317
-0.084564,-0.11768,-4.0403,8.7279,-1.3008,-0.70647,-0.27122
-0.03186,0.33343,-3.3931,8.5514,-1.478,-0.73273,-0.27397
-0.011566,0.2942,-3.2558,8.0807,-1.6277,-0.7761,-0.2474
-0.007782,0.5884,-3.295,7.9434,-1.6958,-0.80207,-0.25595
0.0067444,1.0199,-3.5108,7.7865,-1.7037,-0.79412,-0.28955
0.031189,1.1964,-3.7658,7.8649,-1.6655,-0.74862,-0.32651
0.0737,1.4514,-4.4914,7.7669,-1.5641,-0.67348,-0.35155
0.13904,2.2751,-4.8837,7.1589,-1.4291,-0.59284,-0.16341
0.22308,2.2948,-4.9622,6.6881,-1.3268,-0.5455,-0.11332
0.3186,2.6478,-4.668,6.1978,-1.295,-0.52718,-0.22358
0.40717,2.6086,-4.158,6.3351,-1.3149,-0.50855,-0.21228
0.49442,2.4713,-4.3345,6.3939,-1.3228,-0.48961,-0.21472
0.57141,3.0008,-5.1975,5.9036,-1.2776,-0.46823,-0.21075
0.63916,3.5304,-5.9624,5.4329,-1.1851,-0.42333,-0.20036
0.68146,3.5304,-6.0213,4.8249,-1.0745,-0.34025,-0.18754
0.76224,3.2558,-6.0213,4.9426,-0.90958,-0.25076,0.14539
0.81314,3.4912,-5.8055,4.7856,-0.85155,-0.18479,0.15027
0.87393,3.7069,-5.9232,4.4522,-0.78771,-0.13042,-0.040317
0.93527,4.158,-6.1978,3.9423,-0.71319,-0.05681,0.0073304
0.99945,4.1776,-5.7467,3.9423,-0.62125,0.037874,0.020769
1,3.903,-5.8252,3.7069,-0.53145,0.1292,0.046731
1,4.2757,-5.884,3.4127,-0.47342,0.20006,0.094379
1,3.9423,-6.0801,3.6873,-0.41814,0.27031,0.13317
1,4.0403,-6.2763,3.8442,-0.33445,0.3488,0.45173
1,3.8638,-6.3351,4.0403,-0.2364,0.41966,0.49358
1,4.1776,-5.5898,3.8442,-0.12401,0.489,0.17257
1,4.1776,-5.3937,4.1384,0.0036652,0.57146,0.21411
1,4.1188,-4.9426,4.158,0.10843,0.66126,0.26328
1,3.7265,-5.2564,4.3934,0.12431,0.72815,0.32193
1,4.1188,-6.2763,4.158,0.019548,0.79535,0.37904
1,3.805,-6.6685,4.413,-0.16799,0.86834,0.4163
1,3.4912,-6.6685,5.0798,1.405,0.1686,0.11209
1,3.2166,-6.1978,5.8055,1.2205,0.22052,0.13134
1,3.0989,-5.6094,6.237,0.98258,0.27336,0.36011
1,2.589,-6.4528,6.6685,0.74739,0.31185,0.33201
1,2.4517,-7.9238,6.6097,0.60964,0.35491,0.29688
1,2.432,-8.6495,6.6685,0.62125,0.4441,0.24557
1,1.9025,-8.6495,7.3746,0.75503,0.5791,0.17318
1,1.4906,-7.963,7.61,0.95142,0.73273,0.11759
1,1.1376,-7.4334,7.61,1.4649,0.88484,0.42119
1,1.2749,-6.6685,7.1392,1.5663,1.0134,0.45845
1,0.90221,-6.2763,7.0019,1.6289,1.0861,0.15516
1,0.80415,-6.5312,6.5116,1.613,1.1099,0.19456
1,0.90221,-6.1978,5.9036,1.5119,1.1066,0.23243
1,0.74531,-5.7663,5.7467,1.3421,1.1029,0.25412
1,0.45111,-5.2564,5.6682,1.1658,1.0776,0.28833
1,0.49033,-4.9229,5.7075,1.3408,0.9841,0.35186
0.99063,0.41188,-5.276,5.4329,0.75533,0.82772,0.28161
0.92279,0.80415,-5.9624,4.8053,0.6805,0.64904,0.26573
0.85962,0.80415,-6.2763,5.0995,0.63408,0.49083,0.4496
0.763,0.80415,-5.7467,5.9036,0.57574,0.3598,0.416
0.67584,0.35304,-4.9622,6.4332,0.49266,0.25779,0.3879
0.53635,0.41188,-4.5503,7.1196,0.36316,0.18509,0.35461
0.35547,0.2942,-3.8834,7.7865,1.1173,0.13103,0.31673
0.1777,0.39227,-4.158,8.7279,0.89889,0.069333,0.29383
-0.024597,1.1376,-5.2564,9.2183,-0.44685,-0.0048869,0.24587
-0.23462,1.5495,-5.8055,9.1986,-0.7083,-0.098349,0.24007
-0.44952,1.9809,-4.8249,8.6299,-0.90194,-0.18967,0.24038
-0.6243,1.5102,-3.6873,8.4141,-1.0055,-0.25443,0.21289
-0.74182,0.76492,-3.0597,8.1003,-1.0018,-0.28802,0.20342
-0.79816,0.47072,-3.0008,7.7473,-0.90744,-0.29383,0.21136
-0.75323,0.27459,-3.8246,7.4334,0.15455,-0.26695,0.22541
-0.65158,0.098066,-5.0798,7.0608,-0.13928,-0.20372,0.23915
-0.47897,0.039227,-5.6486,7.0019,-0.19548,0.079718,-0.013439
-0.22452,-0.45111,-5.884,7.1589,-0.18784,0.071166,-0.0064141
0.021912,-0.70608,-4.7856,7.3158,-0.1744,0.065973,-0.064752
0.22433,-0.68647,-4.4718,7.3746,-0.15791,0.060476,-0.05681
0.36679,-0.84337,-4.6091,7.7473,-0.14478,0.052534,-0.048564
0.48087,-0.66685,-4.3934,8.0807,-0.1295,0.044288,-0.041233
0.53909,-0.82376,-4.2561,8.3945,-0.12126,0.03146,-0.030849
0.55264,-0.66685,-3.9423,8.3945,-0.11515,0.019548,-0.02138
0.51895,-0.5884,-3.6088,8.4141,-0.10843,0.0048869,0.01405
0.4675,-0.27459,-4.0207,7.963,-0.10629,-0.012828,0.017715
0.40976,-0.078453,-4.4914,7.4531,-0.10201,-0.026573,-0.0015272
0.34152,0.039227,-5.1191,7.1785,-0.093768,-0.036957,-0.0009163
0.28903,-0.21575,-4.9426,7.2373,-0.085827,-0.045204,0.00061087
0.23416,-0.39227,-4.668,7.4531,-0.076053,-0.053145,0.0024435
0.20459,-0.43149,-4.6091,7.5511,-0.064141,-0.059254,0.0064141
0.16272,-0.68647,-4.3345,7.5903,-0.053756,-0.060781,0.010079
0.13531,-0.52956,-4.6484,7.4727,-0.045509,-0.063835,0.012523
0.10223,-0.68647,-4.7268,7.3158,-0.045509,-0.068417,0.01069
0.084076,-0.35304,-4.668,7.3746,-0.050396,-0.073915,0.018326
0.065918,-0.37265,-4.7856,7.3354,-0.053756,-0.079412,0.019853
0.045807,-0.45111,-4.7856,7.2961,-0.059254,-0.079107,0.019853
0.037476,-0.50995,-4.7856,7.4334,-0.066279,-0.077274,0.020159
0.027039,-0.35304,-4.7072,7.3158,-0.07422,-0.075747,0.019548
0.029022,-0.2942,-4.9818,7.2765,-0.079718,-0.07025,0.015272
0.01181,-0.45111,-4.8837,7.3158,-0.10018,0.18692,-0.077274
-0.0059509,-0.35304,-4.766,7.2373,-0.067195,0.19426,-0.070555
-0.016296,-0.5884,-4.7072,7.3942,-0.069028,0.18815,-0.091935
-0.019196,-0.52956,-4.766,7.3354,-0.090713,0.17196,-0.094379
-0.025513,-0.50995,-4.8053,7.4531,-0.12309,0.1518,-0.093157
-0.042084,-0.33343,-4.8837,7.3158,-0.15211,0.12828,-0.089186
-0.027679,-0.37265,-4.7856,7.4727,-0.17593,0.10507,-0.086743
-0.035431,-0.27459,-4.7856,7.3746,-0.19181,0.089186,-0.082161
-0.029938,-0.21575,-5.021,7.2373,-0.073609,-0.027794,-0.0030543
-0.018402,-0.23536,-4.7856,7.3746,-0.083078,-0.033903,-0.0027489
0.020081,-0.27459,-4.6287,7.4531,-0.092852,-0.041844,-0.0012217
0.040436,-0.27459,-4.6484,7.3746,-0.097433,-0.047647,0.00061087
0.072174,-0.50995,-4.8053,7.3158,-0.099876,-0.050091,0.0009163
0.090057,-0.13729,-4.9622,7.1785,-0.10201,-0.047342,-0.0015272
0.11105,-0.13729,-5.021,7.1589,-0.057116,-0.044899,-0.002138
0.12286,-0.27459,-4.9818,7.0804,-0.06689,-0.044288,-0.0036652
0.14343,-0.50995,-4.8837,7.3158,-0.14752,-0.043982,-0.014966
0.14233,-0.21575,-5.021,7.1392,-0.15608,-0.047037,-0.015272
0.17694,-0.21575,-5.021,7.2373,-0.16677,-0.045509,-0.007025
0.18591,-0.27459,-4.9426,7.1589,-0.17471,-0.044288,-0.0094684
0.19373,-0.21575,-5.021,7.1392,-0.17654,-0.048258,-0.0085521
0.19876,-0.35304,-4.9818,7.1196,-0.16768,-0.050702,-0.010996
0.20676,-0.19613,-5.0798,7.1196,-0.11606,-0.051924,-0.01069
0.22278,-0.11768,-5.021,7.2373,-0.13867,-0.047342,-0.012523
0.21716,-0.33343,-5.0406,7.0804,-0.072693,-0.02138,-0.0073304
0.22885,-0.23536,-5.021,7.1589,-0.067501,-0.01741,-0.0067195
0.22601,-0.05884,-4.9426,7.1589,-0.070555,-0.018021,-0.026573
0.22357,-0.05884,-4.9622,7.1589,-0.069944,-0.021686,-0.021991
0.24301,-0.05884,-5.021,7.2765,-0.068417,-0.021991,-0.018937
0.24796,-0.35304,-4.9426,7.2765,-0.064752,-0.015272,-0.015882
0.27017,-0.13729,-5.021,7.1589,-0.056505,-0.011301,-0.011912
0.25854,-0.05884,-5.0798,7.1589,-0.049786,-0.011912,-0.0076358
0.28339,-0.13729,-4.9622,7.1589,-0.050396,-0.015577,-0.0064141
0.2861,-0.27459,-5.1191,7.1785,-0.054978,-0.020159,-0.0039706
0.28397,-0.039227,-5.0798,7.1785,-0.060476,-0.023824,-0.0064141
0.30649,-0.019613,-4.9818,7.1785,-0.06017,-0.02474,-0.0076358
0.3212,-0.23536,-5.0798,7.0608,-0.052229,-0.024129,-0.01069
0.32324,-0.21575,-5.0995,6.9627,-0.043677,-0.021686,-0.012217
0.32108,-0.039227,-5.1975,7.0216,-0.040317,-0.02138,-0.011606
0.32819,-0.05884,-5.1975,7.0216,-0.046426,-0.023213,-0.0088575
0.33398,-0.17652,-5.0995,7.0216,-0.018631,0.030849,-0.014966
0.36618,-0.35304,-5.5898,7.2177,-0.019853,0.0281,-0.015577
0.38916,-0.05884,-5.2564,7.0608,-0.021075,0.028711,-0.017715
0.40167,-0.21575,-5.1779,6.9823,-0.020769,0.029627,-0.016188
0.41986,-0.05884,-5.2368,7.0019,-0.019548,0.027794,-0.014966
0.45163,-0.019613,-5.4133,7.0608,-0.014355,0.025962,-0.015272
0.49109,-0.019613,-5.1191,7.1785,-0.007025,0.023213,-0.015882
0.55109,-0.27459,-5.1387,7.0608,-0.0015272,0.021991,-0.014661
0.60205,-0.05884,-5.4917,6.6685,-0.0058032,0.019853,-0.0061087
0.66348,0.039227,-5.6486,6.6097,-0.00061087,0.020464,-0.00061087
0.70294,0.27459,-5.7467,6.492,0.0018326,0.019242,-0.015882
0.71539,0.078453,-5.5898,6.6097,0.0082467,0.015882,-0.015882
0.72104,0.098066,-5.5702,6.6685,0.011912,0.01405,-0.012828
0.70047,0.039227,-5.4133,6.747,0.013134,0.011912,-0.010079
0.68179,0.098066,-5.6486,6.8254,0.011606,0.010079,-0.0094684
0.63599,-0.019613,-5.5113,6.8058,0.0054978,0.0064141,-0.009163
0.60239,0.039227,-5.4133,6.7666,-0.015577,0.0088575,-0.0073304
0.57446,0.23536,-5.5898,6.6685,-0.034514,0.007025,-0.0064141
0.54141,0.019613,-5.5113,6.6685,-0.050702,-0.0030543,-0.010996
0.52521,0.13729,-5.5702,6.8058,-0.059254,-0.009163,-0.0097738
0.49475,-0.019613,-5.5506,6.6881,-0.057116,-0.0048869,-0.0094684
0.47644,-0.05884,-5.5898,6.6489,-0.051007,0.0015272,-0.0094684
0.47382,0.078453,-5.4525,6.8254,-0.039401,0.0076358,-0.010385
0.47363,-0.13729,-5.4133,6.8254,-0.029932,0.013439,-0.0097738
0.448,-0.13729,-5.4329,6.8254,-0.028405,0.015882,-0.015272
0.44638,-0.078453,-5.4329,6.8254,-0.027489,0.016799,-0.017104
0.42691,-0.019613,-5.5113,6.6881,-0.020769,0.021075,-0.007025
0.42825,-0.039227,-5.4525,6.8254,-0.012523,0.027794,-0.009163
0.43661,0.17652,-5.5898,6.6489,-0.0082467,0.031154,-0.011606
0.45209,0.039227,-5.4329,6.6685,-0.007025,0.032376,-0.012828
0.45996,0.098066,-5.5113,6.747,-0.0097738,0.032681,-0.013744
0.46799,0.098066,-5.4917,6.8254,-0.015882,0.03207,-0.013744
0.47964,0.11768,-5.4133,6.747,-0.019548,0.020464,-0.011301
0.50043,0.11768,-5.3937,6.747,-0.0079412,0.025045,-0.01069
0.52219,-0.13729,-5.4133,6.8254,-0.0009163,0.028711,-0.009163
0.54706,0.098066,-5.4525,6.7666,0.00030543,0.032987,-0.0088575
0.54807,-0.05884,-5.5113,6.8254,-0.0054978,0.035125,-0.0094684
0.5636,0.039227,-5.4329,6.747,-0.014661,0.033903,-0.0097738
0.5661,0.098066,-5.5702,6.747,-0.024129,0.032376,-0.012217
0.55688,-0.039227,-5.5113,6.9235,-0.0281,0.028711,-0.012828
0.57224,-0.078453,-5.4917,6.845,-0.0079412,0.034208,-0.014355
0.57794,-0.019613,-5.5702,6.6685,-0.012828,0.034208,-0.012523
0.5929,0.098066,-5.5898,6.7666,-0.022602,0.031765,-0.011912
0.6105,0.17652,-5.4133,6.7666,-0.027794,0.030238,-0.013134
0.61139,-0.05884,-5.4133,6.8254,-0.029016,0.029016,-0.015577
0.61359,0.019613,-5.4329,6.8058,-0.0281,0.029932,-0.017715
0.60938,-0.11768,-5.4525,6.8647,-0.023824,0.032376,-0.017104
0.60361,0.13729,-5.6682,6.747,-0.018937,0.033598,-0.016188
0.60519,0.039227,-5.4133,6.747,-0.018937,0.033292,-0.0024435
0.62741,-0.019613,-5.5898,6.7077,-0.024435,0.032681,-0.0033598
0.63351,0.11768,-5.4329,6.8058,-0.031765,0.029322,-0.0097738
0.62891,-0.05884,-5.4133,6.8254,-0.033292,0.025045,-0.0073304
0.6416,0.039227,-5.3348,6.747,-0.029627,0.020159,-0.0058032
0.64767,-0.21575,-5.4133,6.8254,-0.025045,0.018631,-0.0039706
0.62283,-0.05884,-5.5113,6.6685,-0.014355,0.018021,-0.0051924
0.62265,0.13729,-5.5113,6.8254,-0.015577,0.018326,-0.0042761
0.61176,-0.039227,-5.4525,6.747,-0.01069,0.018326,-0.0076358
0.59302,-0.019613,-5.4525,6.7077,-0.0058032,0.015882,-0.009163
0.5983,0.11768,-5.4525,6.8058,-0.0012217,0.019853,-0.0039706
0.56967,-0.039227,-5.5506,6.6685,-0.0012217,0.02474,-0.0051924
0.55179,0.039227,-5.5702,6.7666,-0.0097738,0.027489,-0.0067195
0.55212,0.078453,-5.3937,6.747,-0.018021,0.027489,-0.0073304
0.50659,0.078453,-5.4133,6.8254,-0.02138,0.024435,-0.007025
0.51895,-0.21575,-5.4133,6.845,-0.015882,0.021075,-0.0064141
0.52032,0.11768,-5.5506,6.6881,-0.025962,0.018631,-0.019853
0.52466,-0.23536,-5.884,6.9039,-0.01405,0.01741,-0.021686
0.53824,0.039227,-5.4917,6.6685,-0.0018326,0.022602,-0.020769
0.53711,0.078453,-5.4133,6.747,0.0048869,0.026878,-0.019853
0.54984,0.098066,-5.5506,6.7666,0.0039706,0.026573,-0.01741
0.55273,-0.05884,-5.5506,6.845,-0.0039706,0.022907,-0.016799
0.55093,-0.039227,-5.5702,6.8254,-0.01405,0.018937,-0.018326
0.55099,-0.11768,-5.4133,6.8254,-0.022602,0.015272,-0.019548
0.57108,0.11768,-5.5506,6.8058,-0.026267,0.012828,-0.015882
0.56744,-0.019613,-5.4525,6.8058,-0.02474,0.016188,-0.016493
0.57321,0.098066,-5.4329,6.8254,-0.021075,0.014966,-0.022297
0.569,-0.13729,-5.3937,6.8254,-0.019548,0.013439,-0.020769
0.57474,-0.039227,-5.5898,6.8254,-0.020159,0.015272,-0.018326
0.58646,0.039227,-5.5898,6.6489,-0.019548,0.015272,-0.016799
0.58929,-0.019613,-5.4329,6.8058,-0.016799,0.015577,-0.016799
0.57965,-0.05884,-5.4133,6.8254,-0.018021,0.015577,-0.016188
0.586,0.098066,-5.4525,6.8254,-0.022297,0.015272,-0.018021
0.56573,0.098066,-5.4525,6.8058,-0.023518,0.013439,-0.01741
0.57083,0.11768,-5.7075,6.6881,-0.023213,0.014661,-0.01741
0.55899,0.039227,-5.5702,6.7077,-0.023213,0.014966,-0.018021
0.56561,0.11768,-5.4133,6.7077,-0.022602,0.015577,-0.01741
0.56796,0.11768,-5.4133,6.747,-0.022297,0.014661,-0.017715
0.54901,-0.05884,-5.4133,6.7077,-0.022297,0.014661,-0.017104
0.53876,0.11768,-5.5898,6.747,-0.020769,0.015272,-0.016799
0.55356,0.078453,-5.4133,6.747,-0.014661,0.015577,-0.016493
0.54272,-0.05884,-5.5702,6.8058,-0.010079,0.014966,-0.01741
0.52588,0.098066,-5.5113,6.8058,-0.010079,0.016493,-0.018326
0.50885,0.098066,-5.7075,6.747,-0.013134,0.018326,-0.017715
0.50552,0.039227,-5.5506,6.8058,-0.016493,0.015882,-0.016188
0.49585,0.17652,-5.4133,6.7666,-0.022602,0.014966,-0.01741
0.49524,-0.019613,-5.5113,6.747,-0.027184,0.011912,-0.018021
0.48193,0.078453,-5.4329,6.747,-0.026573,0.0079412,-0.017104
0.48709,0.078453,-5.5506,6.7077,-0.0082467,0.007025,-0.0061087
0.48193,0.17652,-5.4329,6.8254,-0.0088575,0.0082467,-0.0045815
0.49725,0.039227,-5.5113,6.8058,-0.012217,0.0067195,-0.0012217
0.49966,-0.11768,-5.5506,6.9235,-0.014661,0.0061087,-0.0024435
0.47946,-0.039227,-5.5506,6.6685,-0.016799,0.0051924,-0.0039706
0.47504,0.039227,-5.5702,6.747,-0.016799,0.0058032,-0.0039706
0.48102,0.17652,-5.3937,6.7077,-0.015577,0.0051924,-0.0036652
0.46335,0.23536,-5.4525,6.747,-0.01405,0.0054978,-0.0048869
0.45996,0.25497,-5.4329,6.747,-0.0076358,0.0067195,-0.0067195
0.46408,0.078453,-5.4525,6.7077,-0.0058032,0.0094684,-0.0079412
0.47217,0.078453,-5.5113,6.747,-0.0085521,0.011912,-0.0045815
0.47833,0.039227,-5.5113,6.6685,-0.013439,0.013134,-0.0054978
0.47449,0.039227,-5.5702,6.8254,-0.018021,0.013439,-0.0054978
0.47699,0.13729,-5.4133,6.8058,-0.019853,0.011606,-0.0054978
0.48242,0.17652,-5.4525,6.8254,-0.01405,0.010079,-0.007025
0.5033,0.098066,-5.4329,6.747,-0.011912,0.0088575,-0.007025
0.5062,0.039227,-5.5113,6.8254,-0.013439,0.0088575,-0.0033598
0.50003,0.11768,-5.5113,6.8254,-0.011912,0.0054978,-0.0027489
0.49261,0.078453,-5.5506,6.747,-0.010079,0.0061087,-0.0076358
0.49646,0.23536,-5.7075,6.7666,-0.01069,0.010079,-0.007025
0.48978,0.019613,-5.4525,6.6881,-0.013439,0.01069,-0.0039706
0.50421,0.25497,-5.5113,6.8254,-0.016493,0.0076358,-0.0018326
0.50674,-0.13729,-5.4133,6.845,-0.018631,0.0061087,-0.0012217
0.47675,0.039227,-5.5113,6.6881,-0.015882,0.0054978,-0.002138
0.47305,0.098066,-5.4133,6.747,-0.0073304,0.0085521,-0.0027489
0.45905,-0.05884,-5.5898,6.8647,-0.0067195,0.0048869,-0.0030543
0.45285,0.17652,-5.4133,6.8058,-0.0076358,0.007025,-0.010079
0.44107,-0.05884,-5.3937,6.8647,-0.014355,0.0064141,-0.0076358
0.43594,0.078453,-5.4133,6.747,-0.022907,0.0015272,-0.0061087
0.43201,0.11768,-5.5113,6.8254,-0.026267,-0.0012217,-0.0067195
0.41785,0.17652,-5.4133,6.8058,-0.02138,-0.00061087,-0.0067195
0.42166,0.039227,-5.5506,6.6685,-0.013744,0.0027489,-0.0039706
0.41794,-0.13729,-5.4917,6.8647,-0.007025,0.010996,0.0027489
0.41147,-0.17652,-5.7663,6.8254,-0.01069,0.012828,0
0.42953,0.13729,-5.4133,6.747,-0.012217,0.01069,-0.00030543
0.42776,0.039227,-5.5113,6.9235,-0.012217,0.0088575,0.0039706
0.43237,0.25497,-5.4133,6.7666,-0.013134,0.0094684,0.0054978
0.4274,-0.11768,-5.4133,6.8254,-0.014966,0.0097738,0.0048869
0.4075,-0.019613,-5.4329,6.747,-0.019548,0.009163,0.0048869
0.40158,0.11768,-5.4525,6.845,-0.023824,0.007025,0.0045815
0.40527,0.11768,-5.5702,6.747,-0.027489,0.007025,-0.0012217
0.39505,-0.039227,-5.5113,6.9039,-0.021686,0.0076358,-0.0039706
0.37686,0.098066,-5.5506,6.8254,-0.012523,0.011606,-0.00061087
0.38254,0.27459,-5.4133,6.7666,-0.0079412,0.015272,-0.0012217
0.37778,0.25497,-5.4133,6.747,-0.0067195,0.018021,0.00030543
0.37415,0.039227,-5.4133,6.747,-0.0085521,0.018021,-0.0009163
0.3649,0.039227,-5.5113,6.747,-0.01069,0.018631,-0.0012217
0.36057,0.039227,-5.5113,6.7666,-0.012523,0.017715,0
0.35934,-0.039227,-5.4917,6.6685,-0.01405,0.017104,-0.0061087
0.36725,-0.05884,-5.5506,6.6489,-0.016493,0.018021,-0.0048869
0.37875,0.019613,-5.4329,6.747,-0.020159,0.018021,-0.0051924
0.38791,-0.05884,-5.4133,6.8254,-0.021686,0.01741,-0.0054978
0.39804,-0.13729,-5.4133,6.9235,-0.019853,0.016493,-0.0048869
0.39899,0.098066,-5.5506,6.845,-0.020159,0.015882,-0.0064141
0.41583,0.039227,-5.4329,6.8254,-0.02138,0.01741,-0.0076358
0.4082,0.17652,-5.4133,6.8647,-0.019548,0.016188,-0.007025
0.40314,-0.019613,-5.4329,6.8058,-0.011912,0.016799,-0.0048869
0.40613,0.17652,-5.5113,6.8058,-0.010079,0.013744,-0.0036652
0.40146,0.098066,-5.5113,6.8254,-0.011301,0.013744,-0.0073304
0.41769,0.039227,-5.5113,6.6685,-0.011606,0.013439,-0.0073304
0.39972,0.17652,-5.4133,6.8254,-0.012217,0.012828,-0.0061087
0.39267,0.098066,-5.4133,6.747,-0.010079,0.012523,-0.0039706
0.38852,-0.05884,-5.5113,6.845,-0.007025,0.010079,-0.0039706
0.38339,0.19613,-5.7075,6.8058,-0.0045815,0.0088575,-0.0042761
0.36273,-0.039227,-5.5113,6.6685,-0.010996,0.0085521,-0.0033598
0.39856,-0.019613,-5.4525,6.747,-0.0058032,0.009163,-0.0018326
0.41489,0.098066,-5.5113,6.747,-0.0082467,0.009163,-0.013134
0.41351,0.019613,-5.4525,6.747,-0.010996,0.0076358,-0.011912
0.42297,-0.039227,-5.4329,6.6881,-0.0085521,0.0058032,-0.0097738
0.41406,0.11768,-5.4329,6.8058,-0.0067195,0.0042761,-0.0097738
0.41223,0.039227,-5.4133,6.747,-0.017715,0.0030543,-0.009163
0.41211,-0.05884,-5.4133,6.8254,-0.017715,0.0030543,-0.0058032
0.40662,0.17652,-5.4917,6.8058,-0.017715,0.0033598,-0.0042761
0.40021,0.11768,-5.4133,6.8254,-0.02138,-0.0015272,-0.0039706
0.39679,0.17652,-5.4133,6.8254,-0.021075,0,0.00061087
0.39749,0.039227,-5.4133,6.8058,-0.022297,-0.00061087,0.0012217
0.37997,-0.019613,-5.5113,6.747,-0.022297,-0.0024435,0.0015272
0.40656,-0.019613,-5.4917,6.6685,-0.021991,-0.002138,0.0015272
0.38882,0.23536,-5.4133,6.8254,-0.0082467,-0.0027489,0
0.37198,0.098066,-5.4133,6.8254,-0.01069,-0.0024435,-0.0024435
0.36255,-0.05884,-5.4525,6.7666,-0.01069,0.0088575,-0.01069
0.36005,-0.05884,-5.5113,6.6881,-0.014661,0.0073304,-0.0088575
0.36942,0.17652,-5.4525,6.747,-0.020769,0.010996,-0.0067195
0.36298,0.098066,-5.4133,6.8058,-0.02138,0.015882,-0.0082467
0.34271,0.13729,-5.5506,6.747,-0.016799,0.020464,-0.0094684
0.34396,-0.13729,-5.4133,6.845,-0.014966,0.022297,-0.010079
0.323,0.098066,-5.5506,6.8254,-0.017104,0.019548,-0.009163
0.32468,0.039227,-5.5113,6.6489,-0.024435,0.018326,-0.010385
0.31662,0.17652,-5.4133,6.747,-0.02474,0.017104,-0.013439
0.31644,0.17652,-5.6486,6.8254,-0.017715,0.01741,-0.012217
0.31488,0.098066,-5.4133,6.8058,-0.012217,0.016799,-0.011301
0.30026,0.098066,-5.5506,6.8254,-0.011606,0.018937,-0.012828
0.30566,0.17652,-5.6486,6.8058,-0.014355,0.018937,-0.013439
0.30899,0.25497,-5.3544,6.7666,-0.015577,0.016493,-0.014355
0.30206,0.13729,-5.4133,6.747,-0.029932,0.014355,-0.014966
0.30444,-0.019613,-5.5113,6.8647,-0.028405,0.011301,-0.015882
0.29608,0.19613,-5.4329,6.8254,-0.016493,0.036652,-0.011606
0.31952,0.019613,-5.8252,6.9235,-0.023824,0.032681,-0.011606
0.33539,0.098066,-5.4525,6.6881,-0.029627,0.029016,-0.011606
0.33032,0.039227,-5.4133,6.8058,-0.027794,0.026878,-0.012217
0.33221,0.23536,-5.5506,6.747,-0.019242,0.0281,-0.01405
0.31796,0.098066,-5.4525,6.747,-0.011606,0.032376,-0.013134
0.31033,0.039227,-5.5702,6.8254,-0.0085521,0.033292,-0.012523
0.31384,0.17652,-5.4525,6.8058,-0.01069,0.03146,-0.010996
0.30972,0.19613,-5.4133,6.8647,-0.015577,0.03146,-0.010996
0.31046,-0.019613,-5.4329,6.7666,-0.018021,0.034514,-0.011912
0.31113,0.019613,-5.4329,6.747,-0.020159,0.033598,-0.012217
0.32629,0.078453,-5.5113,6.747,-0.022602,0.029932,-0.011606
0.31198,0.039227,-5.4329,6.6685,-0.022602,0.027489,-0.011912
0.30927,0.019613,-5.4133,6.747,-0.024129,0.025962,-0.011912
0.30737,0.098066,-5.3937,6.8058,-0.026573,0.024129,-0.010079
0.29785,-0.13729,-5.4329,6.8254,-0.025656,0.024435,-0.010385
0.30423,-0.21575,-5.5113,6.845,-0.021686,0.023824,-0.011912
0.29712,0.25497,-5.4133,6.8058,-0.020159,0.018326,-0.012217
0.30228,0.098066,-5.3544,6.8058,-0.020159,0.019242,-0.012523
0.29477,0.13729,-5.4329,6.8254,-0.022907,0.020464,-0.012523
0.30518,-0.21575,-5.4525,6.9235,-0.022297,0.018326,-0.012217
0.29446,0.17652,-5.6486,6.8058,-0.020464,0.018937,-0.012217
0.29962,0.23536,-5.4133,6.845,-0.018937,0.021991,-0.012523
0.29688,0.039227,-5.5113,6.7077,-0.020769,0.02474,-0.011912
0.28278,0.17652,-5.5898,6.747,-0.025351,0.026573,-0.01069
0.28052,0.098066,-5.5113,6.8058,-0.029627,0.029322,-0.011912
0.27936,0.11768,-5.5506,6.845,-0.03207,0.027489,-0.012217
0.27115,0.098066,-5.5113,6.747,-0.030543,0.026267,-0.013744
0.25662,0.17652,-5.6682,6.747,-0.026878,0.027794,-0.015577
0.26508,0.23536,-5.4133,6.8254,-0.016799,0.03146,-0.015577
0.26208,-0.05884,-5.4133,6.845,-0.01069,0.034819,-0.01405
0.26276,0.17652,-5.5702,6.8058,-0.011301,0.036652,-0.011606
0.27332,0.039227,-5.4133,6.8058,-0.018021,0.029016,-0.037568
0.27963,0.098066,-5.5506,6.845,-0.012217,0.034819,-0.030849
0.3093,0.13729,-5.5113,6.747,-0.0054978,0.036652,-0.017715
0.30643,0.098066,-5.5702,6.6685,-0.0045815,0.03879,-0.018631
0.31775,0.13729,-5.5702,6.8058,-0.0051924,0.041844,-0.023518
0.33661,0.27459,-5.3348,6.747,-0.012523,0.042455,-0.026878
0.32993,0.17652,-5.4133,6.8058,-0.02138,0.039095,-0.028711
0.32248,0.098066,-5.4133,6.7666,-0.0061087,0.042761,-0.034208
0.32254,0.078453,-5.5113,6.7077,0.0039706,0.045509,-0.010996
0.32751,0.17652,-5.5113,6.8254,-0.0015272,0.038179,-0.010079
0.33231,0.098066,-5.5702,6.747,-0.0076358,0.033903,-0.029322
0.32788,0.039227,-5.5702,6.9235,-0.01405,0.030543,-0.029932
0.31903,0.039227,-5.3937,6.8254,-0.019548,0.023824,-0.025351
0.3223,-0.019613,-5.4917,6.845,-0.022297,0.018021,-0.023518
0.31601,-0.17652,-5.4133,6.8058,-0.022907,0.012523,-0.020464
0.31396,0.039227,-5.5506,6.7666,-0.022907,0.0082467,-0.014661
0.3168,0.17652,-5.3937,6.6685,-0.011912,0.0048869,-0.0051924
0.31738,0.098066,-5.4133,6.7077,-0.018631,0.0030543,-0.0024435
0.31796,0.039227,-5.4525,6.7077,-0.021686,-0.00030543,-0.0064141
0.32022,0.23536,-5.4525,6.8058,-0.023824,-0.0051924,-0.0033598
0.31757,-0.078453,-5.4329,6.8254,-0.023824,-0.0088575,-0.0030543
0.32608,0.11768,-5.5113,6.7666,-0.019242,-0.010996,-0.0042761
0.32394,-0.13729,-5.4329,6.8647,-0.02138,-0.010996,-0.0045815
0.29559,0.25497,-5.4525,6.8254,-0.012828,-0.0094684,-0.0051924
0.29733,0.17652,-5.3937,6.747,-0.013439,-0.0088575,-0.0082467
0.30231,0.13729,-5.4525,6.7666,-0.016493,-0.010079,-0.0082467
0.27844,0.17652,-5.5113,6.8254,-0.018631,-0.009163,-0.0036652
0.26447,0.11768,-5.5113,6.747,-0.018021,-0.009163,-0.0051924
0.26202,0.23536,-5.4329,6.8254,-0.018937,-0.0094684,-0.0064141
0.25784,0.13729,-5.4133,6.747,-0.020769,-0.0076358,-0.007025
0.23526,0.078453,-5.5113,6.7077,-0.013134,-0.0067195,-0.0067195
0.22177,0.23536,-5.4133,6.845,-0.011606,-0.0042761,-0.0054978
0.2146,-0.05884,-5.4133,6.845,-0.019548,0,-0.0048869
0.21906,-0.17652,-5.8644,6.8254,-0.022907,0.0036652,-0.0067195
0.22186,-0.078453,-5.4525,6.8254,-0.021075,0.0064141,-0.00030543
0.21793,0.27459,-5.7075,6.747,-0.014355,0.0094684,-0.0024435
0.20233,0.25497,-5.5506,6.8254,-0.0073304,0.015272,-0.0061087
0.20587,0.23536,-5.4133,6.8058,0.00061087,0.022602,-0.0067195
0.19479,0.13729,-5.4133,6.747,0.0051924,0.02474,-0.0064141
0.18787,-0.05884,-5.4329,6.8254,0.0009163,0.024129,-0.0058032
0.19077,0.11768,-5.5113,6.8058,-0.0076358,0.023518,-0.0009163
0.18167,0.13729,-5.4525,6.747,-0.0094684,0.019548,0.0027489
0.18979,0.25497,-5.4525,6.7666,-0.013134,0.018937,-0.0097738
0.19235,0.27459,-5.4525,6.8058,-0.013439,0.019242,-0.0094684
0.1936,-0.05884,-5.3937,6.8647,-0.0097738,0.018631,-0.010079
0.18213,0.078453,-5.4525,6.8254,-0.010079,0.018631,-0.0085521
0.19821,0.039227,-5.4133,6.747,-0.0094684,0.018326,-0.0054978
0.18216,0.23536,-5.5898,6.7666,-0.0082467,0.016493,-0.0042761
0.17761,0.23536,-5.5113,6.845,-0.012217,0.015577,0.010996
0.16565,0.098066,-5.5113,6.6685,-0.016493,0.014966,0.009163
0.16547,0.25497,-5.3937,6.8254,-0.019242,0.010079,0.0054978
0.16333,0.098066,-5.4329,6.8254,-0.022297,0.0067195,0.0085521
0.15845,0.098066,-5.5506,6.845,-0.02138,0.0054978,0.010385
0.15292,0.27459,-5.4133,6.8058,-0.017715,0.0033598,0.011301
0.16095,0.17652,-5.4525,6.8254,-0.016493,-0.00030543,0.010079
0.14447,0.17652,-5.4133,6.8058,-0.016799,-0.0033598,0.010385
0.13358,0.098066,-5.5113,6.8058,-0.01741,-0.0042761,0.007025
0.13983,0.25497,-5.4133,6.747,-0.012828,-0.0054978,0.0067195
0.1442,0.11768,-5.4133,6.8058,-0.0097738,-0.0051924,0.0076358
0.12326,0.098066,-5.5113,6.7666,-0.010385,-0.0064141,0.0064141
0.11282,0.098066,-5.5702,6.8254,-0.01069,-0.0076358,0.0067195
0.099365,0.019613,-5.4525,6.747,-0.013744,-0.0079412,0.0073304
0.097687,0.098066,-5.4329,6.8254,-0.017104,-0.0061087,0.0067195
0.097504,0.11768,-5.4133,6.8254,-0.019548,-0.0058032,0.0076358
0.090485,0.078453,-5.5506,6.6685,-0.021075,0.0030543,-0.0039706
0.09967,0.17652,-5.4133,6.8254,-0.014355,-0.00061087,-0.0036652
0.097778,0.17652,-5.4329,6.747,-0.012217,0.0033598,-0.0039706
0.11063,-0.11768,-5.4133,6.9627,-0.011606,0.0064141,-0.0027489
0.10767,0.23536,-5.4133,6.8058,-0.011606,0.0073304,-0.0048869
0.10416,-0.05884,-5.4133,6.8254,-0.01069,0.0067195,-0.0054978
0.10175,0.23536,-5.5113,6.8058,-0.026878,0.0067195,-0.0051924
0.10376,0.098066,-5.5113,6.9039,-0.0281,0.0064141,-0.0039706
0.099091,0.098066,-5.5113,6.8254,-0.034208,0.0027489,-0.0094684
0.082245,0.039227,-5.2956,6.8058,-0.038485,0.00061087,-0.0094684
0.085358,0.098066,-5.4329,6.747,-0.032681,0,-0.0048869
0.073303,0.039227,-5.5506,6.8254,-0.020464,-0.00061087,-0.0051924
0.070099,0.098066,-5.5702,6.6685,-0.0067195,0.0027489,-0.0076358
0.066528,0.27459,-5.4133,6.8254,-0.00061087,0.0094684,-0.010385
0.057495,0.17652,-5.4133,6.8058,-0.014966,0.015272,-0.010385
0.061768,-0.05884,-5.3937,6.8647,-0.024435,0.019548,-0.010385
0.052887,0.039227,-5.3937,6.747,-0.01741,0.020159,-0.009163
0.053864,-0.019613,-5.4133,6.747,-0.026267,0.018021,-0.0085521
0.055878,0.078453,-5.5702,6.845,-0.031765,0.013134,-0.0085521
0.063446,0.19613,-5.5113,6.747,-0.029932,0.0085521,-0.0085521
0.074249,0.11768,-5.5898,6.845,-0.025351,0.0054978,-0.010385
0.070129,-0.019613,-5.4917,6.845,-0.021686,0.0042761,-0.011912
0.077332,0.17652,-5.6486,6.747,-0.0018326,0.007025,-0.011912
0.063263,0.17652,-5.4133,6.8058,-0.010079,0.0082467,-0.0097738
0.066833,0.27459,-5.5113,6.7077,-0.018021,0.025962,-0.0061087
0.058472,0.17652,-5.4133,6.8058,-0.014966,0.027184,-0.0051924
0.054108,-0.05884,-5.3937,6.9039,-0.01405,0.022602,-0.015272
0.040436,0.17652,-5.4917,6.8254,-0.018326,0.016493,-0.012828
0.048157,0.17652,-5.4917,6.7077,-0.020769,0.013439,-0.01069
0.045502,0.039227,-5.5506,6.6489,-0.022297,0.013134,-0.010079
0.037018,0.13729,-5.5113,6.7077,-0.025351,0.01069,-0.0082467
0.043579,0.27459,-5.3937,6.8058,-0.026878,0.0073304,-0.0067195
0.034271,0.27459,-5.4133,6.8254,-0.013439,0.035125,-0.0085521
0.054504,-0.19613,-5.7467,6.8254,-0.016799,0.03207,-0.0076358
0.05954,0.19613,-5.4917,6.747,-0.021075,0.030543,-0.0054978
0.058319,0.098066,-5.5898,6.6685,-0.023518,0.029322,-0.0061087
0.059753,0.039227,-5.4133,6.747,-0.026267,0.024435,-0.0051924
0.053619,0.17652,-5.5898,6.747,-0.026878,0.021686,-0.0033598
0.056061,0.11768,-5.5113,6.747,-0.02474,0.020464,-0.0051924
0.05661,0.098066,-5.4329,6.6685,-0.020464,0.018937,-0.0073304
0.017151,0.11768,-5.5702,6.8254,-0.014966,0.018326,-0.0067195
0.046051,0.27459,-5.3544,6.747,-0.009163,0.021991,-0.0073304
0.040009,0.19613,-5.4133,6.845,-0.0085521,0.021075,-0.0076358
0.028625,0.11768,-5.4133,6.8058,-0.012523,0.019242,-0.0076358
0.031372,0.13729,-5.4329,6.845,-0.018631,0.017715,-0.0067195
0.018494,0.27459,-5.6486,6.747,-0.024129,0.015882,-0.0061087
0.011963,0.11768,-5.4329,6.747,-0.025045,0.015272,-0.0045815
0.011261,0.17652,-5.5113,6.8254,-0.021991,0.018021,-0.0045815
-0.0021667,0.25497,-5.3937,6.8058,-0.026267,0.009163,-0.0048869
0.0058899,-0.039227,-5.4133,6.845,-0.022297,0.011301,-0.0048869
-0.012299,0.019613,-5.5113,6.8647,-0.01741,0.014966,-0.0058032
-0.0079041,0.098066,-5.5113,6.8254,-0.015882,0.017715,-0.0054978
-0.0054016,0.19613,-5.4133,6.8254,-0.012828,0.020769,-0.0061087
-0.0099487,0.17652,-5.4329,6.8647,-0.013439,0.02138,-0.0058032
-0.0041199,-0.039227,-5.3544,6.845,-0.019242,0.020464,-0.0051924
-0.011139,0.23536,-5.5702,6.747,-0.020464,0.020464,-0.0045815
-0.020538,0.098066,-5.5113,6.6685,-0.017715,0.022602,-0.0045815
-0.020111,0.17652,-5.5506,6.7666,-0.016493,0.026878,-0.0039706
-0.025024,0.11768,-5.5113,6.8058,-0.017104,0.0281,-0.0058032
-0.026886,0.039227,-5.5506,6.6881,-0.015577,0.027794,-0.0058032
-0.022034,0.17652,-5.4525,6.8058,-0.016799,0.028405,-0.0058032
-0.029602,0.11768,-5.4133,6.8058,-0.017104,0.030543,-0.0067195
-0.040131,0.19613,-5.5113,6.7666,-0.016493,0.032987,-0.0061087
-0.023071,-0.11768,-5.4133,6.9039,-0.013439,0.033598,-0.0051924
-0.0010071,0.13729,-5.6486,6.8254,-0.013744,0.021686,0.010996
0.028015,0.11768,-5.3348,6.8058,-0.017715,0.016188,0.013134
0.054382,-0.05884,-5.4525,6.6881,-0.014661,0.0088575,0.0048869
0.081482,0.13729,-5.5898,6.8058,-0.0082467,0,0.0067195
0.091522,0.23536,-5.4329,6.747,-0.0027489,-0.0036652,0.0082467
0.11588,0.039227,-5.4133,6.8254,-0.0030543,-0.0033598,0.0064141
0.13174,0.098066,-5.4133,6.7077,-0.0009163,-0.0051924,0.0088575
0.12775,0.13729,-5.4133,6.8058,-0.007025,-0.0064141,0.010996
0.11563,0.13729,-5.3544,6.8254,-0.01405,-0.0085521,0.027794
0.12439,0.17652,-5.4329,6.747,-0.00030543,-0.010996,0.025656
0.13089,0.25497,-5.4133,6.8254,0.0015272,-0.011912,0.014966
0.14236,0.23536,-5.3544,6.8254,0.0018326,-0.01069,0.018021
0.12241,-0.039227,-5.4133,6.9039,0.0036652,-0.010385,0.021991
0.12796,0.039227,-5.5113,6.845,0.0033598,-0.010996,0.027489
0.10052,0.17652,-5.6486,6.8058,-0.002138,-0.012217,0.03207
0.095093,0.098066,-5.3544,6.747,-0.0094684,-0.012523,0.03146
0.091919,-0.039227,-5.4525,6.8254,-0.017715,0.028711,-0.0097738
0.084656,-0.21575,-5.4133,6.8254,-0.015577,0.033903,-0.010385
0.085358,-0.019613,-5.4525,6.6685,-0.011301,0.035736,-0.0064141
0.094513,0.098066,-5.4133,6.8254,-0.0088575,0.035125,-0.0085521
0.089294,-0.05884,-5.5113,6.8647,-0.0061087,0.037263,-0.010385
0.090515,0.098066,-5.3544,6.8058,-0.0036652,0.036652,-0.011606
0.096039,-0.11768,-5.3937,6.8647,-0.0051924,0.034514,-0.010079
0.1084,-0.05884,-5.4525,6.6881,-0.0076358,0.033903,-0.0094684
0.10428,-0.019613,-5.4133,6.6685,0.012217,0.03146,0.002138
0.12192,0.17652,-5.6486,6.8058,0.010079,0.033598,0.0039706
0.12308,0.098066,-5.4525,6.747,0.0045815,0.036041,-0.010079
0.11633,0.098066,-5.5506,6.747,-0.0009163,0.035736,-0.010079
0.11603,-0.23536,-5.4133,6.9235,-0.0061087,0.033292,-0.0051924
0.1225,0.039227,-5.5113,6.8254,-0.0018326,0.029016,-0.0018326
0.13455,0.098066,-5.629,6.845,-0.0027489,0.024435,-0.00061087
0.12021,-0.11768,-5.3348,6.9235,0.0067195,0.024435,0.0015272
0.10187,-0.019613,-5.4133,6.8058,0.89217,1.2975,-0.68692
0.097046,0.039227,-5.7663,6.9823,0.91721,1.2846,-0.80481
0.10168,0.11768,-5.5113,6.9039,0.94134,1.2999,-0.23182
0.12146,0.23536,-5.6486,7.3746,0.94684,1.3192,-0.27092
0.12256,-0.23536,-6.7666,7.9434,1.0599,1.299,-0.28436
0.13535,-0.76492,-8.6691,9.0025,1.1383,1.2095,-0.24068
0.13519,0.74531,-7.8453,9.434,0.98136,0.83444,-0.23457
0.12289,0.90221,-4.0992,11.69,0.89431,0.32681,-0.40042
0.032257,-1.4318,-5.0995,10.728,1.6371,-1.4221,0.25015
-0.12473,2.5497,-7.1785,10.258,1.047,-1.639,0.34758
-0.28403,4.6287,-8.1591,8.316,0.54886,-1.7993,-0.64355
-0.40829,3.9619,-5.1975,8.218,0.2135,-1.8922,-0.5507
-0.52841,3.1774,-1.1572,8.1199,0.11759,-1.8964,-0.47525
-0.67499,2.7851,1.1572,8.4729,0.32193,-1.7617,-0.34758
-0.85779,2.8635,1.4906,8.0611,0.6408,-1.5369,-0.14783
-0.99496,3.2166,0.68647,6.8254,0.91966,-1.2226,0.091935
-0.99997,4.1776,0.13729,4.413,1.2492,-0.80787,0.069944
-0.99997,5.7467,-1.3533,2.3144,1.2245,-0.39737,-0.01741
-0.99997,4.5111,-2.8243,3.8834,1.0669,-0.07086,0.4667
-0.99997,2.5497,-4.7072,5.8055,0.89858,0.13195,0.5397
-0.99997,2.2948,-5.6486,6.2174,0.85888,0.27825,0.4945
-0.99997,2.2751,-5.8055,5.5898,0.97311,0.44929,0.35827
-0.99997,2.1771,-5.0798,4.6287,1.1854,0.67226,0.2248
-0.99997,1.1964,-3.3146,5.7467,1.467,0.93218,0.14478
-0.99997,-0.5884,-2.2555,8.8848,1.7581,1.2162,-0.17104
-0.99997,-1.471,-3.3931,10.454,1.9798,1.4957,-0.19548
-0.99997,-0.50995,-4.7856,9.9832,2.0342,1.7376,-0.058338
-0.99997,-0.05884,-5.1191,9.0221,1.8903,1.8891,-0.04215
-0.99997,-0.66685,-4.0207,8.8652,1.6289,1.8839,-0.028711
-0.99997,-6.0997,-5.884,11.297,1.358,1.7281,-0.029627
-0.99997,-5.4721,-3.8638,15.593,1.1301,1.5391,-0.049786
-0.99997,0.80415,0.35304,14.2,0.95478,1.3857,-0.11454
-0.99997,0.66685,1.6279,10.454,-1.1063,0.18082,0.66218
-0.99997,0.80415,1.4906,7.6492,-1.2911,0.088881,0.71777
-0.99997,0.80415,-0.70608,6.8254,-1.4407,-0.028405,0.45571
-0.99997,1.6083,-2.1378,7.6492,-1.5217,-0.1576,0.48258
-0.99997,2.6086,-1.9025,7.9042,-1.5094,-0.27,0.53145
-0.99997,2.6086,-1.0591,7.5511,-1.4215,-0.33048,0.56902
-0.99997,2.432,-0.23536,6.9823,-1.2972,-0.35033,0.58002
-0.99997,2.079,-0.47072,7.0019,-1.1371,-0.34789,0.6072
-0.99997,1.8044,-1.3729,7.7473,-0.97616,-0.32987,0.68081
-0.99997,1.5102,-1.9809,8.8652,-0.84849,-0.32193,0.63469
-0.99997,1.8633,-2.1575,9.5713,-0.75961,-0.33659,0.77794
-0.99997,1.9025,-1.471,9.787,-0.70708,-0.35766,0.83597
-0.99997,1.7456,-0.94144,9.3163,-0.67714,-0.36682,0.84116
-0.99997,1.5495,-0.94144,9.3752,-0.66035,-0.35797,0.80512
-0.99997,1.6671,-2.1575,9.179,-0.6689,-0.32803,0.76541
-0.99997,2.1575,-2.942,9.5125,-0.71929,-0.28191,0.72662
-0.99997,2.1771,-3.2166,9.0025,-0.7141,-0.24465,0.15027
-0.99997,1.824,-2.9028,8.8652,-0.58215,-0.2251,0.1292
-0.99997,1.6867,-3.0793,8.4926,-0.41264,-0.18692,0.5736
-0.99997,1.824,-3.5696,8.0611,-0.23549,-0.11362,0.46059
-0.99997,1.6867,-4.0011,7.9434,-0.092546,-0.010079,0.33384
-0.99997,1.3337,-4.5699,7.7473,-0.020159,0.11148,0.24099
-0.99997,1.4906,-5.4917,7.2373,-0.77549,0.22266,0.18876
-0.99997,1.6867,-5.7271,6.9235,-0.78099,0.30177,0.16982
-0.99997,1.5495,-4.7268,7.1392,0.012523,0.31032,-0.048258
-0.99997,0.80415,-3.8638,7.61,0.018631,0.26359,-0.025656
-0.99997,0.54917,-4.3934,7.9042,0.075136,0.20861,0.092546
-0.99997,1.2945,-4.8249,8.0022,0.22052,0.14813,0.0048869
-0.99997,1.4318,-4.4914,8.0807,0.3882,0.12584,-0.073915
-0.99997,1.3337,-3.8638,8.1003,0.49572,0.14478,-0.097128
-0.99997,1.3533,-3.2558,8.4337,-0.02138,0.17196,-0.096211
-0.99997,1.3337,-3.295,8.3749,-0.013134,0.19945,-0.076664
-0.99997,1.5298,-3.6873,7.9434,0.16402,0.091324,-0.068722
-0.99997,1.6083,-4.158,7.4727,0.14844,0.097128,-0.092546
-0.99997,1.5102,-3.5304,7.9238,0.12889,0.10201,-0.080023
-0.99997,1.118,-3.2362,8.5318,0.081245,0.09896,-0.073609
-0.99997,1.2945,-3.2362,8.7083,-0.0045815,0.090103,-0.066279
-0.99997,1.1376,-3.0008,8.8064,-0.12004,0.068111,-0.059254
-0.99997,1.216,-3.0401,8.9437,-0.23763,0.032376,-0.051313
-0.99997,1.2945,-3.5304,8.6887,-0.28772,0.0018326,-0.050702
-0.99997,1.3533,-3.5696,8.3749,-0.13378,-0.00061087,-0.1014
-0.99997,1.2945,-3.2166,8.7083,0.043371,0.026573,-0.09896
-0.99997,1.3533,-2.942,8.7475,0.20556,0.079107,-0.12095
-0.99997,1.0591,-2.942,8.8064,0.28619,0.12889,-0.13683
-0.99997,1.0787,-3.2166,8.6495,0.26786,0.14844,-0.1179
-0.99997,0.90221,-3.3146,8.6495,0.17837,0.12767,-0.08827
-0.99997,1.1964,-3.0793,8.5906,0.073915,0.08094,-0.082772
-0.99997,1.1964,-2.942,8.4729,0.0009163,0.037568,-0.093462
-0.99997,0.98067,-2.7459,8.5514,-0.029627,0.0079412,-0.027184
-0.99997,0.98067,-2.7459,8.7475,-0.029627,-0.0097738,-0.025656
-0.99997,1.0395,-3.0008,8.8064,-0.026267,0.0012217,-0.098044
-0.99997,1.0591,-3.3931,8.4926,-0.033598,0.028405,-0.094379
-0.99997,1.1376,-3.7658,8.4141,-0.052229,0.036957,-0.076358
-0.99997,1.118,-3.0008,8.6299,-0.068111,0.023213,-0.048869
-0.99997,0.98067,-2.432,8.8652,-0.071777,0.014661,-0.029932
-0.99997,0.98067,-2.1182,8.8848,-0.062308,0.018021,-0.027794
-0.99997,1.118,-2.5105,8.7279,0.1967,0.1124,-0.091935
-0.99997,1.1964,-2.6086,8.5318,0.15882,0.10385,-0.087354
-0.99997,0.80415,-2.687,8.6887,0.12859,0.10415,-0.030849
-0.99997,1.0395,-2.8243,8.4141,0.1182,0.096822,-0.040012
-0.99997,0.92183,-2.9812,8.4141,0.041844,0.058948,0.011301
-0.99997,1.216,-3.0008,8.4141,0.054062,0.055283,0.02474
-0.99997,1.0591,-2.8832,8.5514,0.051007,0.049175,0.039401
-0.99997,1.0199,-2.8243,8.6299,0.02138,0.043371,0.046426
-0.99997,1.0787,-2.7459,8.7083,0.014661,0.020464,-0.0027489
-0.97415,1.0395,-2.7851,8.6495,0.041539,0.029322,-0.011912
-0.92889,0.8826,-2.9028,8.6299,0.045509,0.047647,-0.0012217
-0.90353,1.0591,-3.0008,8.4926,0.023518,0.061697,-0.014355
-0.87543,1.1768,-3.0401,8.4141,-0.0085521,0.068722,-0.0058032
-0.86667,1.0787,-2.7459,8.6299,-0.0281,0.059559,0.0082467
-0.8515,1.0199,-2.7851,8.6299,-0.026573,0.038485,0.0061087
-0.83441,0.98067,-3.197,8.6887,-0.01405,0.018326,0.00061087
-0.81741,1.0395,-3.0793,8.8064,-0.0088575,0.012217,0.0048869
-0.78616,0.90221,-2.9812,8.7868,-0.010996,0.019242,0
-0.75977,1.0199,-2.9028,8.7083,-0.011606,0.021686,-0.007025
-0.74667,0.76492,-2.7262,8.7279,0.0036652,0.013439,0.0085521
-0.73514,0.92183,-2.7262,8.7083,0.02474,0.0085521,0.0067195
-0.70572,1.1768,-3.0008,8.5514,0.034514,0.016493,-0.0082467
-0.68857,1.0787,-2.8832,8.4141,-0.023824,0.029016,-0.01069
-0.6803,1.0591,-2.9224,8.4141,-0.013134,0.033903,-0.0027489
-0.672,1.118,-2.6086,8.6299,0.0097738,0.034208,-0.016188
-0.6489,0.92183,-2.6282,8.8064,0.016799,0.043371,-0.016188
-0.65912,1.1768,-3.0401,8.7279,0.025351,0.057421,-0.0094684
-0.62167,0.8826,-3.2362,8.7279,0.026878,0.066279,-0.0088575
-0.61017,1.0787,-3.1381,8.6299,0.024435,0.062614,-0.0045815
-0.59094,0.92183,-2.7459,8.6887,0.026878,0.058032,-0.0024435
-0.586,0.74531,-2.7851,8.5514,0.023824,0.053145,-0.0079412
-0.57675,0.80415,-2.7459,8.6299,0.013439,0.048258,-0.015577
-0.57123,0.86299,-2.8243,8.6299,-0.025045,0.019548,0.022907
-0.56,0.74531,-2.9028,8.4141,-0.037874,0.036652,0.011606
-0.55173,0.49033,-2.8243,8.7083,-0.04612,0.044899,-0.0009163
-0.55664,1.0395,-3.0008,8.6299,-0.037568,0.049786,-0.002138
-0.53607,0.90221,-2.8832,8.6299,-0.019548,0.060781,0
-0.52249,0.90221,-2.8243,8.7083,-0.012217,0.061697,0.0073304
-0.51007,0.90221,-2.9028,8.7083,-0.023824,0.045204,0.022907
-0.48947,0.80415,-2.9028,8.7475,-0.033292,0.025962,0.030849
-0.4895,1.0395,-2.7459,8.6495,0.033903,0.051924,-0.014966
-0.45712,0.64724,-3.0008,8.8064,0.027489,0.058032,-0.0085521
-0.43439,0.80415,-2.9028,8.6299,0.015882,0.051007,-0.0094684
-0.40695,0.90221,-3.0008,8.6887,0.013134,0.03879,-0.0088575
-0.40112,0.86299,-2.7851,8.8064,0.01069,0.027489,-0.0097738
-0.38593,1.0199,-2.687,8.8064,0.016188,0.022602,-0.0079412
-0.37375,1.0395,-2.7851,8.5514,0.023824,0.031765,-0.019853
-0.36603,1.0395,-2.9028,8.5514,0.019548,0.044288,-0.027184
-0.358,0.98067,-2.9028,8.5906,0.01069,0.044899,-0.0094684
-0.3627,1.0395,-2.9028,8.6299,0.007025,0.036041,-0.002138
-0.34698,0.90221,-2.7459,8.5514,-0.0027489,0.029932,-0.012217
-0.32977,0.98067,-2.6086,8.7279,-0.011606,0.024435,-0.014966
-0.32095,0.86299,-2.6086,8.8064,-0.017104,0.018021,-0.015577
-0.29431,0.86299,-2.7459,8.5906,-0.025962,0.0076358,-0.01741
-0.30148,1.0199,-2.9028,8.5514,-0.043677,0,-0.0097738
-0.29556,1.0395,-2.9028,8.7083,-0.06689,-0.0024435,-0.009163
-0.29187,0.8826,-2.7459,8.7083,-0.039095,0.043066,-0.01069
-0.27582,0.92183,-2.6282,8.7083,-0.089797,0.024435,-0.007025
-0.2688,0.74531,-2.6282,8.6299,-0.097128,0.020159,-0.010079
-0.25601,0.76492,-2.687,8.5514,-0.071777,0.027184,-0.014355
-0.21744,0.74531,-2.942,8.6299,-0.030238,0.040623,-0.019853
-0.21625,0.80415,-2.9224,8.7083,0.0067195,0.04948,-0.023824
-0.19775,0.82376,-2.8439,8.7475,0.031154,0.055589,-0.019548
-0.18546,0.50995,-2.6674,8.8064,0.042761,0.061697,-0.014966
-0.17267,0.90221,-2.9028,8.5514,0.011606,0.063225,-0.02138
-0.1705,0.76492,-2.7459,8.4926,-0.014661,0.063225,-0.015577
-0.16672,0.74531,-2.6086,8.8064,-0.02474,0.054367,-0.0054978
-0.18091,0.74531,-2.6086,8.8064,-0.029627,0.046426,-0.0012217
-0.17429,0.74531,-2.6674,8.8652,-0.037263,0.042761,-0.0058032
-0.1676,0.76492,-2.7459,8.5514,-0.038485,0.038179,-0.011301
-0.17535,0.76492,-2.7851,8.7083,-0.020769,0.035736,-0.010079
-0.17209,0.98067,-2.9224,8.5514,0.011912,0.042761,-0.016493
-0.17096,0.90221,-2.9028,8.4926,0.4945,0.06353,-0.26848
-0.15027,1.0395,-2.9028,8.5514,0.27825,-0.064752,-0.38729
-0.12097,0.74531,-2.7851,8.7475,0.020464,-0.20983,0.020464
-0.10745,0.86299,-2.8243,8.7083,-0.25473,-0.29841,-0.024129
-0.11139,0.80415,-2.8439,8.5318,-0.41905,-0.32834,-0.11606
-0.12912,0.76492,-2.942,8.4926,-0.41508,-0.36041,-0.086132
-0.11948,1.0591,-3.1381,8.2376,0.42822,-0.41661,-0.070555
-0.094177,0.82376,-3.1381,8.0807,0.5736,-0.45173,-0.13958
-0.054169,0.82376,-2.2163,8.5514,-0.081856,-0.093462,0.047037
-0.0040283,0.35304,-1.216,9.3359,-0.10293,-0.077274,-0.054978
0.055603,0.11768,-1.3729,9.5321,-0.071166,-0.04612,0.040012
0.10294,0.43149,-2.3144,9.0417,-0.01741,-0.016188,0.017715
0.16168,0.76492,-2.8832,9.1006,0.018326,0.0018326,0.0030543
0.19949,0.90221,-3.0008,9.689,-0.0067195,0.02138,0.017715
0.14709,1.5298,-3.2166,8.5514,0.11637,0.1011,0.060781
0.019196,1.3337,-3.1577,8.7279,0.34117,0.1689,0.074831
-0.14087,0.43149,-2.3144,10.297,0.37813,0.092546,0.051007
-0.30042,1.2945,-0.94144,10.12,0.036957,0.058032,-0.0058032
-0.43542,1.7064,-0.23536,7.2765,-0.39309,-0.017104,-0.071471
-0.53101,0.74531,-1.5102,6.8254,-0.66432,-0.10293,0.018631
-0.59357,1.5298,-2.9812,8.316,-0.65851,-0.15669,-0.013744
-0.58652,2.2948,-3.197,9.179,-0.46242,-0.17562,-0.019548
-0.56204,1.5298,-2.1182,7.5903,0.36499,-0.18631,0.058643
-0.57141,-0.23536,-1.8829,6.8647,0.44838,-0.1686,0.092852
-0.61981,-3.0008,-4.6287,12.023,0.3992,-0.061392,0.28711
-0.65881,-1.9417,-4.7856,13.651,0.35064,0.09499,0.11576
-0.71066,1.0395,-2.0594,10.454,0.2529,0.26176,0.02138
-0.76706,-0.35304,-0.80415,7.4531,0.16341,0.38546,0.11362
-0.79575,-0.98067,-1.5691,7.1589,0.21472,0.47953,0.21411
-0.78278,0.66685,-2.2751,7.1392,0.35522,0.5006,0.31429
-0.71631,0.90221,-1.824,8.1787,-0.12798,0.46395,0.4047
-0.62195,0.80415,-1.726,9.0613,0.219,0.30635,0.40134
-0.53156,1.7456,-2.1575,8.2572,0.5171,0.18601,-0.021991
-0.42288,2.0594,-1.9809,6.5116,-0.13928,0.17623,0.011301
-0.34317,1.5298,-0.90221,6.5116,-0.30665,0.15547,0.10996
-0.33157,-0.66685,-3.2166,10.728,-0.4383,0.13073,0.078191
-0.34717,0.17652,-4.2561,13.082,-0.45357,0.1124,0.02474
-0.35883,1.4318,-2.5105,13.925,-0.31124,0.13347,-0.019853
-0.37125,1.3533,-0.94144,11.729,-0.028711,0.19945,-0.041844
-0.40009,2.079,-0.17652,8.8652,0.29749,0.25992,-0.046426
-0.42004,2.0594,0.13729,6.9627,0.026573,0.52076,-0.11179
-0.44125,1.824,-0.94144,7.2765,0.048564,0.41264,-0.097433
-0.4389,1.824,-2.1378,7.7473,-0.30177,-0.018326,0.42761
-0.40408,1.2945,-2.3144,7.708,-0.76541,-0.48808,0.25534
-0.37103,0.27459,-1.3141,8.2572,-1.0565,-0.76022,0.039401
-0.36868,-0.19613,-1.3533,8.7083,-0.92088,-0.71624,-0.21594
-0.43121,-0.05884,-0.80415,5.7075,-0.60689,-0.54703,-0.33475
-0.49832,-4.9818,-1.5102,11.846,-0.43982,-0.46426,-0.21625
-0.55609,-3.0204,-3.2362,14.2,-0.44166,-0.45998,-0.11118
-0.58502,0.66685,-2.7459,8.4729,-0.40561,-0.45907,-0.10201
-0.59268,-0.21575,-1.0199,7.1196,-0.25229,-0.42608,-0.092546
-0.60699,0.19613,-0.74531,7.8061,-0.083383,-0.33323,-0.11851
-0.59024,0.74531,-2.3144,8.4141,-0.0082467,-0.22785,-0.1576
-0.54947,1.1768,-2.8243,9.6301,-0.079412,-0.14294,-0.14355
-0.47324,1.4906,-2.1967,9.7478,-0.22235,-0.11576,-0.11698
-0.37042,1.3533,-1.3729,9.1986,-0.32681,-0.1292,-0.1066
-0.2984,1.6083,-0.8826,8.316,-0.38332,-0.12675,0.077274
-0.23157,1.8044,-1.3533,7.9434,-0.41264,-0.1014,0.10782
-0.17914,2.0006,-1.8044,8.4337,-0.39951,-0.083078,-0.098349
-0.12759,1.8437,-1.6867,8.8652,-0.32193,-0.071777,-0.091935
-0.072113,1.8044,-1.9417,8.8848,-0.19487,-0.037568,-0.067501
-0.0018005,1.8437,-2.7459,8.7475,-0.06689,0.02474,-0.034208
0.071655,1.6475,-3.7658,8.9437,-0.012523,0.098349,0.0012217
0.1514,1.6671,-3.6873,9.1202,-0.072693,0.1631,0.036346
0.23044,1.0395,-2.5105,9.8066,-0.53817,-0.45265,-0.21411
0.27554,1.0591,-1.7848,9.3163,-0.80268,-0.65973,-0.21625
0.32495,0.80415,-1.6279,9.0221,-0.71288,-0.59437,-0.36744
0.33051,1.3337,-2.1967,8.9044,-0.61178,-0.4725,-0.38882
0.32111,1.2945,-2.7851,8.9437,-0.68753,-0.49388,-0.29596
0.31848,1.4318,-2.0398,8.8652,-0.71654,-0.52473,-0.22297
0.29974,0.60801,-1.1964,8.4926,-0.51435,-0.46853,-0.19975
0.27997,0.17652,-1.0199,9.3359,-0.14355,-0.34392,-0.19517
0.2594,-0.078453,-1.5887,9.5125,0.17959,-0.21228,-0.024435
0.23749,0.43149,-2.7851,8.4141,-0.059865,-0.12675,-0.043677
0.17365,1.6671,-3.0008,6.8647,-0.35125,-0.081856,-0.1576
0.073059,0.43149,-2.6282,5.9821,-0.5904,-0.076358,-0.083689
-0.036438,-3.197,-2.3536,12.651,-0.6857,-0.10507,-0.041844
-0.10611,-2.5301,-2.9028,14.514,-0.60903,-0.16035,-0.032681
-0.19638,1.216,-1.3533,8.8652,0.17196,-0.20922,-0.028711
-0.27338,0.33343,-0.23536,7.1392,0.28008,-0.21502,-0.018937
-0.3212,0.098066,-1.7456,6.2959,-0.12981,-0.16554,0.080634
-0.33374,0.66685,-3.3539,7.5315,-0.090103,-0.062919,0.07758
-0.29596,0.41188,-3.2166,10.062,-0.14722,0.047342,-0.049786
-0.21802,0.8826,-1.6671,9.6497,-0.23702,0.12798,-0.0061087
-0.11557,0.50995,-0.17652,8.4141,-0.27947,0.15882,0.060476
-0.019409,0.27459,-0.86299,7.8649,-0.2532,0.14172,0.09163
0.054291,1.0395,-2.3732,7.963,-0.43982,0.1124,0.092546
0.10825,1.7456,-2.432,8.316,-0.26328,0.10965,0.090103
0.146,1.6083,-2.0594,8.4141,-0.097738,0.11026,-0.054062
0.17587,1.4318,-2.5105,8.7083,-0.055283,0.094073,-0.063835
0.19632,1.2945,-2.7262,8.9437,0.016188,0.073304,0.071471
0.20425,1.3729,-3.1381,9.1202,0.09499,0.064446,0.046731
0.21548,1.6083,-3.4519,8.9437,0.1405,0.061392,0.013134
0.22534,1.6867,-3.4519,9.2183,0.1405,0.071777,-0.0085521
0.23834,1.6671,-3.1381,9.2575,-0.19395,0.081856,-0.023213
0.24298,1.5298,-2.942,9.2183,-0.14111,0.067195,-0.041539
0.23685,1.4318,-2.432,9.0025,0.078191,0.042761,0.018937
0.22229,1.0591,-2.3732,9.179,0.064752,0.034514,0.026267
0.21225,0.74531,-2.2948,8.9437,0.015272,0.025962,-0.043677
0.18243,0.41188,-2.5105,8.5906,-0.063835,0.012828,-0.033598
0.13953,0.5884,-2.5693,8.4141,-0.12614,-0.0085521,-0.021991
0.093109,0.60801,-1.824,8.7279,-0.1405,-0.020159,-0.0064141
0.043701,0.45111,-1.726,8.7083,-0.098349,-0.01741,0.0058032
-0.0055847,0.45111,-1.6279,8.8456,-0.0067195,-0.0076358,0.013134
-0.04837,0.17652,-1.6867,9.0417,0.093157,0.014661,-0.011912
-0.077911,0.39227,-1.824,9.1986,0.15241,0.046426,-0.041844
-0.088226,0.56879,-1.6475,9.0613,0.13195,0.066584,0.038179
-0.090973,0.45111,-2.0986,8.8848,0.030543,0.065057,0.05284
-0.088318,1.0395,-3.2362,8.5514,-0.11454,0.030238,0.064446
-0.057526,1.5495,-3.4127,8.4337,-0.24771,-0.031154,0.054978
-0.022919,1.2356,-2.687,8.6299,-0.30879,-0.094684,0.034208
0.0064697,1.4514,-2.3144,8.8064,-0.26267,-0.13744,0.015577
0.036011,1.3533,-2.6086,8.9633,-0.12278,-0.13225,0.11301
0.051819,0.92183,-2.6282,9.179,0.051007,-0.077885,0.085216
0.063538,0.96105,-2.2751,9.0613,0.1909,0,-0.045815
0.066711,0.90221,-2.1378,8.5514,0.25198,0.067806,-0.0097738
0.062317,0.70608,-2.432,8.316,0.20097,0.095295,0.046731
0.043762,0.50995,-2.589,8.7475,0.061697,0.084605,0.094379
0.040192,0.49033,-2.0594,9.1594,-0.0956,0.038179,0.11973
0.023773,0.56879,-1.824,9.2575,-0.21655,-0.02138,0.12156
0.0054932,0.66685,-1.8829,9.0613,-0.36621,-0.1237,-0.042455
-0.0097961,1.1768,-2.7655,8.6887,-0.26267,-0.088575,-0.048564
-0.00021362,1.3729,-2.942,8.8064,-0.097738,-0.0097738,-0.090408
0.0083313,0.72569,-2.432,9.2183,0.048869,0.065973,-0.089492
0.0091553,0.80415,-1.7456,9.179,0.12187,0.10537,-0.056505
-0.010681,0.49033,-1.7848,9.0025,0.12431,0.10171,-0.028405
-0.0036011,1.0591,-2.5105,8.7083,0.091019,0.073915,-0.018937
-0.0064087,1.4318,-3.0008,8.316,0.07086,0.052534,-0.025656
-0.0072937,1.2945,-3.0989,8.4337,-0.059559,-0.017104,-0.034819
0.012756,1.1964,-2.7459,9.0417,-0.17746,-0.047342,-0.032376
0.046478,1.118,-2.4713,9.3359,-0.25779,-0.080329,0.021686
0.056641,1.0787,-1.9809,9.0025,-0.2529,-0.10782,0.04215
0.053162,0.90221,-2.2751,8.2572,-0.14997,-0.12706,0.044593
0.028107,0.92183,-2.7262,8.0218,-0.0064141,-0.11973,0.022907
-0.010132,0.86299,-2.687,8.5906,0.11851,-0.069333,-0.0058032
-0.031647,0.49033,-1.824,9.2575,0.047953,0.0039706,-0.025962
-0.079315,0.45111,-1.3729,9.5321,0.12462,0.063835,-0.038179
-0.11356,0.54917,-1.6475,9.5125,0.084605,0.089797,-0.032681
-0.12424,0.96105,-1.824,8.6299,0.03207,0.10201,-0.027184
-0.12573,0.45111,-2.1575,8.4926,0.0030543,0.10904,-0.036957
-0.11206,0.49033,-2.3732,9.2575,0.0097738,0.090103,-0.043677
-0.087799,0.56879,-2.432,9.434,0.034208,0.06017,-0.026878
-0.060913,0.50995,-2.3536,9.179,0.10354,0.037263,-0.028711
-0.038269,0.74531,-1.9809,9.3163,0.13928,0.022602,-0.042455
0.0045166,1.118,-1.8829,8.8652,-0.044593,0.11057,-0.030849
0.028412,0.74531,-2.432,8.7083,0.0079412,0.13011,-0.039095
0.043427,0.56879,-2.3732,8.8652,0.034514,0.1237,-0.014966
0.07254,0.74531,-1.824,9.179,0.052229,0.10293,0.0094684
0.080048,0.45111,-1.3141,9.1986,0.067501,0.079718,0.011606
0.089966,0.60801,-1.5691,9.0417,0.083078,0.057421,0.0018326
0.092682,0.86299,-2.1967,8.7083,0.10263,0.040317,-0.010385
0.056854,1.0395,-2.4517,8.4141,0.10721,0.024129,-0.021075
0.013519,1.0395,-2.1967,8.8456,0.075442,0.0033598,-0.032987
-0.038757,0.92183,-1.8829,8.9437,0.0094684,-0.0064141,-0.0015272
-0.076599,0.5884,-1.9809,9.1594,-0.07025,0.0024435,-0.047647
-0.11865,0.60801,-2.2751,9.1594,-0.11423,-0.0054978,-0.044593
-0.1521,0.5884,-1.9809,9.2183,-0.090713,-0.030849,-0.041844
-0.16959,0.80415,-1.7848,9.0221,-0.0082467,-0.035125,-0.057116
-0.19,0.80415,-1.6867,8.4337,0.093768,-0.013744,-0.073915
-0.21384,0.27459,-2.432,8.5906,0.14355,-0.0030543,-0.064752
-0.24008,0.2942,-2.7459,8.9633,-0.0562,-0.015577,-0.0076358
-0.21744,-0.17652,-2.2751,10.003,-0.16402,-0.068111,0.011301
-0.20682,0.098066,-1.6475,9.8263,-0.23793,-0.10018,-0.0036652
-0.20026,0.74531,-1.6475,9.3163,-0.26756,-0.10873,-0.0058032
-0.20526,0.98067,-1.6475,8.6495,-0.24496,-0.10049,-0.0082467
-0.20752,1.2749,-2.1182,8.4141,-0.16005,-0.076664,-0.010079
-0.24878,1.3533,-2.432,8.0807,-0.027794,-0.018021,-0.014661
-0.27921,1.2945,-2.5693,8.4141,0.087048,0.048869,-0.018937
-0.32883,1.216,-1.9809,8.8652,0.13073,0.089186,-0.017104
-0.38049,0.90221,-1.3533,9.3752,0.081245,0.10049,-0.023824
-0.42148,1.1768,-1.5102,9.1986,-0.053145,0.080329,0.014355
-0.44608,1.1768,-1.9417,8.4926,-0.21166,0.022602,0.014661
-0.46832,1.4318,-2.1575,8.316,-0.31612,-0.045204,0.034819
-0.48572,1.3533,-2.5105,8.5906,-0.32376,-0.090408,0.041233
-0.48361,1.3337,-2.6086,9.0417,-0.24312,-0.092546,0.022907
-0.47791,1.0591,-2.3732,9.3359,-0.12278,-0.040012,0.00030543
-0.45615,1.118,-2.2751,9.1986,0.15913,0.16157,-0.091019
-0.43347,0.90221,-2.2948,9.0417,0.20433,0.18234,-0.081856
-0.4046,0.74531,-2.0594,9.179,0.1799,0.17623,-0.0079412
-0.37952,0.72569,-1.9809,9.179,0.11179,0.15333,-0.010385
-0.35507,0.43149,-2.4124,8.8064,0.039095,0.13317,-0.027489
-0.31778,0.17652,-2.4713,9.0417,-0.0033598,0.11393,-0.055894
-0.28665,0.17652,-1.9809,9.5713,0.0088575,0.11576,-0.077885
-0.25177,0.35304,-1.6279,9.434,0.056505,0.13408,-0.090408
-0.22485,0.45111,-1.7848,8.8456,0.077274,0.13806,-0.002138
-0.21924,0.50995,-2.1378,8.2572,0.0085521,0.12278,0.0018326
-0.22028,0.56879,-2.1378,8.1199,-0.080023,0.1011,-0.070555
-0.2233,0.41188,-1.824,8.5318,-0.10079,0.076053,-0.062003
-0.22681,0.35304,-1.5691,9.2575,-0.027184,0.054672,-0.061087
-0.23318,0.2942,-1.6671,9.3359,0.076664,0.053145,-0.072693
-0.2305,0.66685,-2.4517,8.8064,0.11729,0.057421,-0.071777
-0.22546,1.1964,-2.8832,8.2572,0.057421,0.035125,-0.036346
-0.20966,0.92183,-2.4517,8.2768,-0.54,-0.35155,-0.064141
-0.21677,0.64724,-2.0594,9.0025,-0.58704,-0.343,-0.030238
-0.20575,0.41188,-1.8044,9.3359,-0.65821,-0.3091,-0.13989
-0.20807,0.41188,-2.1378,9.4732,-0.62644,-0.33781,-0.08491
-0.21585,0.90221,-2.7459,9.0417,-0.46823,-0.43463,-0.002138
-0.22656,0.76492,-2.8243,8.4141,-0.2645,-0.50427,0.04612
-0.26205,0.41188,-2.1967,8.8652,-0.50305,-0.48472,0.012217
-0.29703,0.64724,-1.3533,9.7478,-0.52198,-0.39095,-0.047037
-0.33789,1.3533,-1.5102,9.7478,0.30574,0.28924,0.16585
-0.37708,1.4906,-2.1378,8.8064,0.18692,0.24435,0.15058
-0.39426,1.6475,-2.5105,8.2572,0.043982,0.16616,0.032987
-0.40488,1.4906,-2.1967,8.4141,-0.088575,0.073304,0.07422
-0.39371,1.0199,-1.5298,8.7083,-0.19823,0.0051924,0.0956
-0.39694,0.41188,-0.94144,8.8064,-0.28069,-0.051007,0.1069
-0.39706,-0.23536,-1.2749,9.6694,-0.19364,-0.085521,0.12889
-0.39542,0.039227,-2.5105,10.12,0.18387,0.059865,0.14783
-0.4332,0.17652,-3.7265,7.8061,0.23121,0.26939,-0.0097738
-0.50748,-0.76492,-2.6086,9.0025,-0.28161,0.26176,0.040928
-0.58517,-1.216,-0.72569,11.258,-0.62492,0.029627,0.10324
-0.6601,0.25497,-1.1768,8.9437,-0.60323,-0.24679,0.034819
-0.72934,0.50995,-1.6475,7.7865,-0.40042,-0.39462,-0.051924
-0.74905,1.9221,-2.0594,9.0417,-0.25259,-0.40073,-0.088881
-0.74799,2.4517,-3.0989,7.6492,0.55283,-0.35583,-0.06017
-0.7467,2.3732,-1.8437,6.2959,0.56291,-0.28924,-0.029932
-0.74997,-1.7456,-1.1768,10.611,0.23854,-0.17532,0.055283
-0.75775,-3.6285,-2.7851,13.514,0.47128,-0.020769,-0.10201
-0.74258,0.90221,-2.432,9.1986,0.64049,0.21472,0.11454
-0.73111,-0.27459,-1.3729,7.0019,0.48564,0.47006,0.17623
-0.68927,-0.52956,-2.0986,8.316,0.072082,0.66004,0.23457
-0.63019,0.41188,-3.5304,9.179,-0.32467,0.60109,0.29444
-0.54678,1.118,-3.3146,8.9437,-0.14172,0.25717,0.29016
-0.4227,1.1964,-2.2555,8.316,0.012828,-0.15119,0.2025
-0.29977,1.1964,-1.7456,8.2768,0.087048,0.043677,-0.034208
-0.15793,1.0787,-2.1378,8.3749,0.13286,0.062614,-0.040623
-0.051849,1.216,-1.8044,8.0022,0.1741,0.091019,-0.048869
0.019684,1.1964,-2.1182,8.2572,0.18876,0.10507,-0.05681
0.083801,1.5298,-2.6086,8.8064,0.17532,0.10079,-0.043066
0.13177,1.3729,-2.432,9.1202,0.13592,0.093157,-0.03146
0.19308,0.90221,-2.0006,9.434,0.069333,0.090103,-0.030238
0.22638,0.98067,-2.7262,9.5125,-0.0079412,0.091019,-0.029932
0.27625,0.90221,-2.589,9.1594,-0.047647,0.072693,0.036346
0.29034,0.76492,-2.5693,8.9437,-0.0281,0.047037,0.03543
0.27872,0.74531,-1.9809,8.9437,0.023518,0.022297,-0.05284
0.23389,0.74531,-2.2751,8.8652,0.061392,0.0064141,-0.065668
0.18088,1.0395,-2.7459,8.8456,0.075747,0.014661,-0.065363
0.14081,0.56879,-2.687,9.179,0.064141,0.025045,-0.048869
0.086792,0.66685,-2.2751,9.0025,0.011606,0.015272,-0.016799
0.031067,0.86299,-1.8829,8.2572,-0.059559,0.0076358,0.018021
-0.030212,0.66685,-1.9417,8.3749,-0.079718,-0.0039706,0.10843
-0.078705,0.80415,-2.4713,8.8848,0.016188,-0.0036652,0.07422
-0.12338,0.56879,-2.6086,8.8064,0.13653,0.031765,0.020159
-0.15887,0.43149,-2.2751,8.8456,0.21564,0.078802,0.0094684
-0.18906,0.45111,-2.1967,8.2376,0.19548,0.11026,0.030238
-0.22037,0.66685,-2.3732,8.316,0.1066,0.12981,0.055589
-0.25681,0.41188,-2.2751,8.8456,0.091935,0.13134,0.061087
-0.31424,0.49033,-2.1967,9.3359,0.13042,0.12706,0.087354
-0.39151,0.039227,-2.1967,8.5906,0.15149,0.15516,-0.13011
-0.47449,0.17652,-1.6475,8.7083,0.12156,0.18357,-0.15088
-0.56757,-0.05884,-1.5102,8.9437,0.07422,0.15302,0.018937
-0.63803,0.19613,-1.7848,8.7475,0.03879,0.1124,-0.014661
-0.67081,0.41188,-1.7848,9.1594,0.025962,0.092852,-0.025656
-0.6683,0.8826,-1.9809,9.5713,0.034208,0.095906,-0.040012
-0.62616,0.70608,-2.0594,9.8066,0.01405,0.10049,-0.08094
-0.56854,0.74531,-1.7848,9.6301,-0.014355,0.077274,-0.10812
-0.50275,0.98067,-1.824,9.6301,-0.11942,-0.46212,-0.019548
-0.44888,0.64724,-2.1967,9.5909,-0.15913,-0.37904,0.023518
-0.42303,0.72569,-2.2751,8.8652,-0.30696,-0.33567,0
-0.42874,0.80415,-2.3536,7.7865,-0.44471,-0.30971,0.061697
-0.43436,-0.13729,-2.5105,8.3945,-0.58521,-0.32437,0.087048
-0.44003,-0.33343,-2.5693,9.8066,-0.57208,-0.29963,0.069944
-0.45071,0.49033,-1.5298,8.7083,-0.36194,-0.18173,-0.014966
-0.46729,-0.39227,-1.471,7.2373,-0.12492,-0.040012,-0.053145
-0.49692,-0.54917,-2.4517,6.8254,-0.045509,0.044593,-0.0009163
-0.50583,0.039227,-2.432,9.5125,-0.0076358,0.053145,0.036041
-0.51062,-0.35304,-1.7456,12.886,0.051313,0.03207,0.020464
-0.49966,0.078453,-1.471,11.768,0.07025,0.03146,-0.021686
-0.51163,0.64724,-1.1768,10.317,0.017104,0.068722,-0.064141
-0.52145,0.90221,-1.2553,9.6694,-0.084605,0.12401,-0.086743
-0.54086,1.118,-1.6475,8.6299,0.0012217,0.18204,-0.085827
-0.54718,1.5102,-1.216,8.316,-0.010385,0.21777,-0.052229
-0.55527,1.2356,-1.0199,8.0022,-0.33781,0.19517,0.029627
-0.56393,1.3337,-2.5105,7.5511,-0.24251,0.12156,0.022297
-0.53735,1.3337,-3.0793,7.4531,-0.076664,0.060476,0.039706
-0.49432,1.3533,-2.5301,8.1787,0.071166,0.041539,0.018021
-0.42917,1.216,-2.432,8.3945,0.13928,0.056505,-0.0039706
-0.37067,1.5298,-2.6086,8.7475,0.10385,0.071166,-0.010079
-0.28552,1.9221,-1.9025,8.7868,-0.20372,0.061087,0.00061087
-0.20306,1.118,-1.118,8.6887,-0.31276,0.034208,0.018937
-0.15399,0.25497,-2.1967,8.7083,0.036652,0.009163,0.010996
-0.1062,0.49033,-2.9812,8.8652,-0.060781,-0.02474,0.0094684
-0.063934,0.66685,-2.7851,9.3752,-0.18265,-0.047953,0.027794
-0.00027466,0.5884,-2.1967,9.7478,-0.20036,-0.024435,0.043982
0.058167,1.0395,-1.8044,8.8848,-0.12614,0.015272,0.04948
0.096741,1.0199,-2.0986,8.2572,-0.047953,0.03543,0.04215
0.12625,0.90221,-2.2555,8.6299,-0.0051924,0.055283,0.026573
0.1254,0.8826,-2.4124,9.0221,0.016493,0.087048,0.014966
0.108,0.80415,-2.3732,9.1202,-0.11515,0.06689,0.044899
0.092682,0.49033,-2.9028,9.0417,-0.081551,0.048258,0.024129
0.097015,0.76492,-2.432,8.8652,-0.0085521,0.042761,-0.025351
0.072388,0.76492,-1.9809,8.9437,0.040317,0.052229,-0.020464
0.063721,0.54917,-1.9025,8.8652,0.027489,0.051618,-0.0027489
0.049103,0.90221,-2.4124,9.1594,-0.049175,0.034514,0.028711
0.045593,0.76492,-2.6086,9.1202,-0.14813,-0.0030543,0.047647
0.038269,0.8826,-2.5105,9.1594,-0.21625,-0.0562,0.052229
0.03656,0.60801,-1.8829,9.2575,-0.21075,-0.08827,0.097128
0.028198,0.90221,-1.7456,9.2183,-0.16371,-0.076664,0.10049
0.017883,1.118,-1.6475,8.7083,-0.13103,-0.044288,0.012828
-0.00085449,0.90221,-1.5887,8.8456,-0.12431,-0.015272,0.022602
-0.025482,0.70608,-1.5102,9.179,-0.12767,-0.016493,0.047953
-0.05426,0.49033,-1.3533,9.1986,-0.13683,-0.033903,0.082772
-0.075165,0.49033,-1.6475,8.8456,-0.17226,-0.047342,0.098044
-0.091187,0.66685,-1.6671,8.5514,-0.219,-0.062308,0.095295
-0.099701,0.80415,-1.3533,8.8652,-0.24099,-0.079412,-0.0045815
-0.11304,0.56879,-1.3533,9.1202,-0.23457,-0.087965,0.0061087
-0.11584,0.70608,-1.8044,9.2575,-0.22785,-0.067501,0.096211
-0.097504,0.49033,-2.1182,9.2575,-0.22419,-0.035736,0.082772
-0.065674,0.54917,-1.726,9.5125,-0.17685,-0.025656,0.059254
-0.04895,0.45111,-1.4318,9.4928,-0.063835,-0.022602,0.028711
-0.018982,0.35304,-1.7456,9.2183,0.059254,0.014661,0.010079
0.0071411,0.74531,-1.824,8.8456,0.13378,0.069333,0.0009163
0.042603,0.70608,-1.8437,8.9437,0.14416,0.071471,-0.016493
0.060638,0.27459,-1.7456,9.2183,0.10537,0.049786,-0.022602
0.08963,0.45111,-1.8829,9.1202,0.072998,0.048564,-0.023518
0.10513,0.56879,-2.0986,8.8848,0.055894,0.062614,-0.040317
0.11069,0.80415,-1.9809,8.5514,0.048258,0.086132,-0.051313
0.12109,0.76492,-2.5105,8.5318,0.047647,0.11423,-0.054672
0.1207,0.74531,-2.5105,8.4926,0.015577,0.11942,-0.050396
0.11914,0.74531,-2.0986,8.8456,-0.045509,0.096211,-0.026573
0.12149,0.56879,-1.9417,8.8064,-0.35186,-0.084605,0.040012
0.15103,0.70608,-1.6475,8.5514,-0.26848,-0.086132,0.15241
0.20099,0.66685,-1.8044,8.3749,-0.03879,-0.079412,0.10385
0.22491,0.60801,-1.8829,9.2183,0.29352,-0.021075,0.058948
0.25818,0.27459,-2.1575,10.591,0.61514,0.091935,-0.0039706
0.28827,1.118,-1.9809,9.179,0.82467,0.25992,-0.027489
0.25098,1.5102,-2.1378,7.0019,-0.21716,0.38362,0.00061087
0.16779,0.33343,-3.0401,9.6497,-0.31398,0.405,0.010385
0.055634,0.70608,-1.9809,11.67,0.098655,0.29474,0.040928
-0.040497,1.4906,-0.49033,10.454,-0.39828,0.096822,0.038485
-0.14148,1.4318,0.05884,8.1787,-0.80268,-0.15302,0.19059
-0.20621,0.86299,-0.72569,8.4141,-1.0205,-0.42699,0.14111
-0.26379,1.3533,-2.2948,7.9042,-1.0577,-0.62553,0.13439
-0.27774,1.9809,-3.3146,7.5903,-0.95509,-0.6973,0.10904
-0.25815,1.2945,-2.8243,8.0807,0.82253,-0.68203,0.078496
-0.21991,0.23536,-1.118,9.689,0.54092,-0.61178,0.061087
-0.21426,-0.35304,-1.1768,10.199,-0.26542,-0.10843,0.08491
-0.23251,0.41188,-2.2751,7.5903,0.040012,0.049175,0.093768
-0.25818,-0.76492,-2.3732,9.2183,0.2645,0.21564,-0.058643
-0.27527,-0.74531,-1.1768,11.395,0.43066,0.35003,-0.039095
-0.28687,0.23536,-0.62763,9.5909,0.55314,0.45387,-0.035736
-0.28848,-0.039227,-0.74531,8.218,0.57818,0.48472,-0.025962
-0.28262,-0.35304,-1.6475,8.1199,0.43768,0.40409,0.022602
-0.28522,0.33343,-2.2555,7.3942,0.18998,0.25351,0.072082
-0.26767,0.66685,-2.0594,7.8061,0.32834,0.11362,0.095295
-0.20428,-0.68647,-1.3141,11.356,0.50488,0.086437,0.11057
-0.10327,-0.90221,-0.49033,13.082,0.51191,0.18601,0.12431
0.015503,-0.52956,-0.80415,11.846,0.31093,0.24893,0.15027
0.13864,0.35304,-1.5102,8.8064,0.049786,0.20647,0.1631
0.22263,0.74531,-2.3732,6.9627,-0.11332,0.06353,0.146
0.29233,0.25497,-2.7851,7.2373,0.012217,-0.068722,0.12248
0.34894,0.5884,-3.0793,8.2376,0.068111,-0.10415,0.096211
0.41223,0.72569,-3.0008,9.0025,0.024129,-0.048869,0.0012217
0.47852,0.82376,-3.197,8.8848,0.073915,-0.047953,0.028711
0.53516,1.5495,-2.3732,8.316,0.10934,-0.029016,-0.01741
0.56232,1.7456,-1.6475,8.1787,0.11698,-0.0045815,-0.017715
0.55453,1.3729,-1.2553,8.6299,0.071777,0.020159,-0.029322
0.53644,1.4318,-0.80415,8.7279,0.08827,0.0067195,-0.050091
0.50046,1.0395,-1.5691,8.7475,0.20647,-0.021075,-0.061392
0.44202,1.1964,-2.5693,8.218,0.32315,-0.030238,-0.039401
0.38089,1.6083,-2.8243,8.3749,0.23335,0.10446,-0.081245
0.30603,1.5887,-2.7459,9.179,0.060781,0.049786,-0.099571
0.2388,1.1964,-1.824,9.5909,-0.069944,-0.00030543,0.019242
0.16257,0.96105,-1.6867,9.6694,-0.11545,-0.018937,-0.009163
0.080109,0.98067,-1.8829,9.0417,-0.090408,-0.017715,-0.028711
0.019104,0.90221,-2.0398,8.9633,-0.04215,-0.026267,-0.025351
-0.016235,0.66685,-2.687,9.179,-0.002138,-0.036957,-0.018631
-0.045776,1.1768,-2.9028,9.0221,0.047342,-0.028405,-0.043371
-0.058472,1.118,-2.6086,8.8848,0.10018,-0.009163,-0.19517
-0.067627,1.6083,-2.432,8.8652,0.13683,0.011606,-0.14294
-0.082458,1.4318,-2.3144,8.7083,0.13561,0.036041,-0.1127
-0.084656,1.5102,-1.7456,8.8652,0.077885,0.041844,-0.13286
-0.075348,1.0395,-1.824,9.0025,0.007025,0.033292,-0.15516
-0.062134,0.92183,-2.0594,8.7868,-0.0079412,0.04948,-0.1857
-0.047943,0.76492,-1.9809,8.7083,0.031765,0.081856,-0.22907
-0.052246,0.49033,-1.9809,8.9044,0.072388,0.1014,-0.24282
-0.048767,0.50995,-2.0594,9.0221,0.1295,0.0956,0.00061087
-0.066345,0.49033,-2.3732,9.1006,0.13286,0.071777,-0.014966
-0.07666,0.49033,-2.589,8.9437,0.1408,0.046426,-0.12217
-0.10104,0.23536,-2.2555,8.9044,0.13592,0.04215,-0.12828
-0.12592,-0.078453,-1.9809,9.1202,0.094073,0.051007,-0.11393
-0.14743,0.17652,-1.6671,9.5713,0.027489,0.047342,-0.071166
-0.20187,0.43149,-1.4906,9.8066,-0.023518,0.015577,-0.031765
-0.26254,1.0787,-1.4318,9.4144,-0.021075,-0.0281,-0.00061087
-0.34692,1.5298,-1.1768,8.9437,0.13531,0.3036,-0.014661
-0.44315,1.6867,-1.3533,8.4926,0.0045815,0.39767,-0.042761
-0.55389,1.9613,-1.2553,8.0022,-0.16249,0.3656,0.12675
-0.64276,2.0594,-1.6671,7.6884,-0.26695,0.27947,0.078802
-0.70129,1.824,-2.0006,8.0807,-0.32498,0.16127,0.017104
-0.75833,1.824,-2.0594,9.0613,-0.30696,0.061697,-0.013439
-0.77707,1.2356,-1.7848,9.5909,0.027489,-0.037263,-0.070555
-0.78439,1.0199,-1.8044,9.5125,0.1967,-0.11698,-0.049175
-0.76306,1.118,-2.0006,9.1594,-0.18692,0.14844,-0.067195
-0.76352,1.0591,-2.1378,8.9437,-0.13897,0.21411,-0.064752
-0.74753,1.0591,-1.8044,8.9437,-0.056505,0.26298,-0.19884
-0.7121,0.80415,-1.5887,9.179,0.057421,0.31276,-0.19059
-0.66501,1.2945,-1.5691,9.1986,0.2022,0.34636,-0.17349
-0.59579,1.9025,-1.6279,9.2575,0.34147,0.32926,-0.17013
-0.53543,2.5301,-2.1182,8.6495,0.36866,0.24404,-0.12981
-0.48151,1.7456,-2.2948,8.9044,0.25259,0.11576,-0.077885
-0.42471,0.90221,-2.8243,8.5514,-0.40256,-0.031765,-0.13714
-0.38501,-0.05884,-1.824,9.8459,-0.48167,-0.16738,-0.082161
-0.32245,0.41188,-0.68647,11.101,-0.48106,-0.24618,-0.053451
-0.25638,0.92183,-1.118,10.199,-0.40134,-0.26725,-0.049786
-0.20578,1.0395,-1.4318,9.0025,-0.20342,-0.27519,-0.027184
-0.13779,1.4906,-2.4517,7.7669,0.078802,-0.23946,-0.032987
-0.094208,1.8437,-2.6674,7.61,0.025656,-0.12339,-0.09896
-0.059326,1.6083,-1.5298,8.316,-0.2248,0.046426,-0.14691
-0.04007,0.43149,-0.27459,9.3163,0.29932,0.21716,0.032987
-0.03833,0.41188,-0.74531,8.8652,0.13622,0.30574,0.083994
-0.035248,0.90221,-2.2163,8.3945,-0.05681,0.29444,-0.024435
-0.053162,0.039227,-3.2166,8.0807,-0.22449,0.23213,0.025656
-0.094116,-0.45111,-2.687,9.0417,-0.31124,0.16677,0.067501
-0.10925,-0.86299,-1.9613,9.434,-0.22907,0.13592,0.06689
-0.11258,-0.21575,-1.2553,9.3359,0.3094,0.13225,0.036957
-0.10788,-0.13729,-1.6279,10.003,0.37599,0.17837,0.019548
-0.087402,0.90221,-1.9025,9.5909,0.41172,-0.13989,0.0033598
-0.056519,1.4318,-2.2948,9.0417,0.38851,0.033598,0.048869
-0.02359,1.5495,-1.6867,8.6299,0.33201,0.18784,0.072388
-0.037537,1.0591,-1.2553,7.9238,0.24099,0.2251,0.081551
-0.081146,0.098066,-0.54917,7.9042,0.11912,0.12614,0.025045
-0.097992,-0.5884,-1.5298,9.7478,-0.013439,0.0054978,-0.039095
-0.097412,0.35304,-3.5304,10.199,-0.15088,-0.07758,-0.044288
-0.052826,0.90221,-3.2362,9.6497,-0.31612,-0.15058,-0.033292
0.025543,1.1964,-1.8829,8.8848,-0.50244,-0.20189,-0.038179
0.098389,0.39227,-1.3337,9.2183,-0.68478,-0.22907,-0.041233
0.19214,0.35304,-2.1967,11.356,-0.81917,-0.24923,0.081856
0.28384,0.8826,-3.0793,10.63,-0.83689,-0.26695,0.11576
0.35608,1.5495,-2.3144,8.7083,-0.67531,-0.27336,0.1127
0.37997,1.7456,-1.3337,6.6881,-0.35461,-0.2135,0.068111
0.38046,0.70608,-0.86299,7.963,-0.040317,-0.075747,0.010385
0.35834,-0.27459,-0.80415,9.9832,0.16982,0.0562,-0.025045
0.32706,0.43149,-0.72569,10.375,0.27,0.13806,0.0054978
0.29172,0.41188,-1.118,9.8263,0.24557,0.16096,-0.0054978
0.22009,0.49033,-1.3533,8.5514,0.1912,0.1463,-0.043066
0.14719,0.11768,-2.5105,7.8453,0.1066,0.12217,-0.048258
0.090637,0.90221,-3.5108,7.5315,0.00030543,0.11301,-0.064141
0.06308,1.8044,-3.5108,7.9434,-0.13561,0.12767,-0.076053
0.033875,1.2945,-2.9028,9.0417,-0.25779,0.15302,-0.058948
0.042206,1.2945,-2.5105,9.434,-0.23396,0.13347,-0.018021
0.055359,1.4318,-1.6475,8.8456,-0.046731,0.086132,0.12248
0.066742,0.96105,-1.0003,8.0807,0.18418,0.089797,0.10415
0.10172,0.33343,-2.1967,8.0807,0.40012,0.11973,-0.027184
0.11465,0.86299,-2.6674,9.179,0.52168,0.15363,-0.020464
0.14169,0.49033,-2.1575,10.101,0.47434,0.15974,0.043677
0.15701,-0.039227,-1.2749,10.748,0.30024,0.10568,0.10263
0.1691,0.17652,-1.118,10.003,0.11576,0.019548,0.12278
0.18747,0.80415,-1.3729,9.1202,-0.03543,-0.071471,0.12675
0.15225,1.3337,-2.3536,9.1202,-0.18295,-0.14233,0.029016
0.075897,1.6083,-2.1575,6.747,-0.36499,-0.14111,-0.019548
-0.023438,-0.49033,-1.5102,10.062,-0.62461,-0.082161,0.060781
-0.1171,0.90221,-1.6475,11.042,-0.88148,-0.014966,0.093157
-0.19843,2.4909,-0.94144,8.6299,-0.94928,0.037568,0.10996
-0.25592,1.9221,-1.4122,7.8061,-0.78282,0.010996,0.13989
-0.26987,2.2163,-1.9809,8.218,0.10873,-0.017104,0.17593
-0.23486,2.1182,-2.6282,9.1202,-0.058643,0.038179,0.11454
-0.15381,1.6083,-2.8439,8.6299,-0.17287,0.12798,0.058643
-0.052917,1.2356,-1.9417,8.316,-0.23396,0.21472,0.10232
0.029266,0.54917,-1.0591,8.3749,-0.37354,0.23702,-0.019548
0.094727,-0.21575,-1.1768,8.316,-0.4163,0.13317,0.052534
0.12393,-0.33343,-2.589,8.6299,-0.38454,-0.011301,0.093157
0.10443,-0.84337,-3.5108,9.0417,-0.33842,-0.090713,0.026573
0.074707,-1.3141,-3.0597,10.572,-0.54153,-0.13286,-0.027489
0.059265,-1.1572,-1.5102,11.062,-0.30696,-0.18021,-0.00061087
0.031921,-0.43149,0.078453,9.3752,-0.20556,-0.24923,-0.06353
-0.00091553,-0.35304,1.0003,7.61,-0.054672,-0.29841,-0.023824
-0.043243,0.098066,1.0003,7.2373,0.13439,-0.30146,0.070555
-0.064575,-0.45111,-1.7456,7.1589,0.28772,-0.25443,0.014661
-0.046173,0.078453,-4.158,8.3945,0.38271,-0.17898,-0.026878
0.043335,0.5884,-3.5696,9.8263,0.45968,-0.11912,-0.028405
0.19183,0.11768,-3.0793,10.532,-0.31765,-0.098044,-0.012523
0.34851,0.76492,-2.687,9.6694,-0.28863,-0.083383,-0.040012
0.49011,1.0395,-1.6279,9.5713,-0.075442,0.22449,0.042761
0.57141,1.4318,-2.0986,9.4144,-0.15547,0.20433,0.034208
0.60498,1.7064,-3.1577,9.2183,-0.083994,0.17562,0.04948
0.62793,1.4318,-3.2166,9.0417,0.18509,0.19975,0.040317
0.63351,1.1768,-3.0793,9.2575,0.51557,0.25473,0.025656
0.64401,0.90221,-1.824,9.4928,0.62156,0.19578,0.069944
0.62225,0.76492,-0.86299,9.0613,0.56169,0.081551,0.12065
0.57065,0.70608,-0.56879,8.0807,0.36133,-0.04612,0.083078
0.48502,0.74531,-0.68647,7.8649,0.23579,0.041844,-0.0061087
0.34653,0.17652,-0.86299,8.218,0.22113,0.10232,0.074526
0.15479,0.25497,-1.7848,6.8058,0.12126,0.10965,-0.2303
0.040558,0.17652,-3.4716,9.689,0.075442,0.050091,-0.16432
-0.07486,0.60801,-3.55,11.003,0.13836,-0.0018326,-0.11057
-0.15988,0.90221,-0.49033,10.317,0.20769,0.035125,-0.1237
-0.23108,0.019613,0.62763,8.9437,0.22724,0.11332,-0.12859
-0.27466,0.76492,-1.824,7.0019,0.20006,0.15852,-0.086743
-0.26572,1.4318,-3.6677,7.6884,0.13225,0.15211,-0.0027489
-0.22198,0.98067,-3.3146,9.8066,0.019242,0.10996,-0.031765
-0.1405,0.45111,-1.9809,10.375,-0.099571,0.05284,0.1066
-0.065765,0.56879,-1.9809,9.6497,-0.15516,0.0033598,0.087659
-0.0078735,0.80415,-2.6282,9.1202,0.012523,0.0027489,0.06353
0.034332,1.118,-2.3732,9.1006,0.36744,0.071471,0.084299
0.04184,0.98067,-1.8437,9.9636,0.60109,0.16188,0.13683
0.062012,1.118,-1.5102,10.101,0.72876,0.18784,0.10965
0.046661,1.118,-1.5102,9.3163,0.71624,0.1011,-0.011912
0.016022,1.3925,-1.9809,8.6299,0.41753,-0.11454,-0.035125
-0.041077,1.118,-2.6674,8.2572,-0.020159,-0.30299,-0.010996
-0.0513,1.2945,-2.432,8.2376,-0.40195,-0.35919,0.038485
-0.064728,0.74531,-1.2553,8.6299,-0.79077,-0.40287,0.011301
-0.054138,0.27459,-1.6279,8.6887,-1.0131,-0.45601,-0.069333
-0.035309,0.74531,-2.1182,8.218,-0.82131,-0.37904,-0.13286
-0.033936,-0.019613,-1.2553,8.4926,-0.40623,-0.19426,-0.1686
-0.027527,-0.90221,-1.1572,9.5713,0.34544,-0.049175,-0.30329
-0.052979,-0.23536,-1.6867,9.689,0.12889,-0.078191,-0.28008
-0.10699,0.66685,-2.2948,6.5312,-0.1576,-0.13073,0.0036652
-0.17126,-0.019613,-3.0793,10.375,-0.38515,-0.18937,-0.049786
-0.21762,-0.54917,-2.1967,13.514,-0.46334,-0.20189,-0.14142
-0.24652,1.216,-0.21575,10.513,-0.39859,-0.17807,-0.22419
-0.26678,1.2945,0.25497,7.7865,-0.21136,-0.12278,-0.27
-0.26315,1.1964,-1.5102,6.1782,0.014661,-0.045815,-0.29749
-0.23822,1.6671,-2.9028,6.3743,0.022907,0.15455,-0.055589
-0.15808,1.6671,-2.7459,7.8061,-0.029322,0.22877,-0.066584
-0.01651,0.49033,-1.8829,9.7478,-0.12462,0.25504,0.049175
0.12122,-0.019613,-1.5102,10.375,-0.19059,0.24679,0.054367
0.24777,0.72569,-1.4122,9.434,-0.19273,0.21502,0.038485
0.31516,0.8826,-1.6867,7.7669,-0.11759,0.16493,0.019242
0.39682,0.098066,-3.0597,7.5511,-0.12339,0.12553,0.0009163
0.43384,0.45111,-2.589,9.3163,-0.018631,0.11454,-0.023824
0.47369,-0.019613,-1.5691,12.082,0.18326,0.12523,-0.033292
0.45663,0.39227,-1.5691,10.003,0.14752,0.15333,-0.023213
0.36749,1.4906,-2.1967,7.5511,0.051618,0.17715,-0.058948
0.24466,1.0591,-3.1577,9.8851,-0.034208,0.17135,-0.040012
0.11841,-0.039227,-2.1967,12.807,-0.067806,0.11454,-0.020159
0.0081787,0.078453,-0.21575,11.062,-0.036652,0.036041,-0.010996
-0.089203,0.43149,0.23536,7.4531,0.0054978,-0.025045,-0.014661
-0.17374,0.49033,-1.8829,6.8254,0.12462,-0.050702,-0.023518
-0.22223,1.6083,-3.5304,7.9434,-0.63041,-0.40867,-0.10599
-0.23419,2.1575,-3.3146,8.9437,-0.95845,-0.5339,-0.022602
-0.18024,1.2945,-1.6475,8.8652,-1.007,-0.55864,-0.043677
-0.093872,1.5298,-0.39227,8.4337,-0.8323,-0.52809,-0.082161
0.011749,1.2356,-1.0003,8.2376,-0.55711,-0.45387,-0.12339
0.15201,1.1964,-2.0594,8.1787,-0.23457,-0.32926,-0.18509
0.24414,1.4906,-2.2948,7.8649,0.053145,-0.18509,-0.21594
0.32819,0.80415,-2.1378,8.2572,0.26542,-0.068722,-0.17562
0.39481,0.92183,-1.9809,9.2183,0.0085521,-0.016188,-0.007025
0.43481,0.8826,-2.4517,9.5713,-0.20342,-0.031154,0.011912
0.47806,1.0199,-2.9224,9.434,-0.36316,-0.067806,0.02138
0.52109,0.90221,-2.6674,9.4732,-0.43158,-0.10201,0.011912
0.54462,0.98067,-1.8829,9.2575,-0.38118,-0.12431,0.015577
0.54398,0.5884,-1.6671,9.3359,-0.25717,-0.12187,0.027794
0.52426,0.49033,-2.1967,9.5321,0.33995,-0.07025,0.020159
0.48059,0.90221,-2.2751,9.3555,0.2248,0.039706,0.0061087
0.42615,1.0395,-1.824,9.1202,-0.31673,0.036346,-0.098655
0.36581,0.80415,-1.9417,9.1202,-0.068722,0.027489,-0.070555
0.33392,1.0199,-2.0594,9.0025,0.21166,0.095906,-0.053756
0.30988,0.72569,-2.3144,9.2183,0.36346,0.1631,-0.079718
0.29138,0.72569,-2.432,9.1202,0.35613,0.17562,-0.062614
0.25998,0.96105,-2.1182,9.1006,0.27031,0.14264,-0.046731
0.2345,0.90221,-1.8044,9.0025,0.17685,0.10629,-0.07086
0.1994,1.1964,-1.6867,8.7083,0.085827,0.086132,-0.10446
0.17569,1.0395,-2.2751,8.8064,-0.044593,0.026573,-0.053451
0.15833,0.98067,-2.6086,8.4926,-0.082467,0.025045,0.03207
0.14487,1.0395,-2.1967,8.5514,-0.069639,0.032987,-0.11148
0.13205,1.3533,-1.6475,8.9437,-0.03207,0.05284,-0.12065
0.10693,1.3533,-1.6475,8.8652,0.0064141,0.072998,-0.1066
0.086243,1.3533,-2.0986,8.7083,0.072082,0.086132,-0.09163
0.071747,1.1768,-2.8243,8.7868,0.17837,0.10507,-0.093462
0.069275,0.54917,-2.8439,8.7083,0.28039,0.10996,-0.093157
0.065002,0.13729,-1.6279,8.7475,0.3149,0.079718,0.051313
0.050507,-0.23536,-0.80415,9.3752,0.22571,-0.002138,0.030849
0.028717,0.13729,-0.80415,9.5321,0.045204,-0.11301,0.087354
0.021851,0.86299,-1.4318,8.8652,-0.146,-0.19975,0.080023
0.025879,0.90221,-1.5691,8.3945,-0.26878,-0.23335,0.05284
0.016083,1.1964,-2.0006,8.3749,-0.30268,-0.20495,0.032681
0.0082397,1.4906,-2.0594,8.4926,-0.31246,-0.14691,0.022907
-0.0082703,1.4318,-1.216,8.6887,-0.3372,-0.10507,0.036041
-0.023224,0.80415,-1.118,9.3163,-0.2642,-0.072082,0.10171
-0.028809,0.98067,-2.7459,9.3163,-0.12767,-0.01405,0.020159
-0.041199,0.90221,-4.158,9.0025,0.038485,0.07422,0.014966
-0.026001,1.216,-3.2166,9.5125,0.14172,0.1799,0.035125
-0.012878,1.1964,-1.8437,9.5713,0.12126,0.2529,0.072082
0.010437,1.4318,-1.118,8.8652,-0.019853,0.2529,0.11545
0.023743,1.3533,-1.3141,8.5514,-0.22602,0.19426,0.15363
0.034882,1.1376,-2.1575,7.8649,-0.37446,0.1127,0.15241
0.049561,0.76492,-2.3144,8.8064,0.1967,0.39034,0.36163
0.083374,0.56879,-2.1575,10.572,0.22694,0.46945,0.20708
0.1514,1.0199,-0.43149,9.6301,0.32773,0.53481,0.03146
0.19473,0.17652,-0.5884,7.8649,0.46823,0.57635,0.075747
0.22372,-0.27459,-2.2751,9.6301,0.58277,0.57605,0.15211
0.24683,0.90221,-2.6086,10.827,0.69211,0.56261,0.24007
0.26889,1.5495,-1.824,10.101,0.65393,0.50855,0.35094
0.28192,2.0006,-1.6279,8.5514,0.26542,0.208,0.41875
0.25217,1.6867,-1.9809,7.9434,-0.30452,-0.2587,-0.12614
0.22855,1.8044,-2.1967,7.8453,-0.81428,-0.67684,-0.10049
0.20151,2.2359,-2.1575,7.4727,-0.97494,-0.80451,0.069639
0.18332,1.6867,-2.432,7.7669,-0.81337,-0.69425,-0.080329
0.17044,0.80415,-2.3536,8.6299,-0.51588,-0.5006,-0.13042
0.10803,-0.11768,-1.9809,9.4928,-0.20372,-0.29658,-0.13989
0.0014954,-1.9025,-1.4906,9.1986,0.010996,-0.13867,-0.16554
-0.087402,-4.5699,-1.3729,14.122,0.13622,-0.029322,-0.16127
-0.1525,-1.9025,-2.3732,11.631,-0.24648,-0.0051924,0.16554
-0.22052,0.56879,-3.0008,6.5312,-0.39401,-0.042455,0.13164
-0.26523,0.54917,-2.4517,6.139,-0.50702,-0.086437,-0.11545
-0.2988,0.56879,-1.0591,7.3158,-0.57879,-0.12584,-0.1014
-0.29007,0.68647,-0.86299,9.4732,-0.5959,-0.16066,-0.057421
-0.23572,1.0395,-1.118,9.8263,-0.51954,-0.19028,-0.0051924
-0.13971,1.216,-1.0983,9.434,0.10721,-0.23366,0.06017
-0.012665,1.3925,-1.3141,9.0025,-0.058948,-0.24038,0.14539
0.10336,2.2359,-2.5105,7.7669,0.21289,-0.14233,0.063225
0.21466,2.1771,-2.6086,7.6884,0.32345,0.017104,0.010996
0.32529,1.6475,-2.2555,8.3945,0.30329,0.16157,0.14142
0.40955,1.1964,-2.2751,9.1594,0.23457,0.24526,0.19884
0.48566,0.98067,-3.0793,9.8459,0.17287,0.26542,0.23824
0.54303,1.3533,-3.0793,9.0025,0.14508,0.25473,0.20892
0.60327,0.41188,-2.6674,7.8649,-0.31215,0.22969,0.15608
0.63614,-0.80415,-1.9025,10.258,-0.031154,0.20189,0.1127
0.65265,-1.5298,-2.432,11.944,-0.16829,-0.13042,-0.050702
0.63892,0.078453,-2.4517,9.8066,-0.28863,-0.18418,-0.051618
0.60858,0.49033,-2.0986,7.9042,-0.30727,-0.19975,0.028711
0.5162,-0.13729,-2.4713,8.1199,-0.23702,-0.16066,0.016493
0.41846,0.66685,-2.687,8.9044,-0.12126,-0.09499,-0.0009163
0.35535,0.98067,-2.1182,9.0417,-0.013134,-0.021075,-0.011912
0.30783,1.1964,-1.1964,9.0417,0.076664,0.041233,-0.026267
0.24756,1.3337,-0.86299,8.2572,0.17287,0.10568,-0.039095
0.21133,0.98067,-1.3533,8.0611,0.24648,0.18387,-0.042761
0.20255,1.3337,-2.432,8.2376,0.19975,0.23793,-0.022602
0.22296,1.4318,-3.5696,8.218,0.146,0.23671,-0.040012
0.26971,1.6475,-3.3931,8.9437,0.10904,0.219,-0.036041
0.31097,1.3533,-2.1967,9.5909,0.10537,0.19914,-0.032987
0.32776,0.76492,-1.5102,9.5909,0.1628,0.17776,-0.023213
0.31274,1.0591,-1.5102,9.179,0.24618,0.17196,-0.030849
0.25525,1.4514,-2.1378,8.5514,0.27061,0.18051,-0.045509
0.21301,1.9221,-2.6282,8.4729,0.208,0.208,-0.071777
0.16592,2.0006,-3.2166,8.218,0.14264,0.25107,-0.0956
0.13651,1.5495,-3.0008,8.2768,0.19914,0.26206,0.013439
0.1109,1.3337,-2.2163,8.3357,0.33781,0.24099,0.051618
0.086456,0.98067,-1.8044,8.2572,0.42516,0.21289,0.060781
0.069458,0.64724,-1.9417,8.8652,0.36377,0.13836,-0.021991
0.056488,0.60801,-2.3928,9.5713,0.12859,0.0030543,-0.13439
0.049072,0.98067,-2.6086,9.3555,-0.20464,-0.14416,-0.11851
0.048248,1.0395,-2.0594,8.4141,0.3882,-0.2923,-0.10201
0.036285,0.17652,-2.1967,9.5125,-0.35919,-0.39126,-0.047953
0.010376,0.11768,-1.4318,10.925,-0.58154,-0.39737,-0.14722
-0.032745,0.98067,-1.216,11.219,-0.60873,-0.30482,-0.20892
-0.08667,1.7456,-1.9613,9.5321,-0.42119,-0.16371,-0.23915
-0.14359,2.8047,-2.2751,7.3354,-0.14691,-0.01741,-0.21594
-0.19003,2.6282,-2.0398,7.3746,0.10751,0.14752,-0.19151
-0.23553,2.7851,-1.3337,7.3746,0.29383,0.28619,-0.16005
-0.2749,1.5298,-1.471,8.0022,0.094684,-0.12492,-0.081245
-0.30414,1.4318,-1.9417,8.6495,0.17226,-0.069944,-0.051618
-0.33105,1.118,-1.9417,9.1986,0.18754,0.051924,-0.031154
-0.34171,-0.13729,-1.9613,9.4732,0.20983,0.17043,-0.064141
-0.36212,-0.68647,-1.9809,8.316,0.28497,0.23885,-0.077274
-0.39667,-1.0983,-2.0594,7.6884,0.36224,0.27458,-0.087048
-0.44983,-1.471,-2.589,8.4926,-0.13836,0.29413,-0.11332
-0.49048,-1.6475,-2.5105,10.434,-0.044288,0.26023,-0.12034
-0.52606,-1.5887,-1.7456,11.219,0.30329,0.16066,-0.19242
-0.53488,-0.76492,-0.86299,11.297,0.43707,0.027489,-0.14172
-0.51813,0.098066,-0.39227,10.925,0.70005,-0.07422,-0.10782
-0.50854,0.27459,-0.11768,9.3752,0.98105,-0.069333,-0.18265
-0.48502,-0.21575,-0.94144,7.8649,1.1551,0.043982,-0.2022
-0.47849,-0.37265,-2.7851,6.845,1.2049,0.13378,-0.18082
-0.41867,1.2356,-3.9423,8.6299,0.34392,0.19242,-0.13347
-0.31519,2.3732,-3.5304,10.062,0.28466,0.23305,-0.13347
-0.14722,2.1575,-2.0986,9.179,0.10568,0.2025,0.033292
0.011627,2.1575,-1.7848,8.6299,-0.52565,0.12339,0.085827
0.11249,2.5301,-2.7262,7.6492,-0.98197,-0.051313,-0.040928
0.17941,2.1378,-3.3735,8.0022,-1.1402,-0.27428,-0.026573
0.21909,0.66685,-3.3931,8.1787,-1.0611,-0.4163,-0.035736
0.22888,-0.17652,-2.3732,8.6299,-0.89064,-0.44807,-0.034819
0.2392,-0.5884,-2.0594,9.8851,1.0589,-0.38668,-0.033598
0.21066,0.27459,-2.7459,9.4732,0.68661,-0.28527,-0.0048869
0.17368,0.90221,-2.4713,8.1787,-0.97128,-0.43738,0.016799
0.1124,0.41188,-2.1378,9.0417,-0.67501,-0.40256,-0.010079
0.046173,0.66685,0,10.297,-0.30788,-0.30116,0.035125
-0.029938,0.45111,1.8633,11.533,-0.022907,-0.1744,-0.076664
-0.12378,1.2356,1.2356,10.474,0.10049,-0.079718,-0.10782
-0.18076,1.6083,-0.39227,8.6299,0.099571,-0.027489,-0.058643
-0.24139,1.3729,-1.5691,7.7865,0.0048869,-0.040317,0.0061087
-0.26413,1.3337,-2.589,7.4334,-0.10812,-0.097128,0.03879
-0.26898,1.6083,-3.7265,7.5903,0.079107,-0.28588,0.2251
-0.21426,1.118,-3.4127,8.4926,0.60445,-0.060476,0.17318
-0.16437,0.92183,-1.5102,9.0417,0.83811,0.20036,-0.096211
-0.1124,-0.078453,-0.31381,9.8263,0.68173,0.35216,0.0076358
-0.10223,0.098066,-1.3141,9.1202,0.23274,0.38882,0.13286
-0.097443,1.0395,-3.2362,7.4531,-0.16463,0.43188,0.11179
-0.10992,1.3533,-3.3146,7.7865,-0.12431,0.48503,0.04215
-0.14978,-0.05884,-2.3144,7.8453,0.19731,0.48686,0.10843
-0.22311,-3.3735,-0.94144,11.69,0.61209,0.39126,-0.18448
-0.27979,-2.4124,-1.8044,12.827,0.82009,0.29902,-0.16218
-0.32993,0.86299,-3.7265,7.9042,0.54764,0.14233,-0.085521
-0.36414,0.98067,-3.4127,7.1196,0.055283,-0.057421,-0.14661
-0.36273,1.3533,-1.8044,8.0807,-0.34147,-0.30055,-0.085216
-0.33118,0.45111,-0.80415,8.6299,-0.49663,-0.52076,-0.060781
-0.29373,1.0395,-0.31381,8.0807,-0.51343,-0.61728,-0.054062
-0.25229,0.41188,-3.0008,9.7478,-0.52137,-0.58765,-0.12767
-0.20682,1.1964,-3.0008,12.003,0.081551,-0.12614,-0.058338
-0.14246,0.86299,-0.8826,12.945,0.20433,-0.036346,-0.065057
-0.12192,0.8826,0,10.101,0.19059,0.024435,-0.050702
-0.1405,1.2945,-1.4906,6.747,0.048869,0.073915,0.043677
-0.1467,1.1768,-3.1381,7.0019,-0.14264,0.090713,0.10354
-0.14731,1.2945,-3.3735,7.0019,-0.1628,0.057116,0.11209
-0.095367,1.7064,-1.8829,7.4531,0.059254,0.029627,0.078191
-0.066284,1.8437,-0.70608,8.4337,0.4215,0.060476,0.041539
-0.073944,1.3925,0,6.6489,0.76053,0.1124,-0.16188
-0.11206,-1.3925,-4.158,10.297,0.76144,0.093157,-0.13317
-0.13843,-0.019613,-4.3345,14.671,0.39004,-0.058948,0.046731
-0.15717,0.56879,-1.6475,12.631,-0.20586,-0.27672,0.076358
-0.20496,0.56879,-1.0199,8.5318,-0.78557,-0.46548,0.055589
-0.24219,1.216,-1.471,7.2961,-1.1185,-0.56872,-0.011912
-0.25592,1.2356,-2.8243,7.3746,-1.1219,-0.54703,-0.08827
-0.22681,1.9221,-3.0793,8.1787,-0.84147,-0.43707,-0.14203
-0.15439,1.9613,-2.1967,8.8456,0.092241,0.070555,-0.049175
-0.053833,1.7456,-1.0199,8.9437,0.20678,0.082467,-0.051618
0.04303,1.5298,-0.41188,8.8652,0.27275,0.10201,-0.1011
0.11417,1.3729,-0.62763,8.0611,0.27642,0.12798,-0.10171
0.17957,0.98067,-0.72569,8.4141,0.23091,0.14203,-0.094379
0.24112,0.5884,-1.3141,8.7083,0.17593,0.13347,-0.086132
0.28165,0.2942,-2.1967,8.8064,-0.09499,0.097738,-0.062308
0.30853,0.5884,-2.7459,9.0417,-0.031154,0.071471,-0.043677
0.32205,0.66685,-2.6282,9.5125,-0.11179,-0.040928,0.036346
0.32928,0.60801,-2.0006,9.689,-0.075747,0.0024435,0.014661
0.31451,0.80415,-2.0006,9.0613,-0.038179,0.080329,0.057116
0.27289,0.90221,-1.7848,8.5514,-0.036346,0.12126,0.081551
0.20441,0.86299,-1.4318,8.2572,-0.04612,0.11881,0.092852
0.13052,0.60801,-1.824,8.1787,-0.037874,0.10873,0.08491
0.079193,1.1376,-2.3144,9.0417,-0.018937,0.10751,0.073304
0.049347,1.3337,-2.7459,9.3752,-0.01069,0.11454,0.057727
0.032288,1.1964,-2.6674,9.3163,-0.019853,0.12187,0.026267
0.025818,1.2356,-2.589,9.1594,-0.042455,0.12553,0.025351
0.037231,1.1964,-1.9809,9.1202,-0.051313,0.12889,0.0012217
0.028137,0.92183,-1.7456,8.8652,-0.036041,0.11362,-0.0079412
0.040863,0.92183,-2.432,9.179,0.0076358,0.090103,-0.0082467
0.057007,1.0591,-2.2751,9.1202,0.057116,0.087048,-0.0076358
0.072144,1.1964,-2.0006,9.2183,0.076664,0.096822,-0.0079412
0.080109,1.1964,-2.0986,8.7083,0.04215,0.079412,0.0061087
0.08728,1.0787,-2.3144,8.4926,0.00061087,0.03543,-0.07025
0.086975,0.66685,-2.4713,8.9437,-0.035736,-0.011912,-0.094684
0.10455,0.54917,-1.9417,9.4144,-0.016799,-0.01741,0.0051924
0.11615,0.5884,-1.7848,9.2575,0.052229,0.021686,-0.024435
0.11014,0.70608,-1.6279,8.8848,0.072693,0.040928,-0.0079412
0.099121,0.35304,-1.3337,8.7868,0.032376,0.034819,0.017715
0.10794,0.39227,-1.6475,8.8064,-0.03879,0.029016,0.0015272
0.12982,0.74531,-2.0986,8.8064,-0.087659,0.04612,-0.033903
0.1713,0.56879,-2.0594,8.8064,0.0024435,0.22724,0.025045
0.22189,0.49033,-2.0398,8.8064,-0.1014,0.16585,0.024435
0.27686,0.35304,-1.9417,9.1202,-0.17532,0.089492,0.07422
0.27054,0.078453,-2.432,9.434,-0.17318,0.024129,0.046426
0.28204,0.41188,-2.5105,9.179,-0.11087,-0.0024435,0.015272
0.2709,1.1964,-2.3732,8.9437,-0.037874,-0.0067195,0.0061087
0.25488,1.5298,-1.9809,8.7083,0.017104,-0.010079,0.016188
0.21878,1.3533,-1.1964,8.2572,0.028711,-0.021075,0.022907
0.17947,1.1964,-1.2553,8.4141,0.07422,0.15272,0.012217
0.16794,1.8633,-1.7456,9.434,0.047342,0.11026,-0.064141
0.14389,2.1771,-2.2948,9.4144,0.09499,0.077274,0.2248
0.15042,1.9613,-2.4517,9.5713,0.26695,0.11057,0.2981
0.15662,1.1768,-2.2751,9.434,0.28283,0.036652,0.32742
0.15219,0.54917,-1.824,9.3555,0.15791,-0.094379,0.28497
0.11069,0.13729,-1.6671,9.0025,-0.061392,-0.25992,0.17807
-0.0018005,-0.64724,-2.2163,7.0019,-0.35461,-0.39126,0.10446
-0.13437,-2.0986,-2.9028,10.728,-0.56413,-0.43249,0.035736
-0.26294,-0.82376,-2.1967,11.297,-0.52809,-0.41539,0.039095
-0.37561,0.25497,-1.5102,8.0611,-0.40989,-0.38332,-0.077885
-0.46902,0.17652,-2.0006,7.0608,-0.25534,-0.32284,-0.10049
-0.5379,0.92183,-1.9809,7.2765,-0.065668,-0.22938,-0.14111
-0.55219,1.216,-1.4318,8.1787,0.078496,-0.099571,-0.14722
-0.52151,1.1964,-1.2553,8.7083,0.063835,0.0012217,-0.10079
-0.47806,1.1376,-1.6867,8.5514,-0.059865,0.043677,-0.007025
-0.42477,1.118,-2.3732,8.316,-0.20342,0.049175,0.039706
-0.35135,1.3533,-2.7851,9.0417,-0.2978,0.051618,0.069333
-0.28116,1.2356,-2.3732,9.179,-0.29841,0.064752,0.029322
-0.21725,0.74531,-1.824,9.5125,-0.18357,0.084299,0.018326
-0.15378,0.74531,-1.9417,9.5713,-0.01405,0.12309,0.0064141
-0.10495,0.64724,-2.432,9.5125,0.097738,0.17135,-0.0033598
-0.043518,0.98067,-2.5105,9.689,0.13042,0.219,0.0073304
-0.0024414,0.90221,-2.1378,9.8066,0.093768,0.25168,0.023824
0.029633,0.90221,-1.8829,8.8064,-0.28314,-0.13164,-0.12187
0.054565,0.98067,-2.2751,8.1003,-0.099571,-0.013439,-0.10843
0.070068,1.0395,-2.7262,8.1787,0.10446,0.12401,-0.17471
0.080627,1.2945,-2.2163,8.9437,0.22297,0.23152,-0.15119
0.072815,1.0395,-2.0986,9.2575,0.19884,0.28619,-0.11332
0.065674,0.92183,-1.8437,8.8064,0.098044,0.28924,-0.11087
0.027008,0.70608,-1.3533,8.1787,0.0048869,0.27489,-0.12401
-0.0049133,0.23536,-2.6086,8.3749,-0.0073304,0.25962,-0.13134
-0.033112,0.56879,-3.55,9.8066,0.11332,0.25412,0.078191
-0.070221,1.2945,-1.9809,10.454,0.061697,0.24526,0.067195
-0.10727,0.64724,-1.3533,10.591,-0.037874,0.22449,-0.09499
-0.18198,1.4318,-1.8437,8.7083,-0.14172,0.19609,-0.062919
-0.25629,1.824,-2.6674,7.4923,-0.23549,0.15272,-0.017104
-0.3056,2.1575,-3.0597,7.3746,-0.33017,0.089186,0.023518
-0.34802,1.4318,-2.5105,8.0807,0.054367,0.014966,0.06017
-0.36813,0.66685,-1.9809,8.7083,0.10782,-0.062614,0.079107
-0.39667,0.66685,-1.9809,8.4337,-0.30665,-0.13806,0.013134
-0.40182,0.11768,-2.0986,8.8652,-0.18967,-0.19792,-0.0061087
-0.3931,0.098066,-1.8829,9.2183,-0.13836,-0.20464,0.045509
-0.38397,-0.27459,-1.726,9.179,-0.16188,-0.17257,0.027794
-0.35596,-0.84337,-1.8829,9.5125,-0.2193,-0.16157,0.038179
-0.32941,-0.96105,-2.432,9.3752,-0.25656,-0.18021,0.058643
-0.28894,-0.76492,-2.7459,8.8064,-0.40806,-0.1967,0.04948
-0.24496,0.039227,-2.4713,8.8064,-0.40195,-0.19792,0.029627
-0.21725,0.2942,-2.1182,9.179,0.06353,-0.16524,-0.050091
-0.18985,0.92183,-2.0594,8.8064,0.11729,-0.093157,-0.071166
-0.15479,1.6475,-2.0398,8.2768,0.1069,-0.009163,-0.017104
-0.13855,2.2163,-1.7456,8.4141,0.097433,0.054367,-0.010385
-0.13425,2.2948,-2.1967,8.7868,0.11515,0.094684,0.002138
-0.14056,2.4517,-2.7262,9.1202,0.12706,0.13531,-0.002138
-0.15005,1.9221,-3.0597,9.3359,-0.20372,0.18479,-0.020769
-0.16077,1.7456,-3.0008,9.1986,-0.069944,0.22907,-0.036041
-0.17108,1.6867,-2.6086,9.179,-0.34758,-0.3091,-0.041844
-0.17847,0.80415,-2.432,9.3359,-0.38546,-0.25045,0.03543
-0.2114,0.60801,-1.5102,9.179,-0.46578,-0.1799,-0.23732
-0.25372,0.17652,-1.3141,8.8652,-0.58368,-0.13225,-0.18967
-0.32217,0.25497,-1.726,8.7279,-0.58338,-0.08491,-0.12278
-0.39825,-0.86299,-2.687,7.3158,-0.39706,-0.021991,-0.084299
-0.45502,-2.5693,-3.6677,10.415,-0.079412,0.095295,-0.078496
-0.48801,-1.118,-2.7655,10.297,0.32712,0.27642,-0.07422
-0.50763,0.078453,-1.9417,7.6884,0.65607,0.45051,0.036957
-0.50806,0.41188,-1.0395,5.884,0.45235,0.51618,-0.0027489
-0.47882,-0.039227,-1.6475,5.1779,0.10965,0.47892,0.10812
-0.44431,0.35304,-2.687,8.218,-0.17593,0.37507,0.14019
-0.38153,0.2942,-2.1967,11.866,-0.29688,0.25443,0.16096
-0.32263,0.8826,-1.1768,12.474,-0.39798,0.1518,0.19456
-0.25458,1.6083,-1.2553,11.572,-0.59956,-0.00061087,0.19364
-0.1803,2.2948,-1.2553,10.219,-0.78466,-0.15638,0.12034
-0.14307,2.6086,-0.86299,8.7083,-0.79474,-0.23763,0.35125
-0.13263,2.0006,-0.68647,8.2572,-0.64446,-0.21655,0.34819
-0.15152,1.3729,-2.0986,7.2765,-0.44379,-0.18723,-0.014966
-0.16824,1.824,-2.7655,6.747,-0.20311,-0.12034,-0.018326
-0.19382,0.49033,-2.0398,7.7865,0.030849,0.042761,-0.068417
-0.21609,0.098066,-1.3533,9.179,0.20403,0.22297,-0.059559
-0.24271,-1.0787,-1.6279,9.2575,0.23579,0.40592,0.054672
-0.2446,-2.1575,-2.6086,10.042,-0.023518,0.48411,0.21044
-0.22205,-0.35304,-2.6674,9.5125,0.4725,0.33384,-0.23885
-0.19595,0.35304,-2.4124,7.4531,0.87934,0.39187,-0.25504
-0.1618,1.3729,-2.8243,8.2572,1.0629,0.39859,-0.2248
-0.11383,2.0006,-1.7848,7.8061,0.90347,0.27917,-0.10873
-0.081299,0.76492,-0.098066,7.963,0.51801,0.055589,-0.041844
-0.054871,-1.9221,-0.90221,11.886,0.16341,-0.12431,-0.070555
-0.021332,-0.98067,-3.0989,12.101,-0.094379,-0.23305,-0.10476
0.028839,2.0006,-2.8243,7.8649,-0.26878,-0.30421,-0.17715
0.070313,1.3533,-2.7655,8.1787,0.016188,0.0012217,-0.018021
0.12598,0.27459,-3.5108,8.0022,-0.11759,0.044593,0.025656
