0.042267,5.4133,5.2564,6.747,-0.014661,0.011606,-0.0048869
0.038391,5.4329,5.374,7.0804,-0.0045815,0.0088575,-0.012217
0.053589,5.7663,5.2564,7.1589,0.016799,0.007025,-0.011301
0.045837,5.4329,5.0798,7.0608,0.033598,0.0048869,-0.016493
0.028107,5.5113,4.9426,6.845,0.037874,0.0042761,-0.015272
0.021667,5.531,5.021,6.9823,0.027489,0.0061087,-0.0082467
0.016907,5.5113,5.0798,6.845,0.012523,0.0082467,0.00030543
-0.0057678,5.374,5.0995,6.9235,0.002138,0.0076358,0.0027489
-0.011932,5.5898,5.0995,6.6489,-0.0018326,0.009163,-0.014355
-0.0080566,5.8252,5.2171,6.747,0,0.012217,-0.019853
-0.01062,5.7663,5.2564,6.8647,0.0048869,0.015272,-0.013134
-0.032349,5.629,4.9229,6.9235,0.0076358,0.018631,-0.013134
-0.031616,5.7663,4.9033,6.8254,0.01069,0.019242,-0.014966
-0.031189,5.6682,5.0602,6.8254,0.01405,0.019548,-0.016493
-0.031403,5.7271,5.1583,6.9235,0.010385,0.023213,-0.014661
-0.037994,5.7663,5.0995,6.9823,-0.00061087,0.026267,-0.012523
-0.046082,5.7467,5.1583,7.0019,0.021991,0.0048869,0.022297
-0.051392,5.629,5.0798,6.7666,0.023824,0.0048869,0.011606
-0.049072,5.6879,4.8445,6.6685,0.0039706,0.0094684,0.018021
-0.033508,5.4329,5.0995,6.8647,-0.021686,0.014355,0.020464
-0.031555,5.4133,5.2564,7.0216,-0.041539,0.015882,0.017715
-0.030029,5.5113,5.2171,7.0804,-0.048258,0.017104,0.020769
-0.038055,5.6879,4.9426,6.8254,-0.047037,0.018937,0.029016
-0.022034,5.6094,5.0995,6.7666,-0.043677,0.019853,0.030849
-0.018433,5.7663,5.0995,6.8254,-0.033292,0.018631,0.0064141
0.00067139,5.7271,5.1583,6.9235,-0.015272,0.017715,-0.0015272
-0.00030518,5.5113,5.1583,7.0019,0.0018326,0.018326,0.011606
-0.00015259,5.7467,5.1583,6.9823,0.013439,0.013439,0.015577
0.0055847,5.5898,5.0995,6.9235,0.019242,0.010079,0.01741
-0.0025024,5.7467,5.2368,6.8254,0.013134,0.011301,0.01741
0.0069885,5.4329,5.374,6.9823,-0.0018326,0.012217,0.015272
0.014374,5.6094,5.276,6.747,-0.011606,0.013439,0.010996
0.016937,5.4329,5.374,6.9235,-0.066279,0.022297,-0.007025
0.025146,5.5898,5.1779,6.9235,-0.060476,0.020769,-0.0009163
0.04303,5.7663,5.021,6.747,-0.058643,0.022602,-0.0042761
0.042389,5.5898,5.0798,6.8254,-0.057421,0.023824,-0.0039706
0.058075,5.7859,5.0995,6.8254,-0.047953,0.018021,-0.01069
0.065063,5.7271,5.2368,7.0019,-0.03207,0.013134,-0.014661
0.068451,5.7663,5.1583,6.9627,-0.016493,0.011606,-0.017104
0.062622,5.5898,5.0014,6.747,-0.0085521,0.010996,-0.013439
0.04245,5.5113,5.0798,6.8254,-0.021991,0.0073304,0.0033598
0.051697,5.374,5.2368,6.9627,-0.0281,0.0054978,0.00030543
0.047974,5.5113,5.3348,6.8254,-0.021991,0.0030543,0.011301
0.04364,5.4133,5.276,6.9235,-0.0076358,0.0039706,0.0064141
0.038086,5.6879,5.2171,6.8647,0.0076358,0.0045815,0.0076358
0.023132,5.4721,5.1583,6.6881,0.012828,0.00061087,0.013439
0.023102,5.7663,5.2171,6.7862,0.010385,-0.0018326,0.015272
0.027954,5.6879,5.2564,6.6881,0.0067195,-0.0030543,0.010079
0.024323,5.5898,5.2564,6.9235,0.0027489,0.0015272,-0.0085521
0.019897,5.6879,5.2564,6.9235,-0.0039706,0.011301,-0.0045815
0.016083,5.5113,5.2368,6.9235,-0.012217,0.014661,0.0018326
-0.0112,5.5898,5.0995,6.9039,-0.023213,0.01405,0.0042761
0.008728,5.5113,5.1779,6.845,-0.025045,0.012217,-0.0015272
0.012817,5.5113,5.276,6.8647,-0.014355,0.010079,-0.0094684
0.0032349,5.5702,5.2564,6.7077,-0.0015272,0.01069,-0.013134
-0.0064697,5.5702,5.3937,6.9823,0.0085521,0.012828,-0.012828
-0.0076904,5.4525,5.276,6.8254,0.012217,0.012828,-0.0030543
-0.015594,5.5898,5.2564,6.7666,0.0042761,0.019548,-0.010385
-0.015808,5.4721,5.2171,6.8254,-0.00030543,0.022297,-0.0027489
-0.024445,5.7271,5.0798,6.6881,-0.01069,0.024129,-0.0009163
-0.034363,5.5898,5.1191,6.6685,-0.029322,0.026267,-0.0012217
-0.03833,5.5898,5.2171,6.8254,-0.042761,0.026878,0.0018326
-0.039337,5.7663,5.2564,6.9823,-0.054978,0.026878,0.0094684
-0.051483,5.7467,5.0798,6.9235,-0.06689,0.027184,0.0088575
-0.064819,5.7663,5.0602,6.8647,-0.053145,0.019548,-0.013439
-0.054718,5.7663,5.021,6.6881,-0.065057,0.027184,-0.011606
-0.044586,5.7467,5.2171,6.8647,-0.076664,0.029627,0.0045815
-0.03772,5.5898,5.1583,6.8254,-0.078496,0.027794,0.0061087
-0.022461,5.7271,5.0798,6.9235,-0.072693,0.024435,0.00061087
-0.031403,5.6094,5.0995,6.8254,-0.062308,0.018937,-0.00061087
-0.026154,5.6879,5.2564,6.747,-0.043677,0.011912,-0.002138
-0.033264,5.5113,5.3937,6.9235,-0.023518,0.0058032,-0.0094684
-0.036621,5.7859,5.276,6.9039,-0.0030543,0.0009163,-0.0094684
-0.028931,5.531,5.276,6.8254,-0.018021,-0.0036652,0.0039706
-0.023102,5.4525,5.3152,6.8254,-0.030849,0,-0.0073304
-0.017426,5.7467,5.2171,6.845,-0.033903,0.0015272,-0.0039706
-0.024872,5.5113,5.1583,7.0019,-0.026878,-0.0039706,-0.002138
-0.016327,5.5113,5.0798,6.8254,-0.0079412,-0.0058032,-0.0067195
-0.019562,5.5898,5.0798,6.8058,-0.0058032,-0.012217,-0.0079412
-0.011444,5.7859,5.021,6.8254,0.0030543,-0.023213,-0.01405
-0.02774,5.629,5.1583,6.747,-0.026573,-0.020464,0.015272
-0.026764,5.7271,5.2564,6.9235,-0.041539,-0.011912,0.014355
-0.022186,5.6682,5.0995,6.747,-0.045815,-0.0015272,0.0042761
-0.022339,5.6682,5.1583,6.8647,-0.037568,0.0024435,0.0085521
-0.025055,5.6879,5.2368,6.9235,-0.022297,0.0048869,0.011301
-0.037048,5.5898,5.2171,6.9627,-0.010079,0.007025,0.01069
-0.037537,5.5113,5.1583,6.9627,-0.00030543,0.0076358,0.0094684
-0.054901,5.5113,5.0995,6.7077,-0.0094684,0.0058032,0.014661
-0.057343,5.6094,5.2564,6.8647,-0.022907,0.0048869,-0.0015272
-0.059784,5.5898,5.1583,6.8254,-0.03207,0.012217,-0.0018326
-0.067596,5.7271,5.1191,6.747,-0.03207,0.018021,0.016188
-0.071503,5.6682,5.2171,6.8058,-0.025045,0.01741,0.018021
-0.064972,5.7663,5.1779,6.8058,-0.015272,0.014966,0.0097738
-0.057892,5.9232,5.1583,6.8647,-0.010079,0.013439,0.0018326
-0.060974,5.6094,5.0995,6.8058,-0.0061087,0.010385,0.0033598
-0.066956,5.7663,5.0798,6.8254,-0.013439,0.0058032,0.002138
-0.058441,5.7271,5.021,6.9627,-0.013744,0.019242,0.0079412
-0.038635,5.9232,5.0995,7.0019,-0.0094684,0.021075,0.0064141
-0.018524,5.6879,5.0995,6.9235,-0.012828,0.020769,-0.0061087
-0.018433,5.7467,5.021,6.7077,-0.021991,0.018937,0.00061087
-0.0069885,5.7467,5.1191,6.7666,-0.029627,0.014355,0.0039706
-0.0044556,5.7859,5.3152,7.0019,-0.03146,0.010079,-0.0015272
0.010162,5.5702,5.3937,6.9823,-0.029016,0.013134,-0.0030543
0.010742,5.6879,5.1583,6.747,-0.027489,0.018937,0.0061087
-0.0014343,5.4525,5.0995,6.7666,-0.026878,0.020159,0.012828
0.0065918,5.7467,5.2368,6.8058,-0.01741,0.014355,0.0085521
0.018799,5.5898,5.2564,7.0019,-0.007025,0.010079,0.0064141
0.037109,5.6094,5.276,6.8647,0.0009163,0.007025,0.010385
0.027039,5.5702,5.2171,6.9235,0.0085521,0.0036652,0.013439
0.034973,5.7859,5.0602,6.6881,0.0097738,0.0024435,0.016188
0.032135,5.7271,5.1191,6.845,-0.0027489,0.0058032,0.016188
0.049622,5.6094,5.2171,6.8254,-0.027794,0.012523,0.016799
0.043732,5.6094,5.2564,6.8254,-0.054672,0.02474,0.013134
0.053101,5.7859,5.0798,6.7666,-0.067195,0.032376,0.0076358
0.057251,5.7663,5.0995,6.8254,-0.059865,0.028711,0.0058032
0.063171,5.531,5.1191,6.8058,-0.040012,0.024129,0.0051924
0.056458,5.6682,5.2368,6.845,-0.015577,0.018021,0.0051924
0.060638,5.8252,5.276,6.7666,0.0094684,0.011301,0.0030543
0.051117,5.9036,5.1779,6.8254,0.020159,0.0048869,0.0048869
0.053741,5.8252,5.2368,6.9039,0.0061087,0.0054978,0.011301
0.054291,5.7271,5.0014,6.8058,-0.019242,0.011301,0.0067195
0.056915,5.629,5.021,6.8254,-0.035125,0.01069,0.0039706
0.057709,5.7663,5.0602,6.8058,-0.037874,0.011912,0.0012217
0.062775,5.9232,5.1191,6.8254,-0.025656,0.010385,-0.00061087
0.066895,5.8448,5.0995,6.8254,-0.0054978,0.0085521,0.00030543
0.07312,5.8252,5.0995,6.747,0.01069,0.0082467,0.002138
0.076294,5.629,5.0995,6.6685,0.011301,0.0082467,0.0051924
0.079376,5.7663,5.1191,6.8254,0,0.009163,0.0085521
0.093811,5.6094,5.0995,6.845,-0.026267,-0.0027489,0.057421
0.10791,5.7271,5.0995,6.8254,-0.051313,-0.0027489,0.083383
0.11899,5.7663,5.1191,6.8254,-0.091019,0.0030543,0.020159
0.11511,5.8252,5.3348,6.9235,-0.11759,0.009163,0.026267
0.1239,5.5898,5.4329,6.8647,-0.12126,0.015882,0.035736
0.133,5.7271,5.3348,6.747,-0.11851,0.016188,0.050396
0.14001,5.7271,5.1583,6.6685,-0.033292,0.011912,0.055589
0.12637,5.5702,5.1779,6.9039,-0.022297,0.0012217,0.047647
0.12018,5.884,5.2564,7.0019,-0.12614,-0.017104,0.1631
0.10873,5.629,5.374,7.0019,-0.14264,-0.027489,0.17654
0.090851,5.7663,5.2368,6.8254,-0.14783,-0.033903,0.099876
0.055206,5.6879,5.021,6.845,-0.13867,-0.044288,0.10812
0.017731,5.7467,5.0995,6.8254,-0.11942,-0.053756,0.12034
-0.011902,5.5898,5.1583,6.8254,-0.10171,-0.058032,0.13195
-0.074341,5.7663,5.1583,6.8647,-0.1124,-0.058643,0.14142
-0.12601,5.3152,5.3348,7.0019,-0.10996,-0.058948,0.15119
-0.18228,5.276,5.1583,6.8058,-0.13744,-0.058948,0.26053
-0.23459,5.2956,5.1583,6.8254,-0.15547,-0.055589,0.27397
-0.28354,5.374,5.3152,6.6489,-0.18234,-0.054367,0.18815
-0.34988,5.3544,5.3937,6.8254,-0.2135,-0.052229,0.19456
-0.40018,5.3544,5.3937,6.8647,-0.24068,-0.04612,0.20372
-0.42847,5.3152,5.4721,7.0608,-0.25717,-0.04612,0.21991
-0.45218,5.4329,5.4721,7.0608,-0.099876,-0.054978,0.23885
-0.48367,5.4525,5.3348,7.0019,-0.11851,-0.055589,0.25351
-0.50992,5.5702,5.2171,6.8254,-0.023213,0.036652,0.011301
-0.51447,5.5898,5.1583,6.6881,-0.0030543,0.032376,0.014661
-0.52219,5.9036,5.1583,6.9235,0.0067195,0.034208,0.0045815
-0.52872,5.9232,5.1583,7.0608,-0.010079,0.039401,-0.0033598
-0.54309,5.7663,5.531,7.1392,-0.036957,0.040623,-0.0039706
-0.54401,5.5113,5.6486,6.9235,-0.054367,0.042761,-0.0067195
-0.53448,5.8448,5.3348,6.8254,-0.059254,0.031765,-0.0067195
-0.5282,6.0017,5.2564,6.747,-0.050091,0.010996,0.002138
-0.52686,5.9036,5.2564,6.747,0.41356,0.23152,0.24099
-0.49438,5.6094,5.276,6.6489,0.40378,0.24251,0.23854
-0.45911,5.4133,5.1583,6.5312,0.37996,0.24862,0.30574
-0.43655,5.8252,4.8445,6.492,0.34667,0.2532,0.27703
-0.40649,6.0801,4.6484,6.3939,0.31368,0.26053,0.25626
-0.38675,6.139,4.5307,6.8647,0.29505,0.27184,0.2419
-0.3728,6.0997,4.4522,7.0608,0.29016,0.29077,0.23518
-0.36353,5.884,4.2953,7.0019,0.29199,0.31704,0.23732
-0.3508,5.6879,4.2169,7.1785,0.29352,0.34544,0.14661
-0.3584,5.7663,4.0796,7.3746,0.2978,0.37415,0.10354
-0.37448,5.7663,4.0011,7.4531,0.30971,0.39951,0.23152
-0.36951,5.9428,3.5892,7.2177,0.32254,0.41722,0.22785
-0.37946,5.9036,3.5892,7.1785,0.31948,0.43188,0.22877
-0.37961,6.139,3.7658,7.1785,0.30268,0.45479,0.22816
-0.37561,6.0801,3.7658,7.3158,0.29169,0.48045,0.21564
-0.37097,6.0605,3.6677,7.3746,0.29871,0.49969,0.18692
-0.3472,6.1193,3.4323,7.1785,0.11148,0.1518,0.75045
-0.35538,6.139,3.197,7.0019,0.17776,0.15516,0.70769
-0.31866,6.3547,3.0793,7.0019,0.22358,0.16005,0.88392
-0.31171,6.2566,3.1774,6.9627,0.24068,0.17287,0.88545
-0.30603,6.5312,3.4323,7.1392,0.23793,0.18784,0.88056
-0.302,6.4724,3.5892,7.0216,0.22144,0.197,0.86346
-0.30014,6.237,3.6677,6.8647,0.19609,0.20342,0.83933
-0.30374,6.2174,3.5108,6.8058,0.17226,0.20647,0.79718
-0.31183,6.3743,3.3735,7.0019,0.15333,0.20464,0.37507
-0.3183,6.9823,3.0793,7.0608,0.1463,0.20556,0.33903
-0.35733,6.845,3.0401,7.1196,0.16341,0.21228,0.65821
-0.40277,6.7077,3.0401,7.3354,0.21075,0.21502,0.60353
-0.42065,6.7862,2.8243,7.3746,0.27306,0.21319,0.54795
-0.45355,6.5116,2.7262,7.5903,0.33475,0.21319,0.49999
-0.49274,6.5508,2.8243,7.963,0.38149,0.21594,0.45601
-0.54172,6.5116,3.0793,8.1787,0.40714,0.22205,0.41447
-0.56207,6.5508,3.1774,8.1003,-0.047037,0.73457,-0.11148
-0.58038,6.5508,3.2166,8.218,-0.073609,0.73854,-0.10843
-0.59149,6.4724,3.5108,8.4729,-0.087048,0.72937,-0.098655
-0.62033,6.139,3.805,8.8064,-0.094379,0.71746,-0.10721
-0.65604,5.8252,3.6088,9.0417,-0.10263,0.70952,-0.11576
-0.64981,5.4133,3.5108,8.9437,-0.12095,0.70158,-0.12095
-0.68155,5.1191,3.8442,8.9437,-0.012523,0.69211,-0.12034
-0.68759,4.8837,4.2169,9.0221,-0.018937,0.67806,-0.11637
-0.67706,4.8053,4.3345,9.3359,-0.1799,0.66309,-0.055589
-0.66193,4.6287,4.1188,9.179,-0.16677,0.64599,-0.040623
-0.6611,4.4718,3.8442,8.8652,-0.20708,0.63316,-0.10568
-0.64612,4.0207,3.8442,8.7279,-0.23793,0.62308,-0.10201
-0.60892,4.0207,4.1384,8.7475,-0.25443,0.61148,-0.092546
-0.57748,3.8638,4.7072,8.8064,-0.25687,0.60018,-0.083994
-0.53476,3.7069,4.7856,8.8064,-0.24251,0.58918,-0.077274
-0.4924,3.4716,4.6484,8.7083,-0.21319,0.57635,-0.067806
-0.41864,3.2558,4.4522,8.5514,-0.14264,0.77,-0.21197
-0.36337,3.3931,4.3345,8.4337,-0.17929,0.7645,-0.20006
-0.30984,3.4912,4.6287,8.4141,-0.17532,0.74342,-0.26145
-0.24432,3.7069,4.4914,8.4926,-0.13989,0.72021,-0.26206
-0.17651,3.5696,4.3149,8.6887,-0.098044,0.70402,-0.25809
-0.1326,3.0793,4.0011,8.7083,-0.056505,0.69119,-0.25259
-0.088013,2.9028,3.4912,8.7083,-0.022907,0.68325,-0.24679
-0.058044,2.7655,3.5304,8.9437,-0.023213,0.68845,-0.23335
-0.030396,2.5497,3.8442,9.3555,-0.11881,0.70738,-0.13011
-0.023254,2.2948,3.805,9.3555,-0.13958,0.73151,-0.10385
-0.0093689,2.4517,3.805,9.3555,-0.15088,0.75411,-0.197
0.0091248,2.0594,4.0796,9.5321,-0.13378,0.76572,-0.19242
0.025299,1.7064,4.3345,9.787,-0.08827,0.76297,-0.18692
0.028656,1.9613,4.4522,9.6497,-0.041233,0.74953,-0.18448
0.036316,1.9221,4.2953,9.4928,-0.054978,0.73395,-0.17685
0.057343,2.0594,4.2365,9.5125,-0.091935,0.72907,-0.15791
0.071838,1.9809,4.2757,9.5713,0.13378,-0.48075,-0.52595
0.096619,1.6867,4.2953,9.8066,0.16829,-0.45173,-0.49419
0.11508,1.8437,4.3149,9.5125,0.1744,-0.42364,-0.61911
0.12027,1.8437,4.2953,9.4928,0.1573,-0.40164,-0.60231
0.13284,2.0594,4.158,9.4732,0.14111,-0.38485,-0.59193
0.14362,2.1575,4.1188,9.5713,0.14539,-0.37507,-0.57849
0.15213,1.8437,4.0011,9.6694,0.16463,-0.37415,-0.5623
0.15414,1.9221,3.903,9.7478,0.18601,-0.37171,-0.54398
0.14691,1.4318,3.9619,9.787,-0.15211,-0.13683,-0.30604
0.16061,1.5887,3.7658,9.5321,-0.1408,-0.14997,-0.3317
0.168,1.8633,3.7461,9.5125,-0.13225,-0.15424,-0.26817
0.1676,1.9221,3.805,9.4732,-0.13561,-0.14905,-0.26084
0.14209,1.824,3.7658,9.4144,-0.15272,-0.13806,-0.25534
0.17749,1.4906,3.5892,9.0221,-0.18387,-0.13073,-0.25687
0.18814,1.824,3.2362,8.9044,-0.22022,-0.12859,-0.27031
0.19156,1.8044,3.4519,9.1006,-0.25015,-0.13531,-0.2865
0.20282,1.8044,3.2166,9.0025,-0.26695,-0.15821,-0.57452
0.21863,1.5495,3.0401,8.9437,-0.26878,-0.19426,-0.59376
0.22409,1.0395,2.8243,9.0417,-0.25901,-0.23579,-0.3656
0.23108,1.1964,2.5105,8.7083,-0.23121,-0.27825,-0.40959
0.24173,1.1964,2.4517,8.4141,-0.18845,-0.31796,-0.45815
0.27374,1.5495,2.589,8.4141,-0.14294,-0.34453,-0.50152
0.29562,1.824,2.6086,8.6887,-0.10873,-0.35369,-0.5284
0.29147,1.6083,2.6086,8.6887,-0.088881,-0.34331,-0.55192
0.30539,1.3337,2.5497,8.4141,-0.085216,-0.32406,-0.64813
0.33209,1.6671,2.4124,8.0807,-0.083383,-0.31246,-0.63866
0.35858,1.9809,2.2948,8.0022,-0.074526,-0.32437,-0.61514
0.37732,2.2163,2.4124,7.963,-0.054978,-0.36224,-0.6353
0.40741,1.6867,2.6086,8.0611,-0.030849,-0.41386,-0.6521
0.43124,1.6867,2.589,7.963,-0.0045815,-0.46273,-0.66248
0.44482,1.6475,2.6086,8.1787,0.033292,-0.49205,-0.65973
0.46335,1.6083,3.0597,8.2572,0.082467,-0.49724,-0.65057
0.4809,1.2356,3.3735,8.0807,-0.12614,0.11148,0.19761
0.51819,1.3729,3.0597,8.0807,-0.15608,0.15485,0.17807
0.54926,1.3533,3.0401,8.2572,-0.19181,0.18754,0.30116
0.56467,1.1768,3.4912,8.6299,-0.21808,0.20159,0.30024
0.58051,0.98067,3.8442,8.5318,-0.22022,0.19273,0.27947
0.60938,0.76492,4.1776,8.2572,-0.19028,0.17318,0.2532
0.62921,1.0787,4.158,8.2376,-0.13836,0.15547,0.23396
0.65741,1.3729,3.9815,8.2376,-0.087354,0.14539,0.2138
0.66553,1.3729,3.8442,8.2376,-0.048869,0.14905,0.092241
0.65332,1.1964,4.1776,8.2768,-0.014966,0.1689,0.093462
0.63748,1.0395,4.3149,8.2572,0.016799,0.20556,0.14936
0.60696,1.2356,4.2365,8.4337,0.030543,0.25931,0.13134
0.60068,1.0199,4.3934,8.9044,0.014661,0.32498,0.12828
0.58081,0.98067,4.4326,8.8652,-0.015272,0.3879,0.1237
0.53342,1.0591,4.2953,8.5514,-0.040012,0.43707,0.11148
0.49152,1.5298,4.158,8.1787,-0.067501,0.47128,0.098044
0.46338,2.0202,4.158,7.8649,-0.19303,0.4893,0.067501
0.43814,2.6282,4.2365,7.9434,-0.20739,0.48808,0.065057
0.39453,2.8635,4.4914,8.2572,-0.18173,0.47647,0.098044
0.35715,3.1185,4.3934,8.7279,-0.12706,0.46212,0.093768
0.30545,3.0008,4.7856,9.0417,-0.05681,0.44929,0.082772
0.23117,2.6282,5.0602,9.3359,0.016493,0.43616,0.074526
0.16599,2.6086,5.021,9.3359,-0.10568,0.41356,0.072082
0.096558,2.6478,4.6287,9.5713,-0.15333,0.38118,0.070555
0.031586,2.8635,4.4522,9.5713,0.15577,0.33811,0.046426
-0.05365,2.6086,4.4326,9.4732,0.17837,0.28619,0.046731
-0.11423,2.687,4.3934,9.2575,0.18937,0.22969,0.059865
-0.15271,2.5497,4.4522,9.0417,0.19212,0.16921,0.060476
-0.1662,2.6086,4.2953,8.8652,0.19212,0.10812,0.062614
-0.17816,2.3732,4.2757,8.8064,0.18998,0.053451,0.058338
-0.1619,2.4517,4.2169,8.6299,0.076664,0.0051924,0.051618
-0.14056,2.2359,4.3345,8.7279,0.12187,-0.036652,0.045815
-0.12488,2.432,4.4522,8.7868,-0.0097738,-0.17165,-0.06689
-0.077881,1.824,4.4326,9.1202,-0.0061087,-0.17593,-0.066584
-0.040833,2.1771,4.4522,9.0221,0.012523,-0.1854,-0.061392
-0.023407,1.9613,4.2953,8.9633,0.039401,-0.19517,-0.056505
-0.023956,1.9221,4.2953,9.0025,0.06689,-0.20067,-0.05681
-0.004303,2.1771,4.2365,8.8652,0.09163,-0.19975,-0.059865
-0.0026245,2.2948,4.3149,8.8652,0.10629,-0.19364,-0.065057
-0.024597,2.432,4.6091,8.9044,0.1011,-0.18479,-0.069333
-0.022064,2.1182,4.7464,8.7868,0.070555,-0.17685,-0.068722
-0.035645,2.2751,4.6876,8.8456,0.03543,-0.1744,-0.085216
-0.038269,2.0594,4.9033,8.8064,0.0097738,-0.17287,-0.069028
-0.035248,2.2359,5.0798,8.6495,0.0018326,-0.16616,-0.06689
-0.033539,2.2359,5.0995,8.6299,0.010079,-0.15608,-0.063835
-0.036926,2.5301,5.0014,8.6887,0.021075,-0.14508,-0.059559
-0.049896,2.3732,4.9229,8.7083,0.032987,-0.12889,-0.055589
-0.053894,2.2359,4.9426,8.8652,0.045815,-0.10385,-0.058032
-0.051697,1.9809,4.7856,8.7083,0.05681,-0.079412,-0.33475
-0.054901,2.0006,4.6091,8.7475,0.062003,-0.055894,-0.37751
-0.070374,2.1378,4.4522,8.6887,0.054672,-0.035125,-0.10721
-0.070374,2.1771,4.5895,8.7083,0.036652,-0.0073304,-0.135
-0.074127,2.0594,4.5895,8.4141,0.015272,0.029322,-0.16982
-0.061951,2.3732,4.158,8.2572,-0.0097738,0.062919,-0.20983
-0.069855,2.432,4.1188,8.2572,-0.041844,0.089492,-0.25198
-0.062927,2.5497,3.8442,8.2376,-0.077885,0.10232,-0.29291
-0.059479,2.5497,3.6873,8.218,0.047953,-0.25259,-0.092241
-0.073242,2.3732,3.6873,8.3945,0.029016,-0.25504,-0.072998
-0.083832,2.5497,3.5304,8.4926,0.0094684,-0.25381,-0.32315
-0.061462,2.3928,3.6677,8.6887,-0.0042761,-0.24312,-0.28772
-0.053284,1.9221,3.6677,8.5318,-0.0054978,-0.22235,-0.24587
-0.042542,1.7456,3.5108,8.4926,-0.002138,-0.20006,-0.20372
-0.031128,2.0006,3.3735,8.218,-0.0009163,-0.18418,-0.16096
-0.00094604,2.1575,3.1381,8.0218,-0.0051924,-0.1744,-0.12156
0.017151,2.6478,2.9616,8.2376,0.0045815,0.029322,-0.083994
0.045013,2.2948,3.5108,9.0417,0.064446,0.0097738,-0.10079
0.067047,2.1182,3.9619,9.5713,0.11332,-0.0064141,0.018021
0.078217,1.3925,4.2169,10.062,0.13928,-0.021686,0.0045815
0.058228,1.2356,4.0796,10.16,0.14478,-0.036957,-0.015882
0.040924,0.86299,3.7658,10.199,0.13042,-0.048258,-0.03543
0.030212,1.118,3.3931,9.8066,-0.095906,-0.050091,-0.052534
-0.0016479,1.3533,3.0204,9.1986,-0.051313,-0.045509,-0.06689
-0.031036,1.7456,2.9616,8.9437,0.072082,-0.036957,-0.061087
-0.071167,2.0006,3.2754,8.7279,0.069639,-0.030238,-0.036346
-0.079041,2.2948,3.7658,8.9437,0.078496,-0.020769,-0.11301
-0.072479,2.2163,4.0207,9.0613,0.093157,-0.009163,-0.11668
-0.074646,2.079,4.0011,9.2183,0.10415,0.00030543,-0.11576
-0.060303,2.0594,3.5108,9.3555,0.1014,0.0094684,-0.11209
-0.053864,1.824,3.3735,9.689,0.10415,0.016188,-0.1014
-0.060028,1.6083,3.4519,9.9636,0.083994,0.023213,-0.083689
-0.075165,1.5102,3.5108,10.062,-0.0015272,0.029932,0.078191
-0.075684,1.2945,3.4519,9.9439,-0.036957,0.035736,0.091019
-0.07962,1.216,3.197,9.7478,-0.061697,0.035125,-0.01741
-0.079834,1.5298,2.9616,9.5125,-0.07086,0.03146,-0.0054978
-0.091827,1.5298,2.8635,9.179,-0.068111,0.026267,0.0079412
-0.089264,1.4906,3.0401,9.1594,-0.054062,0.021991,0.024435
-0.061981,1.7456,3.2166,9.2575,0.079412,0.01741,0.042455
-0.062469,1.7456,3.2754,9.2575,0.040012,0.0082467,0.060781
-0.050476,1.5298,3.1381,9.2575,-0.091019,0.16921,0.038485
-0.033173,1.6671,3.1774,9.0417,-0.066279,0.16402,0.027489
-0.027985,1.6083,3.197,9.179,-0.061392,0.15363,-0.07025
-0.01297,1.6867,3.3735,9.3359,-0.069639,0.13928,-0.029322
-0.0095825,1.6475,3.5108,9.3752,-0.08491,0.12278,-0.0030543
0.0099487,1.6083,3.4912,9.3359,-0.10476,0.10201,0.020464
0.0041809,1.4514,3.3735,9.2183,-0.12187,0.079107,0.039401
0.00091553,1.6083,3.3343,9.2771,-0.12126,0.054672,0.044593
-0.00027466,1.2356,3.55,9.3752,0.076053,0.063835,0.050091
0.025513,1.1768,3.805,9.434,0.10476,0.047953,0.043371
0.034363,1.5102,3.903,9.0613,0.12187,0.043677,0.031765
0.040161,1.3533,3.7658,8.9044,0.12462,0.042761,0.04215
0.055603,1.6475,3.6481,8.7083,0.12034,0.04215,0.052534
0.07019,1.6867,3.8442,8.8064,0.10965,0.044899,0.058338
0.069275,1.6083,4.0011,9.0417,0.093157,0.045509,0.06017
0.066986,1.1768,4.3149,9.179,0.075442,0.046731,0.057421
0.07373,1.118,4.4522,9.1594,0.062919,0.047647,0.0082467
0.076508,1.0787,4.5503,9.1594,0.051313,0.044593,0.0085521
0.069794,1.1964,4.4718,9.0417,0.041844,0.038179,0.037568
0.078369,1.1376,4.4326,8.8064,0.036957,0.03207,0.03146
0.083496,1.2945,4.5503,8.8652,0.040623,0.026573,0.024435
0.074524,1.3729,4.6484,8.8456,0.057421,0.02138,0.015272
0.080353,1.4318,4.8053,8.8848,0.080023,0.019548,0.012217
0.089417,1.3533,4.8053,8.8848,0.0956,0.014966,0.011912
0.087311,1.2749,4.7856,8.9437,0.0061087,0.10996,-0.036652
0.078705,1.3925,4.7464,9.0613,0.007025,0.11301,-0.036652
0.065521,1.3729,4.8053,9.0417,0.0088575,0.12004,0.027184
0.071869,1.2356,4.9033,9.3359,0.013744,0.1237,0.0073304
0.060486,1.4318,4.8053,9.1006,0.019548,0.12767,-0.009163
0.050049,1.3925,4.7072,8.9633,0.026878,0.12889,-0.020769
0.029358,1.6867,4.6287,8.9437,0.036346,0.12828,-0.027184
0.021667,1.8044,4.6287,8.7868,0.051007,0.13103,-0.03146
0.0082092,1.824,4.6484,8.8652,0.063835,0.13775,0.0088575
-0.005188,1.5495,4.7072,8.8064,0.069028,0.14478,0.021075
0.0028687,1.6671,4.6287,9.0025,0.06353,0.14355,-0.030543
-0.0096436,1.5495,4.5307,9.0221,0.053451,0.13836,-0.025962
-0.019531,1.4514,4.4718,9.0221,0.044899,0.12981,-0.024129
-0.025391,1.2945,4.3738,8.8652,0.03879,0.11332,-0.019548
-0.021606,1.3533,4.5895,9.0221,0.040928,0.093462,-0.010385
-0.024384,1.118,4.5307,8.9437,0.054367,0.078802,-0.0030543
-0.023499,1.3533,4.5503,8.8652,-0.1127,-0.14783,-0.087354
-0.0058899,1.4318,4.6287,8.8064,-0.10873,-0.14386,-0.094073
0.0043945,1.216,4.6876,8.8652,-0.1179,-0.13714,-0.079107
0.028229,1.5298,4.5895,8.6495,-0.14233,-0.12889,-0.078802
0.048218,1.3925,4.4522,8.4926,-0.1573,-0.12462,-0.074526
0.057068,1.5298,4.4914,8.7083,-0.15302,-0.12767,-0.065057
0.06543,1.5298,4.5307,8.7083,-0.091019,-0.13897,-0.064446
0.044708,1.5102,4.5895,8.8064,-0.10537,-0.15913,-0.077274
0.04187,1.3533,4.5307,8.9437,-0.021686,-0.060781,0.019548
0.051392,1.6671,4.4522,9.0221,-0.016188,-0.065668,0.018631
0.043365,1.2945,4.4522,9.0417,-0.015272,-0.072388,0.0024435
0.022583,1.5298,4.4522,8.8456,-0.015882,-0.080023,0.0067195
0.0029297,1.4906,4.5307,8.9437,-0.020159,-0.084299,0.011301
-0.005188,1.6867,4.4914,8.8848,-0.023518,-0.087048,0.013744
-0.020142,1.6083,4.5503,8.7475,-0.027794,-0.087048,0.014355
-0.027161,1.7456,4.4522,8.7279,-0.033598,-0.085521,0.016493
-0.036865,1.5298,4.6091,8.8848,-0.076664,-0.083078,-0.033292
-0.040039,1.6867,4.3934,8.8652,-0.086437,-0.083078,-0.037874
-0.060852,1.6475,4.5307,8.9437,-0.091019,-0.079107,0.012523
-0.058289,1.6671,4.4522,8.8652,-0.082467,-0.076664,0.0051924
-0.057587,1.5298,4.4522,8.7083,-0.062919,-0.080634,-0.0012217
-0.05896,1.6867,4.6091,8.9437,-0.043677,-0.085521,-0.009163
-0.062378,1.6083,4.4914,9.0025,-0.045204,-0.090408,-0.018631
-0.07019,1.5298,4.4914,9.2575,-0.062919,-0.0956,-0.028405
-0.087097,1.5495,4.6091,9.2183,-0.048869,-0.10049,-0.083994
-0.10217,1.5495,4.7072,9.3163,-0.062308,-0.10263,-0.080329
-0.10278,1.5298,4.6287,9.3163,-0.074831,-0.10751,-0.04215
-0.12131,1.4906,4.4718,9.3752,-0.082772,-0.11423,-0.047342
-0.14774,1.2356,4.5307,9.3359,-0.080023,-0.12065,-0.057727
-0.173,1.3925,4.2953,9.1202,-0.080634,-0.12981,-0.069944
-0.18527,1.6083,4.3345,8.8848,-0.03207,-0.13867,-0.080023
-0.20508,1.8437,4.3934,8.8456,-0.037263,-0.14539,-0.08491
-0.23636,1.9221,4.158,8.6887,-0.072693,-0.0562,-0.39401
-0.2533,1.9221,3.9227,8.5318,-0.077274,-0.061392,-0.44654
-0.25989,1.9221,3.9619,8.5318,-0.074831,-0.069333,-0.25748
-0.26956,1.824,4.0011,8.6495,-0.065057,-0.076664,-0.26328
-0.28018,2.0006,4.0011,8.8652,-0.051313,-0.084299,-0.27794
-0.30225,1.824,3.903,8.9633,0.1182,-0.21594,-0.20617
-0.30701,1.8044,3.8442,8.9437,0.19487,-0.19609,-0.16188
-0.30994,1.6867,3.8638,9.1202,0.25412,-0.18082,-0.1124
-0.34366,1.4318,3.7658,9.2771,-0.037568,-0.13042,-0.79199
-0.33118,1.6083,3.6677,9.2183,-0.037874,-0.14722,-0.80298
-0.33557,1.7652,3.6677,9.2183,-0.0281,-0.1631,-0.5061
-0.35263,1.6083,3.5108,9.1986,-0.011301,-0.17501,-0.57024
-0.36267,1.5298,3.2362,9.179,-0.00030543,-0.18418,-0.63133
-0.37045,1.5298,3.0401,9.2575,-0.002138,-0.19395,-0.68417
-0.37387,1.6083,2.8635,9.1986,-0.009163,-0.20647,-0.73487
-0.39832,1.5102,2.7066,9.2575,-0.026267,-0.21564,-0.77366
-0.42609,1.6083,2.6086,9.3359,-0.054672,-0.22327,-0.66829
-0.44952,1.824,2.589,9.3163,-0.090713,-0.2306,-0.62827
-0.47083,1.7456,2.7655,9.2575,-0.12278,-0.23854,-0.80634
-0.49008,2.0006,3.1774,9.1594,-0.14111,-0.23946,-0.80146
-0.52795,2.1575,3.197,9.179,-0.14966,-0.23579,-0.78832
-0.55078,2.4909,3.2754,9.1006,-0.15058,-0.23549,-0.76205
-0.58899,2.5497,3.197,9.1594,-0.14752,-0.23182,-0.7309
-0.63748,2.6282,3.3931,9.179,-0.14233,-0.22663,-0.70127
-0.68661,2.432,3.5108,9.179,-0.13744,-0.22358,-0.37049
-0.73541,2.1771,3.6677,9.3752,-0.13989,-0.22419,-0.33537
-0.8158,2.5497,3.8442,9.3752,-0.14019,-0.22816,-0.58735
-0.87811,2.7459,3.9815,9.2575,-0.13164,-0.23732,-0.55008
-0.9408,2.4713,4.0796,8.9437,-0.11851,-0.2474,-0.51557
-0.99698,2.4517,3.9815,8.5514,-0.1069,-0.25534,-0.48075
-0.99997,2.5497,3.9619,8.3945,-0.10446,-0.25717,-0.44685
-0.99997,2.6086,4.0011,8.3945,-0.11148,-0.25443,-0.40897
-0.99997,2.2948,4.3934,8.4926,0.36591,0.62125,0.33537
-0.99997,2.6086,4.2953,8.1787,0.40134,0.65118,0.32376
-0.99997,2.6086,4.0011,7.9434,0.44624,0.68509,0.20617
-0.96423,2.589,4.158,8.1787,0.52321,0.6747,0.21075
-0.88443,2.4909,4.3345,8.3749,0.5846,0.6524,0.25901
-0.81036,2.4517,4.6287,8.5514,0.57238,0.65607,0.30421
-0.71957,2.5497,4.5503,8.5514,0.50549,0.66951,0.31979
-0.60172,2.4517,4.0796,8.0807,0.42608,0.68997,0.32834
-0.50952,2.1182,4.1776,8.5514,0.16127,0.71624,0.47006
-0.4144,2.2751,4.2953,8.8456,0.11576,0.74648,0.51954
-0.33212,2.5497,4.2953,8.2376,0.097433,0.76603,0.3146
-0.26855,2.3732,4.4914,7.6884,0.099876,0.78038,0.32223
-0.24356,2.1771,4.8053,7.9238,0.10812,0.79382,0.33262
-0.23132,2.1771,4.6287,8.3749,0.098349,0.80909,0.35491
-0.22061,2.4713,4.4718,8.1787,0.33628,0.81551,0.38912
-0.22394,1.9809,4.9033,8.0807,0.23763,0.80879,0.42699
-0.2269,1.824,5.1583,8.2572,0.043677,0.7871,0.69944
-0.2374,2.1575,5.3152,8.4926,0.084299,0.73273,0.7251
-0.26788,1.8437,5.3348,9.0025,0.14783,0.66615,0.562
-0.32617,1.824,5.3152,8.9633,0.23854,0.61025,0.58582
-0.38617,1.8044,5.5506,8.7475,0.34911,0.57238,0.6072
-0.45157,1.7456,5.7075,8.6299,0.44868,0.54642,0.63499
-0.5191,1.3533,6.0213,8.4141,0.06689,0.52198,0.66248
-0.55219,0.66685,6.0997,8.2376,0.03879,0.50855,0.68295
-0.55911,0.74531,5.7467,7.6884,0.42913,0.5058,0.57635
-0.52457,0.92183,5.374,7.3158,0.33628,0.52351,0.54367
-0.49374,0.76492,5.3348,7.3746,0.23121,0.55986,0.75289
-0.42639,0.80415,5.7075,7.8649,0.12767,0.58551,0.76205
-0.33575,0.49033,6.1782,8.4141,0.050091,0.58979,0.74464
-0.2489,-0.039227,6.3155,8.4729,0.0064141,0.57299,0.70555
-0.14514,-0.27459,6.0997,8.0807,0.50152,0.54,0.65424
-0.031677,-0.078453,5.7075,7.6884,0.49236,0.49999,0.61117
0.063568,0.098066,5.7075,8.0807,-0.14508,0.30696,0.00061087
0.1503,-0.43149,5.8644,8.5514,-0.071777,0.31551,-0.0033598
0.20215,-0.45111,5.5702,8.3357,-0.010385,0.32132,-0.0018326
0.24719,-0.35304,5.3348,8.0611,0.0061087,0.32376,0.0067195
0.26492,-0.078453,5.374,7.5903,-0.022297,0.32345,0.018631
0.28268,0.078453,5.5898,7.6492,-0.073609,0.31734,0.027794
0.29251,-0.37265,5.7859,8.0611,-0.1292,0.31246,0.026878
0.29282,-0.078453,5.7467,7.7865,-0.16921,0.31093,0.011606
0.26749,0.17652,5.2564,7.5511,-0.18876,0.3146,-0.023824
0.26526,0.33343,5.0995,7.9434,-0.19639,0.3149,-0.037263
0.25259,0.039227,5.531,8.8064,-0.19395,0.30757,-0.002138
0.19067,-0.50995,5.7859,9.179,-0.17685,0.29658,0.0030543
0.16824,-0.50995,5.5506,8.9437,-0.16493,0.281,0.0042761
0.13705,-0.64724,5.5506,8.7083,-0.1576,0.26756,-0.00061087
0.11404,-0.43149,5.3348,8.7083,-0.1463,0.25626,-0.0009163
0.077759,-0.64724,5.3348,9.2575,-0.13286,0.24771,-0.0082467
0.058594,-0.54917,5.2368,9.3163,-0.12309,0.24099,-0.11026
0.044647,-0.49033,5.2171,9.3359,-0.12828,0.23396,-0.10537
0.024109,-0.5884,5.629,9.434,-0.14478,0.23152,-0.04948
0.025085,-0.82376,5.7859,9.3163,-0.16402,0.22571,-0.064446
0.049072,-0.84337,5.6879,9.3359,-0.17746,0.21777,-0.083383
0.080353,-0.80415,5.3152,9.3163,-0.18051,0.20556,-0.097738
0.09317,-0.76492,5.2564,9.3163,-0.17532,0.18815,-0.10324
0.12772,-0.76492,5.276,9.2575,-0.1686,0.17471,-0.10934
0.16125,-0.70608,5.2368,9.1202,-0.20708,0.2645,0.01741
0.20117,-0.66685,5.276,9.0221,-0.25595,0.24251,0.0024435
0.22705,-0.82376,5.3937,9.179,-0.29444,0.23946,0.056505
0.26407,-0.45111,5.3348,9.2575,-0.3149,0.25748,0.059559
0.2771,-0.50995,5.2564,9.1594,-0.31124,0.2813,0.054978
0.28058,-0.37265,5.2564,9.0417,-0.29383,0.30055,0.044593
0.27969,-0.2942,5.374,8.9633,-0.26267,0.30604,0.038485
0.27209,-0.35304,5.3937,8.9437,-0.21289,0.3036,0.03146
0.25272,-0.27459,5.2564,9.2575,-0.039706,-0.0015272,0.029932
0.24286,-0.39227,5.2368,9.3359,-0.0562,0.0082467,0.025962
0.24628,-0.98067,5.2368,9.1202,-0.073304,0.0097738,0.055589
0.20956,-0.68647,5.2564,8.8848,-0.086437,0.013439,0.054367
0.19861,-0.68647,5.3937,9.0025,-0.093157,0.018937,0.049175
0.1723,-0.68647,5.3348,9.1594,-0.092852,0.023518,0.046731
0.15808,-0.80415,5.2171,9.0613,0.0027489,0.027184,0.045509
0.1185,-0.82376,5.1191,8.8652,-0.018631,0.031765,0.038485
0.09903,-0.86299,5.276,8.8064,-0.1011,0.039706,0.04612
0.079834,-0.68647,5.3937,8.8064,-0.10232,0.048258,0.048869
0.078491,-0.5884,5.0995,8.8456,-0.089186,0.057116,0.027184
0.079529,-0.52956,5.1583,8.9437,-0.064752,0.064446,0.030238
0.091583,-0.54917,5.021,8.8064,-0.04215,0.066584,0.0281
0.10101,-0.66685,5.1583,8.7279,-0.026573,0.064752,0.025656
0.1026,-0.90221,5.2564,8.7083,-0.091019,0.064141,0.030238
0.13007,-0.68647,5.1191,8.7083,-0.094073,0.061392,0.039401
0.15054,-0.98067,5.0602,8.7083,-0.0281,0.0073304,0.020159
0.17145,-0.82376,4.9622,8.6299,-0.020464,0.0094684,0.021991
0.17075,-0.90221,5.0602,8.7475,-0.01069,0.0015272,-0.016799
0.18097,-0.66685,5.021,8.6887,0,-0.0064141,-0.012828
0.20502,-0.70608,5.021,8.4926,0.0048869,-0.0097738,-0.010385
0.19846,-0.68647,5.021,8.5514,-0.00061087,-0.010996,-0.002138
0.19196,-0.76492,5.021,8.5318,-0.010079,-0.011912,0.011912
0.19238,-0.68647,4.9229,8.5906,-0.024129,-0.01069,0.020464
0.1676,-0.70608,5.0014,8.4141,-0.030543,-0.012523,0.057727
0.12936,-0.54917,5.021,8.7083,-0.017715,-0.013439,0.055283
0.093262,-0.43149,4.8445,8.7083,0.0024435,-0.012828,0.023518
0.05014,-0.70608,4.8053,8.8064,0.023518,-0.013134,0.029016
-0.00097656,-0.66685,4.9229,8.6887,0.039401,-0.013134,0.039401
-0.04541,-0.5884,5.0014,8.7083,0.044593,-0.010996,0.046426
-0.080383,-0.52956,5.021,8.7083,0.039095,-0.009163,0.053145
-0.1145,-0.52956,5.021,8.8064,0.022602,-0.0079412,0.057727
-0.14578,-0.54917,4.8445,8.7083,-0.042761,0.033598,-0.22083
-0.17624,-0.76492,4.8445,8.8064,-0.029322,0.034819,-0.24954
-0.17993,-0.5884,4.8445,8.4926,-0.029322,0.032987,-0.093157
-0.19217,-0.45111,4.8445,8.6299,-0.042455,0.034514,-0.10232
-0.20956,-0.45111,5.021,8.8456,-0.063225,0.037568,-0.12065
-0.22784,-0.50995,4.9229,8.7868,-0.080023,0.039095,-0.14233
-0.22903,-0.49033,4.9033,8.8064,-0.087965,0.03543,-0.16799
-0.21613,-0.50995,5.0014,8.7083,-0.080023,0.026878,-0.19456
-0.21408,-0.86299,5.0995,8.8064,-0.035125,0.019242,-0.39951
-0.21979,-0.5884,4.9426,8.7279,-0.052534,0.011301,-0.4218
-0.22861,-0.74531,4.9229,8.8652,-0.02138,0.0067195,-0.27306
-0.21716,-0.5884,4.8445,8.7475,0.013744,0.0054978,-0.28894
-0.21762,-0.60801,4.9229,8.7279,0.036957,0.00061087,-0.30574
-0.20749,-0.84337,5.0798,8.7083,0.035125,-0.0064141,-0.32834
-0.19629,-0.64724,5.0602,8.7868,0.018326,-0.013134,-0.34667
-0.1922,-0.68647,5.0602,8.8652,-0.0067195,-0.018326,-0.3708
-0.20453,-0.5884,4.8053,8.7279,-0.018631,0.030238,-0.0088575
-0.1918,-0.64724,4.8053,8.7083,-0.027794,0.039401,-0.01069
-0.18481,-0.82376,4.9033,8.8652,-0.036041,0.048258,0.0036652
-0.20828,-0.60801,4.8641,8.7279,-0.043371,0.052534,0.002138
-0.21179,-0.92183,4.8445,8.8456,-0.041233,0.057727,-0.0009163
-0.23431,-0.68647,4.6287,8.6887,-0.030238,0.057727,-0.0094684
-0.26483,-0.76492,4.5307,8.8456,-0.014966,0.054672,-0.0085521
-0.28503,-0.64724,4.5307,8.7475,-0.010385,0.051313,-0.0073304
-0.29385,-0.50995,4.4718,8.8064,-0.02138,0.050091,-0.075136
-0.32422,-0.50995,4.6091,8.8848,-0.044899,0.043066,-0.083689
-0.3447,-0.60801,4.3934,8.7868,-0.077885,0.04612,-0.014966
-0.36313,-0.66685,4.2953,8.6299,-0.10629,0.049786,-0.026267
-0.36548,-0.76492,4.2953,8.6299,-0.11973,0.050091,-0.036041
-0.37262,-0.66685,4.3345,8.8064,-0.11301,0.047037,-0.044899
-0.37674,-0.68647,4.3345,8.8652,-0.090713,0.046731,-0.056505
-0.36987,-0.68647,4.5307,8.8848,-0.064446,0.041233,-0.068111
-0.36288,-0.70608,4.5503,8.7083,0.34453,-0.077274,-0.26603
-0.3544,-0.82376,4.6287,8.7279,0.35583,-0.082467,-0.27703
-0.3215,-0.5884,4.4914,8.8064,0.3094,-0.096517,-0.24129
-0.30518,-0.82376,4.7072,8.8064,0.24648,-0.087659,-0.23793
-0.30957,-0.82376,4.6484,8.8064,0.19426,-0.10171,-0.22694
-0.28165,-0.66685,4.6287,8.8064,0.18815,-0.12675,-0.21014
-0.27975,-0.70608,4.9033,8.7475,0.21044,-0.11362,-0.21686
-0.28543,-1.118,5.0995,8.8848,0.28527,-0.11423,-0.24129
-0.28293,-0.76492,5.0995,8.8848,0.054978,-0.13744,-0.17746
-0.28922,-0.84337,4.9426,8.9437,0.029932,-0.13683,-0.16127
-0.29617,-0.82376,4.8445,8.8848,0.023213,-0.1405,-0.27397
-0.29956,-0.98067,4.7856,8.8652,0.03146,-0.1408,-0.26603
-0.29935,-0.86299,5.021,8.7083,0.047342,-0.14508,-0.25351
-0.30435,-0.86299,5.0602,8.8064,0.07086,-0.15455,-0.22541
-0.3201,-0.74531,4.9033,8.8064,0.087354,-0.15516,-0.20281
-0.32712,-0.82376,4.8445,8.7475,0.086437,-0.15699,-0.19395
-0.32883,-0.80415,4.8445,8.6299,0.10385,-0.14813,-0.12889
-0.33771,-0.80415,4.8445,8.6887,0.092852,-0.13225,-0.13408
-0.34314,-0.68647,5.021,8.5318,0.028405,-0.11668,-0.14722
-0.34341,-1.0003,5.2368,8.4926,-0.057116,-0.092852,-0.12767
-0.35077,-1.2749,5.021,8.7083,-0.09499,-0.082161,-0.088881
-0.34982,-1.0787,4.5895,8.4141,-0.064752,-0.089492,-0.061392
-0.36215,-1.0787,4.4718,8.3749,0.079718,-0.092546,-0.076358
-0.36536,-1.1572,4.7072,8.7083,0.087048,-0.083078,-0.10629
-0.39606,-0.98067,4.7856,8.8652,0.1347,-0.07025,-0.22907
-0.40598,-0.98067,4.5307,8.6887,0.1408,-0.062614,-0.24251
-0.41373,-0.82376,4.4522,8.3357,0.13317,-0.065668,-0.13103
-0.43884,-0.82376,4.6484,8.4141,0.12156,-0.076664,-0.12706
-0.42368,-0.90221,5.1779,8.6299,0.1237,-0.081856,-0.13195
-0.40759,-0.76492,5.1583,8.7279,0.15302,-0.081245,-0.15455
-0.39084,-0.82376,4.9622,8.4729,0.010385,-0.083383,-0.17868
-0.35406,-0.66685,5.0602,8.316,0.090103,-0.084605,-0.20006
-0.28561,-0.37265,5.2564,8.3945,-0.15852,-0.021686,0.0088575
-0.20657,-0.68647,5.4721,9.0417,-0.10629,-0.023518,-0.013744
-0.13843,-0.70608,5.3937,8.7083,-0.083689,-0.011606,0.069028
-0.067535,-0.76492,5.0995,8.3749,-0.089797,0.011606,0.079107
0.014618,-0.98067,5.3348,7.3158,-0.11148,0.039401,0.089492
0.0896,-1.2749,5.4329,7.6884,-0.13836,0.069944,0.085216
0.14722,-0.84337,5.1191,8.4141,-0.15882,0.10446,0.064752
0.17355,-0.50995,5.0995,9.2771,-0.16677,0.13928,0.037874
0.17389,-0.68647,4.766,9.689,-0.1686,0.16799,-0.09163
0.12845,-0.98067,4.6287,9.7478,-0.16402,0.1909,-0.092241
0.11121,-0.84337,4.5307,9.434,-0.15669,0.208,-0.028405
0.088959,-0.98067,4.6091,9.0221,-0.13561,0.22419,-0.043371
0.11478,-1.216,4.766,8.7083,-0.095906,0.23946,-0.06353
0.1611,-1.1768,5.0995,8.2572,-0.040928,0.25351,-0.083383
0.24655,-1.5887,5.276,7.9042,0.016188,0.26909,-0.093768
0.36053,-1.8437,5.4721,7.7669,0.054672,0.28802,-0.093157
0.48721,-1.8044,5.4721,7.61,0.071471,0.31032,-0.03207
0.61337,-2.2751,5.531,7.6492,0.075747,0.33353,-0.014966
0.72232,-2.1575,5.276,7.6296,0.072082,0.35858,-0.093157
0.8064,-1.9417,5.3348,7.6884,0.065057,0.38393,-0.091324
0.87448,-1.8437,5.276,7.9434,0.053451,0.4102,-0.080329
0.92453,-1.6083,5.1191,8.0611,0.036041,0.43616,-0.069028
0.96054,-1.471,5.1191,8.1199,0.018937,0.45693,-0.058643
0.97885,-1.6083,5.021,8.0807,0.009163,0.47037,-0.04612
0.98642,-1.4514,4.9229,8.218,0.0082467,0.48411,-0.0030543
0.97064,-1.4514,4.7072,8.0611,0.011912,0.50121,-0.018021
0.96078,-1.5298,4.6287,8.1003,0.019548,0.51557,0.0018326
0.94995,-1.6279,4.6287,8.1003,0.026878,0.53084,0.015272
0.9238,-1.7652,4.6287,8.1787,0.028711,0.54978,0.023518
0.88892,-1.9221,4.8053,8.1787,0.016799,0.57085,0.023518
0.87796,-2.0594,4.7072,7.9238,-0.010079,0.58857,0.018631
0.85971,-2.3144,4.5307,7.9434,-0.044593,0.59987,0.011606
0.83417,-1.9221,4.2169,7.7669,0.63255,1.2391,-0.43066
0.84271,-1.9025,4.0011,7.4531,0.55803,1.2514,-0.41569
0.85858,-1.7652,4.0011,7.4334,0.41172,1.2511,-0.29383
0.88431,-2.0202,4.158,7.6884,0.24679,1.2321,-0.28466
0.91324,-2.6478,4.9033,8.3945,0.12553,1.1958,-0.2868
0.93829,-3.1577,5.531,9.0025,0.06689,1.1628,-0.32895
0.95007,-3.4912,5.5506,8.6299,0.082772,1.1432,-0.39095
0.97284,-3.7854,4.7856,8.1591,0.16738,1.1264,-0.42455
0.98688,-4.413,3.903,7.3354,0.55314,1.1075,-0.38851
0.99988,-4.0403,3.4912,7.0019,0.6185,1.0889,-0.40378
1,-4.7268,4.4522,7.9238,0.63958,1.0864,-0.38026
1,-4.8837,5.2171,8.0807,0.64263,1.0907,-0.34331
1,-4.8837,5.3348,7.4923,0.63622,1.0898,-0.30055
1,-4.9818,4.8445,6.492,0.62644,1.0898,-0.2755
1,-4.9426,5.0995,6.5901,0.29383,1.1041,-0.29963
1,-5.374,5.7271,7.0019,0.43585,1.128,-0.35155
1,-6.0997,6.3547,7.4531,0.59804,1.1487,-0.44685
1,-6.1782,6.0605,6.845,0.50977,1.171,-0.4664
1,-6.0213,5.374,6.1978,0.3821,1.2016,-0.41172
1,-6.139,4.9033,5.7663,0.24587,1.2257,-0.41264
1,-6.0017,5.0014,5.5898,0.12339,1.2257,-0.40287
1,-6.139,5.374,5.6682,0.034208,1.197,-0.38668
1,-6.1782,5.531,5.4329,0.63377,1.1503,-0.38423
1,-6.237,5.276,5.0995,0.6353,1.0922,-0.4105
1,-6.4724,5.3937,4.9426,0.53817,1.2737,-0.41569
1,-6.5508,5.8448,5.0406,0.012523,0.99113,-0.41386
1,-7.0412,6.2174,5.3544,0.057727,0.95326,-0.34361
1,-7.4334,6.1978,5.1191,0.1124,0.92852,-0.27428
1,-7.3942,5.7075,4.413,0.15821,0.92302,-0.22052
1,-7.2569,5.4721,4.0011,0.17562,0.93676,-0.17746
1,-7.2569,5.4721,3.8442,0.16829,0.96059,-0.14875
1,-7.2961,5.629,3.8442,0.16402,0.98441,-0.14569
1,-7.0216,5.531,3.6873,-0.1069,0.12034,0.01741
1,-7.2569,5.2564,3.4716,-0.076969,0.12034,0.015577
1,-6.7862,5.2368,3.295,-0.031154,0.12095,0.014966
1,-6.9627,5.0798,2.9812,0.02474,0.12004,0.0045815
1,-7.1196,5.1583,2.9224,0.071777,0.12065,-0.0027489
1,-7.1785,5.1191,2.9028,0.095295,0.11729,-0.010385
1,-6.9823,5.0995,2.8832,0.10873,0.1124,0.00061087
1,-7.2569,4.9426,2.8439,0.12156,0.11179,0.014966
1,-7.2569,4.9622,2.7851,0.13225,0.10965,0.073915
1,-7.7473,4.9622,2.7262,0.14264,0.10049,0.098044
1,-7.355,4.9229,2.6086,0.15027,0.087965,0.018326
1,-7.2569,4.9426,2.589,0.15272,0.072693,0.02138
1,-7.1196,5.0995,2.6674,0.16066,0.053145,0.025962
1,-7.2373,5.0995,2.6282,0.16952,0.030238,0.036346
1,-7.1785,5.2564,2.6674,0.17257,0.0076358,0.046426
1,-7.0412,5.3348,2.5301,0.17226,-0.015272,0.0562
1,-6.8647,5.3937,2.589,0.17165,-0.04215,0.1179
1,-6.6685,5.2564,2.4124,0.17349,-0.075136,0.11423
1,-7.1196,5.0995,2.432,0.16952,-0.11209,0.11759
1,-6.7862,5.1583,2.3144,0.15547,-0.13958,0.13806
1,-6.6685,5.3937,2.2948,0.13683,-0.15333,0.15882
1,-6.8647,5.5506,2.3732,0.12401,-0.16127,0.16371
1,-6.9431,5.5506,2.4124,0.12339,-0.17226,0.14691
1,-6.9627,5.6486,2.432,0.13347,-0.18112,0.12859
1,-6.9431,5.5898,2.4713,0.099571,0.094073,0.053756
1,-6.7862,5.5506,2.5301,0.085216,0.089492,0.031765
1,-6.7862,5.5506,2.5693,0.064446,0.08094,0.077274
1,-6.8254,5.374,2.3536,0.037263,0.076358,0.082467
1,-7.0804,5.3937,2.5105,0.00061087,0.083689,0.098349
1,-7.3354,5.2564,2.4713,-0.045815,0.1014,0.099876
0.99341,-7.3942,5.2171,2.6086,-0.087048,0.11515,0.090713
0.92749,-7.2373,5.021,2.5301,-0.10843,0.12004,0.076664
0.85617,-6.8843,5.1191,2.589,0.062308,0.022297,-0.072998
0.80008,-6.8647,5.0995,2.589,0.026573,-0.0079412,-0.053451
0.73819,-6.8254,5.0995,2.687,-0.0039706,-0.029932,-0.20861
0.68069,-6.7274,4.9426,2.589,-0.025962,-0.047953,-0.18784
0.60803,-6.7666,4.7856,2.5693,-0.039095,-0.06689,-0.16035
0.55072,-6.9627,5.021,2.687,-0.045204,-0.08094,-0.13256
0.48907,-7.2569,4.9229,2.7655,0.13408,-0.09163,-0.11118
0.42355,-7.4923,4.7856,2.7262,0.09896,-0.095906,-0.093157
0.37357,-7.3942,4.6876,2.7655,-0.055894,-0.09499,-0.0067195
0.30624,-7.1196,4.6287,2.8439,-0.052534,-0.094379,-0.0076358
0.25244,-6.9627,4.7464,2.7459,-0.046426,-0.093157,-0.037263
0.20477,-6.6489,4.9033,2.7459,-0.044288,-0.087965,-0.0281
0.16272,-6.6293,4.9622,2.7851,-0.049786,-0.078802,-0.023518
0.10773,-7.2765,5.0602,2.9224,-0.059865,-0.066279,-0.019242
0.076141,-7.1785,4.9426,2.942,-0.047953,-0.053451,-0.011301
0.055084,-7.5707,4.9229,3.0989,-0.05284,-0.038179,-0.0054978
0.017975,-7.7473,4.7856,3.1577,0.3882,-0.14203,-0.27794
0.0060425,-7.5903,4.9033,3.1577,0.35888,-0.10843,-0.29963
-0.030457,-7.5707,4.9622,3.2166,0.3317,-0.071471,-0.19914
-0.069916,-7.3942,5.0798,3.1577,0.31215,-0.03543,-0.20586
-0.11569,-7.1196,5.0995,3.1381,0.29963,0.0015272,-0.22449
-0.12,-7.1196,5.1583,3.1577,0.29291,0.035736,-0.24404
-0.14938,-7.0804,5.1583,3.0597,0.28924,0.063225,-0.25473
-0.17258,-7.1196,5.1191,2.9812,0.2926,0.083078,-0.26328
-0.18997,-7.1196,5.0014,2.9224,0.28314,0.094684,-0.26084
-0.19949,-7.6688,5.021,2.942,0.26481,0.099266,-0.23274
-0.2092,-7.5119,5.0014,2.8439,0.24679,0.098044,-0.31673
-0.20764,-7.6492,5.021,2.9224,0.22541,0.09499,-0.31948
-0.19482,-7.355,5.021,2.8243,0.20006,0.089797,-0.31582
-0.19376,-7.4334,5.0995,2.7655,0.1689,0.079412,-0.31032
-0.19009,-7.2569,5.1583,2.8439,0.30055,0.065057,-0.29841
-0.17856,-7.2569,5.0995,2.7655,0.29719,0.04612,-0.28314
-0.16623,-7.4531,5.0995,2.942,1.6793,-2.6878,0.5962
-0.13519,-7.7473,4.9622,2.942,1.8329,-2.5724,0.60659
-0.11731,-7.355,4.6287,2.9224,1.985,-2.4462,0.748
-0.1019,-7.1785,4.7072,2.9812,2.1127,-2.3185,0.7196
-0.10812,-7.1392,4.7856,3.0989,2.179,-2.1808,0.68661
-0.091736,-7.1196,4.6876,3.4519,2.1295,-2.0275,0.64691
-0.04538,-7.1785,5.0995,3.7069,1.9056,-1.8506,0.61545
-0.021667,-7.0412,5.9624,3.9815,1.4804,-1.6576,0.59773
0.027405,-7.0412,6.5116,4.3934,-0.64568,-0.74037,0.82406
0.075775,-7.355,6.9039,5.4329,-0.83841,-0.86896,0.89247
0.11072,-7.8061,7.61,6.492,-0.98258,-1.0272,0.60201
0.13132,-7.9826,7.8257,7.3746,-1.0592,-1.1961,0.61392
0.1329,-7.8257,7.6884,7.6884,-1.0623,-1.358,0.63897
0.069824,-7.7473,7.0019,7.1589,-0.98716,-1.5235,0.66798
-0.022156,-7.8845,5.9624,6.9235,-0.80848,-1.7028,0.71441
-0.14105,-8.2964,5.2564,7.3746,-0.54886,-1.8915,0.77152
-0.28979,-7.6492,5.0602,7.6492,-0.26512,-2.0653,1.0669
-0.43164,-7.8257,4.9229,7.5511,0.010996,-2.2272,1.0391
-0.57468,-7.2569,4.8445,6.9627,0.28711,-2.3952,0.96792
-0.66092,-6.9627,4.7268,6.3351,0.55192,-2.5574,1.0314
-0.73636,-6.3351,4.8053,5.9821,0.77366,-2.6918,1.0751
-0.75504,-6.139,5.3937,5.9036,0.94684,-2.7978,1.0904
-0.72641,-6.0409,5.276,5.276,1.1014,-2.8882,1.0916
-0.65054,-5.6094,4.9033,4.7268,1.2462,-2.9651,1.0858
-0.548,-4.9033,4.4718,4.0207,1.368,-3.0088,0.82589
-0.41394,-4.7464,4.5895,3.6088,1.4377,-3.0216,0.78282
-0.24811,-4.4522,4.766,3.3735,1.4539,-3.0177,1.0244
-0.068207,-4.5307,5.3937,3.2558,1.4496,-3.0024,1.0354
0.11813,-4.2169,6.8058,3.5108,1.4334,-2.9712,1.0418
0.30331,-4.5699,7.6688,3.2362,1.4248,-2.9263,1.0076
0.46234,-4.413,7.61,2.9028,1.4615,-2.8653,0.94501
0.58627,-3.6677,6.7274,1.9417,1.5498,-2.7862,0.88026
0.6521,-3.5892,5.7467,0.8826,-0.37874,0.83322,0.33445
0.66736,-3.7265,5.5506,0.37265,-0.80543,0.75014,0.2584
0.6438,-3.903,5.7859,0.05884,-0.65699,0.68081,0.64721
0.6019,-4.3149,6.4135,0.33343,-0.54245,0.62217,0.61606
0.49796,-4.5895,7.4138,0.8826,-0.45998,0.5736,0.58399
0.36536,-4.7464,8.0611,1.2749,-0.41081,0.53512,0.54672
0.2413,-4.8445,8.2964,1.471,-0.38943,0.5003,0.48411
0.12714,-4.9229,7.7865,1.2749,-0.38271,0.46334,0.40959
0.019745,-5.0798,7.2765,1.118,-0.51313,3.6744,-0.038485
-0.10602,-5.4721,7.2765,1.4122,-0.47678,3.6588,0
-0.22156,-6.0213,7.8453,2.1378,-0.47434,3.6447,-0.18112
-0.32111,-6.8843,8.5514,2.7655,-0.50366,3.6215,-0.13561
-0.39297,-7.9238,8.9241,3.0597,-0.55161,3.5723,-0.095906
-0.43036,-8.3357,8.5122,2.9028,-0.60781,3.4996,-0.052229
-0.44098,-8.6495,8.4729,2.8439,-0.67226,3.4126,-0.029627
-0.42874,-8.9829,8.1984,3.197,-0.73884,3.3124,-0.035125
-0.40115,-9.1594,8.2572,3.6873,-1.1399,3.2043,0.29047
-0.34915,-9.4536,8.1984,3.6873,-1.3631,3.0843,0.3485
-0.26807,-9.1398,8.0611,3.6873,-1.5727,2.9615,0.065057
-0.15927,-9.0025,8.1984,4.0207,-1.7312,2.8335,0.10049
-0.082794,-9.2379,8.1003,4.4718,-1.8479,2.6747,0.11148
0.016632,-8.5318,7.7473,4.3542,-1.9346,2.4945,0.10996
0.11716,-8.3749,7.5315,4.158,-0.82833,2.3091,0.13011
0.18198,-7.9826,6.9039,3.8638,-0.95906,2.1221,0.19823
0.22849,-7.7473,6.3155,3.7854,-1.8827,1.9355,0.64446
0.24982,-7.2569,6.0213,3.4127,-1.7471,1.7535,0.65576
0.24911,-6.9235,5.6486,3.6088,-1.5797,1.5815,0.38485
0.21817,-6.4135,5.629,3.4716,-1.4029,1.4258,0.43433
0.20358,-6.2566,5.6486,3.5108,-1.2165,1.284,0.49266
0.18732,-5.8644,5.8644,3.3735,-1.0256,1.1555,0.55314
0.15808,-6.0017,6.0997,3.6873,-1.9746,1.0382,0.60995
0.14627,-5.6879,6.0997,3.8442,-1.9606,0.92974,0.63469
0.13828,-5.6094,6.1782,3.9227,2.5491,-2.204,0.15547
0.14523,-5.8448,5.9624,3.8442,2.4129,-2.2962,0.21014
0.15964,-5.4721,5.5898,3.7854,2.1108,-2.3747,0.13531
0.15204,-5.4721,5.5506,3.8442,1.7291,-2.4261,0.33995
0.13901,-5.7075,5.4917,4.0207,1.3857,-2.4511,0.3653
0.10184,-6.0017,5.531,4.1776,1.1826,-2.4997,0.29016
0.057251,-6.9235,5.3348,4.4914,1.0825,-2.6035,0.20525
0.030823,-7.5511,5.2171,4.413,0.99846,-2.7144,0.14813
0.012177,-8.5318,5.1583,4.158,0.97952,-2.8133,-0.083078
-0.0046082,-9.3752,5.6879,4.1384,1.0388,-2.9288,0.018631
0.0058289,-8.826,6.0017,4.413,1.1008,-3.0537,0.20831
0.022461,-8.2964,5.1191,4.4914,1.1484,-3.1734,0.17043
0.042847,-8.218,4.3934,4.1384,1.2117,-3.2947,0.11942
0.068939,-8.2768,5.3152,3.6873,1.3161,-3.4114,0.029016
0.11688,-9.7478,6.1782,4.4914,1.4658,-3.5146,-0.062308
0.19604,-10.728,5.8448,5.0798,1.628,-3.609,-0.10751
0.26593,-11.493,4.5895,5.3544,1.7416,-3.6853,0.43127
0.35818,-11.278,3.7461,5.0406,1.77,-3.7333,0.49236
0.43637,-10.866,3.6677,4.1972,1.7162,-3.7571,0.17868
0.52362,-10.728,3.7069,4.0992,1.6099,-3.7596,0.31215
0.58307,-10.728,3.3931,4.0403,1.5033,-3.7385,0.35186
0.62827,-9.6301,3.5108,3.6088,1.4276,-3.7092,0.32376
0.63577,-9.4732,4.4522,3.2558,1.3693,-3.6875,0.31857
0.65741,-9.5517,4.9033,3.295,1.2758,-3.6576,0.3656
0.65817,-9.2379,4.5307,3.6088,1.0834,-3.6191,0.092546
0.62631,-9.0025,4.4522,3.9423,0.78985,-3.5821,0.016188
0.59113,-8.6102,5.5506,3.8834,0.45326,-3.5351,0.50335
0.55157,-8.6691,5.9624,3.5696,0.14019,-3.4755,0.43768
0.49509,-8.3945,5.7075,3.197,-0.10232,-3.4034,0.32773
0.43793,-7.7669,5.5702,2.6282,-0.27886,-3.3234,0.21808
0.37387,-7.5511,5.1583,2.2948,-0.39584,-3.2327,0.15333
0.29697,-6.6097,4.7072,1.7456,-0.43249,-3.1148,0.13134
0.2027,-5.8448,4.6876,1.3729,-2.3268,3.5846,1.5354
0.13623,-5.2171,5.2564,1.3337,-2.0653,3.6212,1.5238
0.07077,-4.7464,5.8644,1.4906,-1.7617,3.6493,1.0259
0.014709,-4.8837,6.3351,1.8437,-1.4872,3.6783,1.1445
-0.046417,-4.7464,6.3743,1.6671,-1.255,3.7113,1.2807
-0.10083,-4.6091,6.3351,1.4906,-1.066,3.7464,1.441
-0.1684,-4.8837,6.5705,1.3533,-0.94806,3.7733,1.5321
-0.20901,-4.2757,6.9627,1.216,-0.8998,3.7776,1.5372
-0.26132,-4.4718,7.61,1.2553,-0.90713,3.7547,1.3787
-0.3096,-4.4522,8.0415,1.3337,-0.94073,3.7113,1.3686
-0.33026,-4.6091,8.2572,1.5887,-0.9725,3.6597,1.5046
-0.37164,-4.6091,8.9241,2.0398,-1.0003,3.5986,1.4985
-0.40836,-4.9033,9.179,2.4713,-1.0345,3.54,1.4896
-0.44583,-5.6094,9.1986,2.9224,-1.0837,3.481,1.4707
-0.4949,-6.0213,8.4141,3.197,-0.88117,3.4114,1.4389
-0.57651,-6.6097,7.2177,3.4127,-0.88239,3.3396,1.3995
-0.69409,-7.1392,5.9624,3.5696,-1.2953,3.2657,1.1625
-0.8114,-7.8649,5.1583,3.7854,-1.335,3.1814,1.1252
-0.9249,-8.4337,5.1583,4.158,-1.3176,3.0821,1.3485
-0.99997,-9.2379,5.3348,4.7856,-1.2376,2.9581,1.3259
-0.99997,-9.689,5.4721,5.1779,-1.1118,2.8051,1.2963
-0.99997,-10.101,5.531,5.3544,-0.95875,2.6371,1.2541
-0.99997,-10.493,5.3348,5.276,-1.1496,2.4764,1.211
-0.99997,-10.787,5.2564,5.1779,-1.226,2.3472,1.1836
-0.99997,-10.905,5.2171,5.276,-1.1588,2.3879,0.78313
-0.99997,-11.278,5.3348,5.4329,-1.4914,2.605,0.89553
-0.99155,-10.493,5.0602,5.7075,-1.8445,2.803,0.31918
-0.95364,-9.9439,4.4914,5.6486,-2.1765,2.9816,0.40012
-0.93503,-8.8456,4.2169,5.276,-2.4331,3.1411,0.47709
-0.92545,-7.61,4.3738,4.8053,-2.5809,3.281,0.56047
-0.93198,-7.8845,4.2757,4.9818,-2.6038,3.4102,0.63988
-0.95969,-8.1984,4.158,5.5702,-2.5116,3.5171,0.70341
-0.99091,-7.8845,3.903,6.5312,0.22113,-4.4776,-0.55711
-0.99997,-8.0611,3.2362,7.1785,0.35155,-4.6753,-0.53756
-0.99997,-7.2961,3.7658,7.0019,0.64782,-4.8921,-0.67653
-0.99997,-6.6293,4.6287,6.747,0.98869,-5.0705,-0.66462
-0.99997,-5.7859,5.3152,6.6685,1.2969,-5.1722,-0.60415
-0.98077,-4.9229,5.3348,6.4332,1.5443,-5.1777,-0.53451
-0.94333,-4.9818,4.9426,6.4332,1.7315,-5.1157,-0.53726
-0.90799,-5.0798,4.3738,6.2959,1.9007,-5.0375,-0.56658
-0.84937,-5.374,4.2169,6.0605,2.0803,-4.9501,0.15608
-0.79828,-5.9232,4.3934,5.884,2.2773,-4.8362,0.07422
-0.72687,-6.8058,4.7856,5.6682,2.4783,-4.6835,-0.53512
-0.64368,-7.6492,5.1583,5.4917,2.6399,-4.4902,-0.52076
-0.52051,-8.2964,5.3937,5.3937,2.6857,-4.269,-0.47067
-0.40799,-9.2967,4.9426,5.3937,2.5385,-4.0326,-0.35613
-0.29099,-10.219,4.6287,5.2956,2.179,-3.8026,-0.13928
-0.18326,-10.552,5.2564,4.7268,1.6671,-3.5485,0.087048
-0.069611,-11.062,7.4727,4.4326,1.7978,-1.3488,-0.99724
0.075562,-12.003,9.4732,6.0213,1.8925,-1.5699,-0.99021
0.25967,-12.611,8.5122,6.845,1.9453,-1.7724,-0.64782
0.41208,-13.004,6.1782,5.6094,1.9875,-1.9587,-0.64843
0.50415,-13.298,4.3149,3.6285,2.0589,-2.1414,-0.66645
0.55841,-12.141,4.4718,2.432,2.1936,-2.3341,-0.7251
0.58627,-11.16,4.9229,2.0986,2.4019,-2.5406,-0.82955
0.58786,-10.395,5.2171,1.8437,2.6716,-2.7608,-0.93615
0.59576,-10.081,5.0995,1.9809,2.9465,-2.9874,-0.51068
0.57816,-9.2967,5.2564,1.6867,3.1359,-3.2067,-0.64294
0.58121,-8.7083,7.1392,1.216,3.1221,-3.3934,-0.90775
0.60779,-8.2964,8.5318,1.4122,2.8136,-3.5503,-0.74281
0.65103,-7.5903,8.2572,1.7456,2.2068,-3.7186,-0.49083
0.71188,-7.4334,7.2177,1.6475,1.4566,-3.9172,-0.2306
0.74036,-7.2961,6.1978,1.0003,0.79077,-4.123,-0.14233
0.77045,-7.1,5.7075,0.68647,0.3598,-4.3072,-0.2865
0.76532,-7.0412,5.884,0.33343,-1.0889,3.9077,-0.16738
0.77145,-6.7274,6.5705,0.15691,-1.1726,3.8649,-0.10568
0.78687,-6.3351,6.9431,0.33343,-1.3066,3.7993,-0.5849
0.78424,-6.237,6.9627,0.49033,-1.4795,3.7357,-0.54123
0.7724,-5.531,6.8254,0.21575,-1.6701,3.675,-0.46609
0.73529,-4.8445,7.0019,0.019613,-1.8231,3.6096,-0.36041
0.67685,-4.3542,7.1392,-0.039227,-1.0165,3.5241,-0.25931
0.63666,-4.0403,7.1981,0.25497,-1.047,3.4218,-0.19823
0.5809,-3.805,7.1589,0.35304,-1.8821,3.3014,0.5452
0.50137,-4.2169,7.1196,0.47072,-1.8717,3.1521,0.58735
0.42691,-4.413,7.2177,0.64724,-1.8903,2.9841,0.0079412
0.35812,-4.8837,7.1589,1.0199,-1.9441,2.8118,0.14142
0.30453,-5.2564,7.0412,1.3337,-2.022,2.6472,0.27764
0.24677,-6.0017,6.8058,1.3337,-2.102,2.4896,0.40012
0.18268,-6.5901,6.6489,1.6475,-1.8989,2.339,0.48319
0.16379,-7.5903,6.7274,1.9809,-1.9053,2.2071,0.52595
0.13504,-8.2768,6.9627,2.2555,-0.025045,2.967,-0.52382
0.13339,-9.2967,7.2177,2.3536,0.03543,3.127,-0.5061
0.15012,-9.6301,7.2961,2.6674,0.089186,3.27,-0.49633
0.18597,-10.238,7.2569,3.0793,0.12065,3.3931,-0.51221
0.23834,-10.493,7.1392,3.1577,0.12187,3.4951,-0.51099
0.29626,-11.219,6.6489,3.2362,0.097128,3.5821,-0.51618
0.35358,-11.572,6.2763,3.7854,0.054367,3.6566,-0.5339
0.38486,-11.591,6.0997,4.158,-0.010996,3.7196,-0.53726
0.4173,-11.023,6.5901,4.3345,-0.11637,3.7773,-0.58277
0.44,-10.885,6.9431,4.3149,-0.25015,3.8243,-0.60262
0.46146,-11.591,6.492,4.413,-0.39462,3.857,-0.49663
0.45441,-12.101,5.7859,4.5699,-0.53878,3.8833,-0.50274
0.42505,-11.984,5.4721,4.6484,-0.68845,3.9077,-0.50793
0.38412,-11.65,5.6486,4.7856,-0.82497,3.9166,-0.49816
0.30908,-10.179,5.3937,4.7856,-0.9221,3.919,-0.49083
0.23022,-9.0025,5.0995,4.6484,-0.98105,3.9211,-0.52534
0.13287,-8.0218,4.4522,4.4914,2.9587,-4.3307,-0.45204
0.041443,-7.4334,3.8442,4.158,3.0137,-4.3808,-0.37721
-0.04834,-6.492,3.6677,4.0207,2.8253,-4.3912,-0.62675
-0.14487,-6.6293,3.4912,4.1972,2.4838,-4.3787,-0.44043
-0.23755,-6.8647,3.2362,4.413,2.1472,-4.3329,-0.35277
-0.31387,-7.0804,3.2166,4.7268,1.9416,-4.247,-0.3937
-0.38223,-7.3354,3.1774,5.1779,1.8958,-4.1566,-0.47189
-0.44168,-7.8061,3.2754,5.4917,1.9658,-4.0818,-0.49236
-0.48672,-7.5903,3.2754,5.6094,-0.43035,-0.76694,-0.92974
-0.52301,-7.8061,3.3735,5.9821,-0.32406,-0.92577,-0.94715
-0.5368,-7.4334,3.2362,6.1978,-0.18448,-1.0898,-0.68234
-0.58188,-7.4138,3.1774,6.1978,-0.015882,-1.2517,-0.76297
-0.62894,-7.355,3.0401,5.9232,0.15363,-1.4126,-0.81825
-0.68069,-7.8845,2.8832,6.1978,0.2978,-1.5769,-0.85307
-0.73608,-8.0218,3.0204,6.1978,0.40531,-1.7382,-0.87415
-0.79178,-8.4337,3.6088,6.0605,0.46059,-1.8949,-0.8998
-0.84033,-8.8064,4.4326,6.0409,0.46487,-2.0458,-1.1637
-0.87018,-9.6105,5.0995,5.8644,0.43035,-2.1909,-1.1148
-0.88284,-10.081,5.5702,5.8055,0.3485,-2.3277,-0.96364
-0.86154,-11.199,5.884,5.6682,0.2361,-2.4548,-0.99021
-0.85129,-11.65,5.7859,5.0406,0.1405,-2.5925,-1.0098
-0.82889,-11.748,6.1782,4.413,0.11973,-2.7532,-1.015
-0.8222,-11.886,5.8644,3.8834,0.19395,-2.9306,-1.0443
-0.78528,-12.101,5.1583,3.4716,0.31734,-3.0949,-1.1182
-0.77512,-11.886,4.7072,3.4519,0.45479,-3.2544,-0.94165
-0.7579,-11.65,5.021,3.2362,0.63225,-3.4239,-0.81398
-0.73206,-10.807,6.9039,3.6088,0.85521,-3.5913,-1.0821
-0.69919,-10.062,7.61,4.3149,1.1316,-3.7431,-1.1261
-0.64554,-9.2379,6.4724,4.4522,1.4829,-3.8897,-1.1671
-0.60767,-8.3553,5.1583,4.158,1.8958,-4.0271,-1.1588
-0.58075,-7.4138,4.6287,3.8442,2.3115,-4.1441,-1.1093
-0.55466,-6.3939,5.2171,4.0011,2.6884,-4.2467,-1.0363
-0.53635,-5.9232,6.0213,4.413,-0.43066,-0.25168,0.0009163
-0.50684,-5.3544,5.9624,4.6484,-0.49724,-0.0097738,-0.05681
-0.49066,-4.9818,5.4721,4.8641,-0.54795,0.23946,0.2135
-0.46722,-4.5307,5.2564,4.6287,-0.58979,0.50183,0.23427
-0.45871,-4.0992,5.9036,4.2365,-0.63255,0.77794,0.23854
-0.42978,-3.8246,6.0213,3.8442,-0.66829,1.0599,0.20769
-0.40125,-3.4127,5.7467,3.4716,-0.69455,1.3457,0.14966
-0.35339,-3.2166,5.6879,3.1577,-0.69272,1.6231,0.069333
-0.27084,-2.9028,6.2763,3.0597,-0.63683,1.8787,-0.57116
-0.19293,-2.7262,6.5705,2.6282,-0.53054,2.1255,-0.58307
-0.080627,-2.334,6.1782,1.9025,-0.38912,2.3683,-0.12706
0.022552,-2.079,5.7075,1.3337,-0.22052,2.6029,-0.20097
0.12491,-2.079,5.7859,1.3533,-0.041539,2.8265,-0.28741
0.2348,-2.1575,5.9036,1.1768,0.12798,3.0479,-0.38698
0.33075,-2.5301,5.9624,1.2749,0.25687,3.2733,-0.46914
0.40057,-3.0204,5.7075,1.2749,0.31704,3.4941,-0.53267
0.46408,-3.7461,5.5506,1.0591,0.0015272,3.7043,-0.87659
0.52386,-3.9815,5.3937,0.72569,-0.19334,3.8729,-0.78863
0.57367,-4.7464,5.4721,1.0199,-0.40623,4.0021,-0.60567
0.64352,-6.0409,6.0213,1.824,-0.63102,4.1444,-0.70188
0.70972,-7.9042,7.4138,2.5301,-0.83841,4.3054,-0.85582
0.75842,-9.4536,8.4729,2.6674,-1.0614,4.419,-0.99327
0.81924,-10.493,8.9829,3.0597,0.29016,4.4502,-1.0198
0.89404,-11.846,9.4732,3.5304,0.17837,4.4254,-0.95936
0.9736,-12.454,10.081,3.6088,-1.8503,4.3527,0.36072
1,-11.807,10.022,3.3735,-2.0595,4.2486,0.58918
1,-11.199,9.1006,3.0401,-2.1903,4.1148,-0.70555
1,-10.179,8.1984,2.9224,-2.2703,3.9502,-0.58124
1,-9.4732,7.7276,2.7655,-2.3097,3.7736,-0.42302
1,-9.2379,7.4727,2.7655,-2.3188,3.6007,-0.26512
1,-8.9241,7.1196,2.8439,-1.3155,3.4337,-0.086132
1,-8.9241,6.8058,2.7851,-1.5852,3.273,0.12889
1,-8.8064,6.7274,2.7459,-0.47098,0.9053,-0.41905
1,-9.2379,5.9624,2.687,-0.4047,0.82681,-0.48014
1,-8.5514,5.6486,2.9812,-0.34667,0.76022,0.052229
1,-8.4926,5.2564,3.0401,-0.29535,0.68997,-0.017104
0.99796,-8.3553,5.1583,3.1577,-0.24862,0.61514,-0.095295
0.97025,-8.2964,4.7856,3.2362,-0.20892,0.53573,-0.17868
0.92493,-7.61,5.1779,3.3931,-0.16707,0.44868,-0.26359
0.87442,-7.355,5.7075,3.6088,-0.11515,0.35522,-0.34422
0.81769,-7.1196,6.0213,3.9227,-0.047647,0.25259,-0.72724
0.74918,-7.0216,5.8644,4.0207,0.033598,0.14416,-0.75778
0.6749,-6.4724,5.4721,4.0403,0.12217,0.031765,-0.52321
0.58115,-6.0017,5.2564,4.0992,0.21777,-0.084605,-0.55864
0.45224,-5.6094,5.4329,4.3345,0.32467,-0.208,-0.59895
0.33188,-5.3937,5.1583,4.5503,0.44471,-0.34147,-0.64752
0.22714,-5.2956,5.1191,4.6484,0.56933,-0.48136,-0.68356
0.10269,-5.2564,5.1191,4.7856,0.69516,-0.62736,-0.70402
-0.017609,-5.4525,5.2564,5.0406,0.83291,-0.78038,-0.76053
-0.13171,-5.374,5.4329,5.1779,0.98258,-0.93859,-0.73579
-0.22366,-5.4721,5.5506,5.276,1.1295,-1.1026,-0.79229
-0.29999,-5.374,5.5898,5.1779,1.2737,-1.2535,-0.80268
-0.4281,-5.3937,5.5702,5.2564,1.394,-1.3958,-0.77488
-0.50601,-5.6094,5.5506,5.3544,1.4762,-1.547,-0.76694
-0.58771,-6.3351,5.6879,5.4133,1.5195,-1.7181,-0.76877
-0.64041,-6.492,5.5898,5.276,1.5278,-1.9059,-0.76786
-0.67435,-6.7862,5.8055,5.2368,2.2877,-2.1026,-0.21166
-0.69336,-7.1196,5.884,5.4917,1.5214,-2.3133,-0.061087
-0.69394,-7.7669,6.3743,5.7467,1.5305,-2.5391,-0.71868
-0.67764,-8.4337,6.8058,5.7467,1.5852,-2.7681,-0.72174
-0.6174,-9.4928,6.9039,5.7271,1.7123,-3.0006,-0.72326
-0.53958,-10.062,6.4135,5.0798,1.8964,-3.2309,-0.69822
-0.43268,-10.552,6.3743,4.3345,2.0925,-3.4447,-0.61606
-0.34274,-10.415,7.1,3.9227,2.2379,-3.6398,-0.44807
-0.22787,-10.807,7.4138,4.3345,-0.49724,-1.022,-0.55283
-0.096252,-11.317,7.5707,4.413,-0.47373,-0.68875,-0.56322
0.063873,-12.16,9.0221,4.6484,-0.49877,-0.36988,-0.24221
0.22568,-13.259,9.9832,5.3544,-0.58307,-0.055894,-0.28588
0.37994,-13.71,9.9832,5.276,-0.71227,0.26512,-0.32559
0.49619,-14.298,8.3945,4.0992,-0.86865,0.58093,-0.38057
0.53836,-14.082,6.0017,2.4517,-1.0205,0.87995,-0.44379
0.51938,-12.278,5.021,1.5102,-1.1353,1.1658,-0.50916
0.42993,-10.748,4.6287,0.64724,-1.3738,1.4529,-0.35949
0.3544,-9.179,4.5307,0.41188,-1.4786,1.7489,-0.34056
0.29648,-7.4334,4.9229,0.41188,-1.6063,2.058,-0.54
0.26978,-6.0997,6.0409,0.54917,-1.7486,2.3778,-0.49999
0.31342,-5.374,7.2569,1.0199,-1.8815,2.6973,-0.45662
0.38272,-4.668,7.2177,1.5102,-1.9847,3.0271,-0.42516
0.47137,-3.8246,6.0997,1.4122,-1.2171,3.3567,-0.40806
0.55856,-3.3735,4.9622,1.0199,-1.2889,3.675,-0.38546
0.60837,-2.9616,4.1188,0.72569,-2.1487,3.9831,-0.37813
0.64145,-2.2359,3.5304,0.56879,-2.1515,4.2794,-0.46059
0.63931,-1.7064,3.6873,0.72569,-2.1478,4.5616,-0.33292
0.60727,-1.5298,4.2169,1.1768,-2.1402,4.8271,-0.32865
0.55225,-1.2945,4.5503,1.1572,-2.0797,5.083,-0.33964
0.49863,-1.3141,4.7856,0.96105,-1.9435,5.3124,-0.37049
0.43469,-1.6083,5.021,0.68647,-2.0626,5.4999,-0.36377
0.3378,-1.9613,5.531,0.86299,-2.1163,5.6361,-0.34331
0.25085,-2.6282,5.9624,1.1768,1.8054,-3.4835,-0.10996
0.14911,-3.5108,6.2174,1.3337,1.1402,-3.208,-0.18234
0.067139,-4.5699,6.3547,1.3337,0.57544,-2.9065,0.46976
-0.021149,-5.7075,6.4724,1.6867,0.13622,-2.5992,0.29444
-0.13065,-6.9823,6.3547,1.9809,-0.17135,-2.2969,0.17623
-0.23737,-8.7475,6.6685,2.8832,-0.3656,-1.9954,0.099876
-0.34149,-10.63,6.4724,3.295,-0.47495,-1.6832,0.034819
-0.43719,-12.141,6.1782,3.3931,-0.51191,-1.3573,-0.034819
-0.51199,-13.062,6.0605,3.1577,-0.62033,0.1854,-0.51374
-0.53021,-15.279,6.1782,3.6873,-0.56902,0.12248,-0.48594
-0.50156,-15.338,6.2763,4.5111,-0.55894,0.059865,-0.25168
-0.44058,-15.122,6.6489,5.3348,-0.60353,0.00061087,-0.24068
-0.34796,-14.573,7.2177,5.8644,-0.68906,-0.068417,-0.24038
-0.23767,-13.533,7.7669,6.0605,-0.77794,-0.14936,-0.29902
-0.095795,-12.611,8.1984,5.9821,-0.83658,-0.24038,-0.40775
0.026428,-11.944,7.61,5.4525,-0.87232,-0.33414,-0.49114
0.10645,-11.748,6.4332,4.766,-0.92607,-0.42822,-0.87506
0.15417,-10.866,5.2564,4.2365,-1.0006,-0.52473,-0.94073
0.13626,-9.6301,4.0011,4.158,-1.062,-0.62705,-0.48839
0.08017,-8.6887,3.3343,4.1776,-1.0626,-0.74067,-0.56597
-0.021271,-7.7473,2.8243,4.2365,-0.96395,-0.87048,-0.66951
-0.11963,-7.2961,2.8832,4.2365,-0.78069,-1.025,-0.7477
-0.21484,-6.9627,3.0401,4.158,-0.55405,-1.1967,-0.79382
-0.2699,-6.5508,3.55,4.3542,-0.29719,-1.3741,-0.82986
-0.31149,-6.6097,4.0207,4.7856,-1.2034,1.0391,0.92057
-0.32291,-6.1782,4.158,4.766,-0.84696,0.96669,0.76725
-0.30734,-6.0997,4.1384,4.7072,-0.52198,0.905,1.3124
-0.29129,-6.4528,3.7658,4.4914,-0.25717,0.84819,1.3115
-0.27716,-6.4724,3.3735,4.3542,-0.050091,0.79474,1.2981
-0.26657,-6.1978,3.6677,4.4522,0.10079,0.74342,1.2654
-0.26666,-6.4724,4.2169,4.668,0.16524,0.69547,1.1994
-0.26797,-6.9627,4.2953,5.0798,0.13958,0.65515,1.0754
-0.29498,-6.8058,4.4522,4.9426,0.048258,0.62064,-0.15302
-0.31781,-7.0216,4.6287,4.766,-0.087354,0.58643,-0.22877
-0.33746,-7.5707,4.158,5.276,-0.24923,0.54184,0.61789
-0.34106,-8.2376,3.5108,5.3937,-0.41814,0.49327,0.47556
-0.3696,-8.8456,3.0401,5.276,-0.57208,0.44257,0.34239
-0.401,-9.2967,2.7066,5.276,-0.67562,0.37629,0.21808
-0.44379,-9.4732,2.5105,5.0406,-0.70738,0.30482,0.097128
-0.47525,-9.8459,2.8635,4.9818,-0.68173,0.24251,-0.033903
-0.49646,-10.493,3.2362,5.3544,-1.5592,-0.37843,-0.82039
-0.49792,-11.219,3.1381,5.9232,-1.2901,-0.11393,-0.81917
-0.47198,-11.533,3.0204,5.4525,-0.91447,0.15913,-0.52534
-0.44116,-12.199,3.3539,4.6484,-0.478,0.42638,-0.69028
-0.38986,-12.454,3.9815,4.0207,-0.034514,0.67562,-0.78069
-0.32278,-12.611,4.7856,3.8442,0.38759,0.91905,-0.80909
-0.2363,-11.984,6.0017,3.7069,-1.6924,1.164,-0.82986
-0.11389,-11.807,7.0019,3.7265,-1.6955,1.3974,-0.83566
0.015472,-11.317,7.2765,3.8638,1.0443,-4.2843,0.024435
0.16602,-11.219,7.7473,3.8638,0.76022,-4.2202,-0.055894
0.32413,-10.866,7.4334,3.295,0.51557,-4.127,0.15211
0.46176,-9.9439,7.1392,2.8439,0.34025,-4.0262,0.15211
0.58926,-9.6301,7.0412,2.0986,0.22816,-3.9092,0.19273
0.68689,-9.4732,6.845,1.8044,0.18662,-3.7559,0.18295
0.75363,-9.3359,6.6489,1.726,0.25381,-3.5959,0.16188
0.82001,-9.081,6.5901,1.6671,0.38485,-3.4502,0.12523
0.85733,-8.218,6.9627,1.5102,0.55894,-3.3066,0.078802
0.88623,-7.1785,7.5315,0.8826,0.7535,-3.1683,0.09896
0.91638,-6.3155,7.9238,0.52956,0.91783,-3.0326,-0.093768
0.92697,-5.7271,8.5318,0.72569,1.0486,-2.9062,-0.11118
0.97156,-4.766,8.218,0.64724,1.1435,-2.7855,-0.082467
0.99463,-4.158,7.7669,0.41188,1.1393,-2.6457,-0.058032
0.98419,-3.4912,7.7473,0.15691,1.0101,-2.4792,-0.035736
0.94034,-3.1185,7.7276,0.019613,0.76389,-2.2923,0.025962
0.86499,-2.6478,6.9627,0.15691,-0.32559,-2.1121,-0.197
0.74338,-2.589,5.8448,-0.25497,-0.64294,-1.9493,-0.34178
0.55356,-3.0204,5.0602,-0.35304,-0.90378,-1.7837,0.10018
0.34396,-3.3343,4.8053,-0.19613,-1.1512,-1.5806,0.057727
0.14407,-4.0992,5.276,0.15691,-1.3738,-1.3613,0.026573
-0.056549,-4.5895,6.1586,0.68647,-1.5681,-1.1438,-0.0036652
-0.22433,-5.2171,7.0412,1.0983,0.41264,-0.90408,-0.0562
-0.35431,-6.0801,7.6688,1.3729,0.042761,-0.6408,-0.11179
-0.41376,-6.8647,8.1984,1.6475,-0.8152,0.8207,-0.29596
-0.42355,-8.1984,8.6887,1.8044,-0.70677,0.75381,-0.40897
-0.39609,-8.3553,8.6691,1.8044,-0.59132,0.686,0.31032
-0.34564,-9.4536,8.6102,1.8044,-0.47098,0.61087,0.21228
-0.28036,-10.552,8.6887,2.0398,-0.36072,0.53359,0.11087
-0.20947,-11.435,8.7868,2.1378,-0.27092,0.45968,0.0067195
-0.14276,-11.199,9.0417,2.3144,-0.21136,0.39767,-0.097738
-0.063049,-11.356,8.9241,2.687,-0.18143,0.34575,-0.19792
0.034637,-11.121,8.5318,2.7655,-2.8747,2.8552,1.2037
0.10153,-10.885,8.1003,2.8243,-2.8808,2.7147,1.2049
0.16199,-10.434,7.6296,2.6674,-2.8167,2.576,1.1011
0.20554,-10.317,6.9627,2.7655,-2.6747,2.4334,1.1457
0.21475,-9.787,6.845,3.0597,-2.4529,2.2862,1.1701
0.2002,-9.4732,6.6489,3.2362,-2.1649,2.1399,1.1912
0.19125,-9.2379,6.1782,3.0793,-1.8295,1.9969,1.1918
0.14481,-9.2771,5.5506,3.0793,-1.4618,1.8564,1.1952
0.085083,-8.6102,4.6287,3.0793,-1.0895,1.7242,0.96272
0.022797,-8.5122,4.2757,3.2362,-0.77427,1.5989,0.92821
-0.069244,-7.9826,4.5895,2.9224,-0.58093,1.4881,1.215
-0.16522,-7.4334,5.9624,2.9028,-0.48503,1.419,1.2401
-0.25336,-6.8647,6.6881,3.1577,-0.48442,1.3714,1.2361
-0.31207,-6.3351,6.9627,3.5304,-0.54825,1.3271,1.1768
-0.35327,-5.9232,6.9039,3.3931,-0.64232,1.2984,1.0993
-0.38843,-5.7075,6.5116,3.2362,-0.74342,1.2651,1.0177
-0.41327,-5.0602,6.2763,3.3735,-0.81306,1.2156,0.47098
-0.45737,-4.766,5.7075,3.4127,-0.86132,1.1643,0.39767
-0.49783,-4.7464,5.2564,3.5304,-0.91111,1.1206,0.86896
-0.54556,-4.5895,4.9622,3.6873,-0.97036,1.0754,0.7929
-0.59442,-4.5307,4.8053,3.8442,-1.014,1.0269,0.73182
-0.65256,-4.9033,4.8445,3.9815,-1.0214,0.98227,0.67928
-0.69724,-4.7464,4.9426,4.0992,-0.98533,0.93829,0.60873
-0.74628,-5.0798,4.7072,4.5503,-0.91111,0.88301,0.53726
-0.78156,-5.7859,4.2169,4.8641,2.4893,-3.7605,0.85704
-0.79581,-6.6293,3.7658,4.8249,2.5317,-3.8903,0.94318
-0.79224,-7.1196,3.4912,5.1387,2.5415,-3.9948,0.38271
-0.78415,-7.5903,3.4519,5.5702,2.5189,-4.0846,0.41905
-0.78604,-8.7475,4.4522,5.6094,2.4551,-4.1716,0.48625
-0.77423,-9.7674,5.7467,5.4329,2.3366,-4.2425,0.56994
-0.7421,-10.277,6.5901,5.9036,2.1487,-4.2776,0.65576
-0.69754,-10.219,6.8058,6.0801,1.8824,-4.2935,0.74678
-0.64658,-9.9439,6.8058,5.7467,1.5696,-4.3069,1.1561
-0.5853,-10.65,6.4135,5.0995,1.2498,-4.3017,1.0986
-0.50146,-11.493,6.0017,4.7856,0.94134,-4.2803,0.97738
-0.40482,-12.101,5.629,4.4914,0.63561,-4.2495,0.99663
-0.28656,-12.768,5.5506,4.0992,0.32101,-4.2141,1.0357
-0.15714,-12.611,5.3937,3.7854,0.0039706,-4.1707,1.1112
-0.026428,-12.278,5.6486,3.6285,-0.29932,-4.1087,1.1796
0.10287,-11.886,6.0017,3.3735,-0.56322,-4.0262,1.1872
0.23569,-11.023,6.5116,3.1577,-0.85857,-3.9343,0.71227
0.36765,-10.728,6.5312,3.0793,-0.78435,-3.8494,0.64904
0.49902,-10.415,6.2763,3.1577,-0.64141,-3.7638,1.0146
0.61356,-9.8655,6.5116,2.8439,-0.46701,-3.6725,0.93035
0.69379,-9.6497,6.5705,2.8243,-0.26603,-3.5693,0.85368
0.74893,-9.0613,6.0017,2.2948,-0.076664,-3.4462,0.78282
0.78418,-8.5906,5.2564,1.9417,-0.75106,-3.2947,0.75228
0.77771,-7.9826,4.5307,1.5691,-0.84758,-3.1212,0.74892
0.74493,-7.1392,4.2169,1.3141,0.35277,-2.9401,0.099876
0.68307,-6.2959,4.2953,1.0983,0.50244,-2.73,0.053756
0.64517,-5.8448,4.4522,1.0199,0.64202,-2.5116,0.56841
0.59369,-5.7271,4.1776,1.0199,0.7196,-2.3216,0.49633
0.56863,-5.7075,4.2953,1.118,0.72021,-2.1499,0.39951
0.54764,-4.7856,4.7856,1.3337,0.66615,-1.989,0.2926
0.54865,-4.413,5.5702,0.96105,0.078802,-1.8338,0.20433
0.56406,-3.3735,6.0997,0.31381,0.21136,-1.6735,0.14325
0.58212,-2.589,6.5901,-0.19613,-0.21533,3.2782,1.394
0.625,-2.334,6.845,-0.52956,-0.45235,3.1615,1.4169
0.66034,-2.0202,7.355,0.11768,-0.70983,3.0372,1.5864
0.66025,-2.1575,7.7669,0.84337,-0.95234,2.9041,1.5107
0.62463,-2.5693,9.081,1.9809,-1.1487,2.7617,1.4407
0.57233,-3.3343,10.67,3.3931,-1.2843,2.6215,1.3882
0.47791,-3.9423,12.239,4.7856,-1.3766,2.4945,1.3573
0.33405,-5.1583,11.846,4.8641,-1.4178,2.3873,1.3573
0.14029,-6.1782,9.6497,4.158,-1.3751,2.303,1.6573
-0.10995,-7.6492,7.1196,3.9227,-1.252,2.2266,1.6499
-0.38434,-8.6495,5.1583,3.7069,-1.0681,2.1567,1.4047
-0.68158,-9.0025,4.4718,4.2365,-0.84452,2.0913,1.4019
-0.93378,-9.5909,4.7464,5.1779,-0.6243,2.0256,1.4624
-0.99997,-9.9047,5.3348,6.0605,-0.46792,1.9664,1.5565
-0.99997,-10.022,5.6879,6.6489,-0.41447,1.9221,1.6197
-0.99997,-10.277,6.2763,6.9235,-0.46823,1.8885,1.6478
-0.99997,-10.474,6.2763,6.9627,-0.62461,1.8537,1.3033
-0.99997,-10.179,6.0605,6.5312,-0.84605,1.81,1.3424
-0.98358,-9.787,5.3937,5.4917,-1.0849,1.7654,1.5962
-0.86307,-9.6105,4.766,4.7856,-1.3021,1.7284,1.503
-0.73972,-10.003,3.7658,4.7856,-1.4768,1.6961,1.4261
-0.63272,-9.1594,3.0401,4.9622,-1.6209,1.6777,1.3635
-0.55902,-8.7083,2.9616,5.1191,-1.7611,1.6976,1.3127
-0.49704,-8.1199,3.5892,5.1387,-1.959,1.7568,1.2895
-0.44562,-7.5511,4.2953,5.0995,-1.4423,4.1404,1.7022
-0.40326,-8.0218,4.4326,5.2956,-0.86499,3.9859,1.6524
-0.34171,-7.4923,4.1776,5.2564,-0.43921,3.8515,1.376
-0.30853,-7.3354,4.2169,5.0406,-0.13897,3.7296,1.5348
-0.28192,-6.7862,5.2171,4.9229,0.055283,3.6227,1.6493
-0.28503,-6.237,6.3155,4.6484,0.1295,3.543,1.7171
-0.31079,-6.3351,6.1586,5.3544,0.098349,3.4715,1.7483
-0.3483,-6.492,4.2169,6.747,-0.024435,3.383,1.7413
-0.41647,-6.3547,1.3337,7.9434,1.9798,-4.3625,-0.053145
-0.49207,-5.374,-1.118,8.0807,1.7819,-4.3356,0.21228
-0.59891,-4.5307,-1.7848,6.5312,1.5785,-4.2907,-1.003
-0.74454,-4.6287,0.37265,5.276,1.4645,-4.2168,-0.63652
-0.89896,-6.4724,4.06,6.5116,1.4584,-4.1136,-0.40959
-0.99997,-7.8845,6.6293,8.4141,1.5137,-3.9685,-0.36316
-0.99997,-8.6887,7.0019,9.3555,2.1127,-3.8152,-0.38882
-0.99997,-9.2379,6.8058,8.4141,2.0882,-3.6976,-0.30421
-0.99997,-10.101,6.4135,6.7077,1.3686,-3.5736,0.12675
-0.99997,-9.8066,6.2763,5.8055,1.1909,-3.3915,0.050702
-0.94714,-9.1398,6.6685,5.7467,0.99266,-3.1701,0.38943
-0.83096,-9.179,6.9627,6.237,0.80695,-2.9263,0.4609
-0.6962,-9.2967,7.2177,6.1782,0.64813,-2.6646,0.39951
-0.57043,-8.8456,7.6296,5.5702,0.47067,-2.3897,0.27978
-0.44321,-8.8456,7.355,5.2368,1.5583,-2.105,0.20617
-0.31268,-9.1398,6.9627,4.8641,1.5082,-1.8066,0.16646
-0.20752,-8.7475,8.0611,4.3149,-0.77061,-1.5085,-0.4725
-0.086639,-8.9829,9.0221,4.3345,0.18631,-1.2156,-0.50305
0.030518,-8.6887,8.6102,4.2365,-0.043066,-0.93157,-0.059865
0.15686,-7.1981,9.3555,3.2558,-0.24038,-0.66157,-0.16585
0.28763,-6.7862,10.238,2.9812,-0.40561,-0.40714,-0.24709
0.42105,-5.8644,9.1006,2.6282,-0.55955,-0.18112,-0.32895
0.55411,-5.3152,7.9826,2.1182,-0.68845,0.013439,-0.40012
0.68677,-4.9229,8.1003,1.6671,-0.76511,0.18082,-0.4441
0.81372,-4.3738,8.4141,1.6867,1.4786,-3.9386,-1.2911
0.92245,-4.1188,8.2964,1.6867,1.6261,-4.0586,-1.2599
1,-3.9423,8.1591,1.6475,1.8442,-4.1612,-1.6246
1,-3.8246,8.7868,1.9809,2.032,-4.2415,-1.6979
1,-3.5892,8.9829,2.3144,2.1444,-4.2977,-1.6173
1,-3.4912,8.8848,2.3536,2.1612,-4.3203,-1.4514
1,-3.2166,8.7868,2.2948,2.1136,-4.3426,-1.3427
1,-2.7851,8.5122,1.8437,2.0928,-4.3683,-1.2898
1,-2.7262,7.7669,1.6867,-0.75411,1.6912,0.027184
0.97711,-2.3732,6.8058,1.3533,-0.5736,1.6365,-0.18112
0.87347,-2.0986,6.5116,1.6867,-0.39828,1.5766,0.70127
0.76135,-2.2359,6.6881,2.2555,-0.24648,1.5116,0.66371
0.62152,-2.6478,7.2765,2.9812,-0.1347,1.4303,0.61545
0.48523,-3.197,7.8845,3.6088,-0.057116,1.3338,0.52901
0.33795,-3.4912,8.218,4.0207,0.0097738,1.2303,0.3934
0.18713,-4.06,8.3749,4.3345,0.10568,1.1173,0.22358
0.035156,-4.6091,8.0611,4.6091,0.24771,0.9954,-0.67989
-0.13239,-4.9033,7.9042,4.7856,0.43219,0.85796,-0.71227
-0.31012,-5.7859,8.3945,5.6682,0.65576,0.71013,-0.3653
-0.47778,-6.4724,8.7083,6.237,0.90164,0.55467,-0.5058
-0.63364,-6.6293,8.8652,6.3743,1.1509,0.37324,-0.59804
-0.78302,-6.3351,8.8456,6.492,1.3809,0.17746,-0.65515
-0.92996,-6.4135,8.5318,6.5116,1.5635,-0.010079,-0.67775
-0.99997,-5.7075,8.1591,6.237,1.7046,-0.18051,-0.67684
-0.99997,-5.1975,7.8453,5.9232,-0.38393,2.6906,0.79962
-0.99997,-4.7464,8.0611,6.3351,-0.28741,2.6282,0.9221
-0.99997,-4.9818,8.3553,6.4332,-0.18326,2.551,0.18143
-0.99997,-5.1975,8.0807,6.3351,-0.07758,2.4551,0.27122
-0.99997,-5.2564,6.9431,5.8055,0.026573,2.364,0.36621
-0.99997,-5.2956,5.7075,5.4525,0.13836,2.2782,0.4609
-0.99936,-4.9818,4.9033,5.4329,0.22877,2.2019,0.562
-0.97971,-4.9818,4.8641,5.9232,0.24251,2.1545,0.67134
-0.93881,-5.4525,5.1191,6.237,0.14844,2.1105,0.80817
-0.92322,-5.4525,5.0798,6.5312,-0.052229,2.0638,0.74709
-0.90872,-5.5113,4.6287,6.845,-0.31185,2.0101,0.99968
-0.9118,-5.7859,4.3738,7.0019,-0.57269,1.9459,1.0482
-0.92944,-5.7075,4.1188,7.1392,-0.80023,1.89,1.047
-0.97449,-6.139,4.3934,7.61,-0.93768,1.8357,1.0049
-0.99997,-7.1196,4.6091,7.8649,-0.96608,1.7822,0.95631
-0.99997,-8.7475,4.9622,8.2376,-0.89644,1.737,0.8885
-0.99997,-9.7674,5.9624,8.8064,-0.4215,0.97341,-1.139
-0.99997,-10.65,7.2177,9.6694,-0.57788,1.2181,-0.96731
-0.99997,-10.101,7.1589,9.2575,-0.64171,1.4099,-0.94257
-0.94543,-8.9241,7.2177,8.4141,-0.58368,1.5791,-1.0082
-0.85345,-7.7669,6.7274,7.3746,-0.42944,1.7492,-1.1102
-0.75906,-6.9627,6.0213,6.3547,-0.21747,1.9251,-1.2184
-0.67224,-6.0409,5.1779,5.6682,0.0039706,2.1105,-1.2853
-0.57678,-5.7075,4.7464,5.5702,-0.21014,2.2804,-1.2651
-0.49506,-5.0798,4.6091,5.4329,0.38362,-2.6991,0.13042
-0.40771,-4.7856,4.9229,5.276,0.17593,-2.6518,0.16218
-0.30713,-5.0014,5.7075,5.2368,0.043982,-2.5986,0.17868
-0.21692,-5.374,6.2174,5.3544,-0.016799,-2.5372,0.14936
-0.10306,-6.139,6.2763,5.3348,-0.0033598,-2.4651,0.13347
-0.013184,-6.6293,5.7075,5.0406,0.072082,-2.3995,0.13744
0.078369,-6.4135,5.2171,4.6484,0.1741,-2.3427,0.13073
0.15482,-6.237,5.021,4.413,0.27184,-2.2834,0.12065
0.22012,-5.6094,5.2564,4.2561,0.32834,-2.219,0.18754
0.28387,-4.9426,5.6879,3.7854,0.31918,-2.1542,0.15791
0.34888,-4.0403,5.884,3.0401,0.23763,-2.0843,0.21564
0.41977,-3.7854,5.4721,2.432,0.11729,-2.0049,0.27917
0.49957,-3.9815,5.2564,2.2948,-0.0018326,-1.9053,0.33078
0.56009,-4.6091,5.1191,2.4517,-0.10721,-1.7871,0.33384
0.616,-5.374,5.9036,2.942,-0.18051,-1.6558,0.29352
0.64642,-5.7859,6.7862,3.2166,-0.20403,-1.4728,0.24374
0.65921,-6.0997,7.6296,3.1577,-0.03146,-1.2462,-0.70952
0.67545,-6.1782,8.5122,3.4127,0.059559,-1.0159,-0.85277
0.70291,-6.237,9.0221,3.6088,0.14355,-0.76816,0.11637
0.72034,-5.8448,8.5122,2.7655,0.20342,-0.47739,0.0076358
0.70651,-5.3937,7.3746,1.9809,0.21197,-0.17226,-0.11545
0.6633,-4.9229,6.4724,1.5298,0.1518,0.11668,-0.21686
0.60074,-5.0406,6.5705,2.0398,-0.1857,0.40684,-0.35339
0.53134,-5.531,7.1196,2.432,-0.12217,0.69608,-0.53603
0.49387,-6.0801,7.4727,2.6674,-0.94043,2.346,0.34086
0.47241,-6.8254,7.1392,2.7262,-0.9557,2.2257,0.28497
0.47363,-6.7862,6.5116,2.7459,-0.97616,2.0837,0.31948
0.47617,-7.1,6.0213,2.589,-1.0055,1.9297,0.35858
0.4754,-7.4531,5.884,2.6086,-1.0534,1.7785,0.38698
0.4798,-7.9826,6.0213,2.9812,-1.1255,1.6319,0.39615
0.48431,-8.5514,6.3743,3.6677,-1.2141,1.4975,0.39951
0.49307,-9.4732,6.8254,4.0992,-1.3073,1.3799,0.3824
0.49002,-9.689,6.6489,4.0992,-1.383,1.2633,0.045815
0.47882,-9.5517,6.4135,4.4914,-1.412,1.1102,-0.0024435
0.44287,-9.1202,6.0409,5.1779,-1.3772,0.88789,0.22083
0.37915,-8.3357,6.0213,6.1978,-1.2837,0.60018,0.16066
0.27722,-7.355,5.9624,6.6685,-1.1362,0.26512,0.11973
0.16266,-6.2959,6.3547,7.1589,-0.95295,-0.095295,0.10446
0.026642,-5.1583,6.5705,7.7669,-0.78099,-0.46334,0.1011
-0.12845,-5.9232,6.1782,8.3357,-0.64721,-0.82436,0.083383
-0.2905,-8.1787,5.6879,8.7083,-0.5452,-1.1774,-0.34361
-0.41312,-10.003,5.374,8.7475,-0.4386,-1.5107,-0.30574
-0.52673,-10.866,5.6486,8.8652,-0.29932,-1.8179,-0.065363
-0.59357,-10.787,6.0997,8.7083,-0.11698,-2.1078,-0.12798
-0.6163,-10.572,6.0409,7.9434,0.1182,-2.3815,-0.18662
-0.62085,-10.846,5.8055,7.1392,0.40225,-2.6344,-0.25168
-0.58685,-10.16,5.4721,6.3743,0.71105,-2.8674,-0.31582
-0.54611,-9.7674,5.3937,5.9232,1.0171,-3.0836,-0.34697
-0.48593,-9.0025,5.884,5.276,1.2782,-3.277,0.1405
-0.40024,-8.6691,6.6293,5.1191,1.4432,-3.4376,0.1463
-0.29553,-8.4337,7.0412,5.3544,1.4749,-3.5604,-0.22785
-0.18173,-7.8061,6.6489,6.1978,1.3555,-3.6365,-0.12156
-0.056671,-7.8061,6.6881,7.1589,1.1081,-3.664,-0.0051924
0.047607,-8.0415,6.5901,6.747,0.79015,-3.6508,0.091324
0.14713,-8.1199,5.884,5.4917,0.44318,-3.6014,0.14142
0.2373,-8.3749,4.9229,4.4914,0.083383,-3.5415,0.14478
0.30209,-8.8456,4.3345,3.9815,0.29658,-0.11881,-0.52779
0.37213,-8.9829,4.1188,3.4127,0.32101,0.061392,-0.50977
0.44183,-9.4536,4.5307,2.8439,0.34392,0.24435,-0.62919
0.50769,-9.5909,5.6486,2.6282,0.36102,0.42822,-0.60781
0.58673,-9.2967,6.4724,2.6086,0.37568,0.61881,-0.57574
0.6683,-8.9829,6.8254,2.7655,0.39798,0.81764,-0.55741
0.74359,-8.6887,7.0608,2.589,0.4273,1.0174,-0.54764
0.7919,-8.3553,6.7862,1.9809,0.45571,1.2138,-0.53756
0.83075,-8.1199,6.9039,1.5887,0.37171,1.4166,-0.31643
0.85001,-7.355,7.7865,1.2749,0.26664,1.6261,-0.26756
0.86172,-6.8647,8.3553,1.3141,0.14966,1.8353,-0.46029
0.84985,-6.0017,8.1591,0.96105,0.021991,2.0406,-0.39492
0.84396,-5.2956,7.7276,0.64724,-0.10018,2.2492,-0.35919
0.81799,-4.4522,7.4334,0.54917,-0.18295,2.4929,-0.36469
0.76929,-4.1188,7.3158,0.68647,0.46609,2.741,-0.40042
0.72363,-3.2754,7.2765,0.56879,0.43921,2.9563,-0.37904
0.64316,-3.2754,7.1589,0.56879,-0.24007,3.1536,-0.27519
0.57272,-3.0597,6.9039,0.52956,-0.17654,3.3567,-0.32406
0.51251,-3.4127,6.8254,0.68647,-0.11087,3.5467,-0.27489
0.4483,-3.5108,7.1,0.74531,-0.087659,3.7116,-0.29841
0.40967,-4.2169,7.2961,1.0591,-0.13683,3.8439,-0.30085
0.36145,-4.6287,7.3158,1.0983,-0.23274,3.9532,-0.25229
0.33176,-6.4528,7.2569,1.3337,-0.23121,4.0604,-0.20586
0.32816,-7.2765,6.9823,1.4906,-0.25962,4.1478,-0.21869
0.33591,-8.3749,6.9431,1.8044,-0.4102,4.1973,0.064752
0.34143,-9.2771,7.5315,2.2555,-0.45571,4.2153,0.1686
0.36148,-9.8655,8.218,2.6674,-0.52107,4.2092,-0.33842
0.38794,-10.63,8.6691,2.9812,-0.61422,4.1899,-0.32498
0.41907,-10.944,8.7083,3.295,-0.7309,4.1624,-0.28039
0.45181,-11.023,9.1398,3.5304,-0.87934,4.1221,-0.20861
0.48392,-11.199,9.2379,3.6873,-0.31398,4.0577,-0.10965
0.52493,-11.219,9.4144,4.0207,-0.36927,3.9789,-0.012217
0.5405,-11.591,9.3359,4.5699,-0.59223,0.23121,0.45418
0.55872,-11.572,9.179,4.7268,-0.45754,0.2138,0.32345
0.57623,-10.572,8.2572,4.6091,-0.36713,0.20342,1.1536
0.56573,-10.12,7.6884,4.413,-0.31796,0.1854,1.0883
0.52206,-9.8655,7.0412,4.3149,-0.28436,0.14691,0.97036
0.46286,-9.3752,6.5901,4.2953,-0.23549,0.0956,0.83994
0.38849,-9.2967,6.4135,4.4914,-0.1741,0.044593,0.70738
0.26102,-9.6301,6.3547,4.5503,-0.10446,-0.0012217,0.58124
0.16849,-10.395,6.1782,4.4914,-0.033292,-0.046731,-0.59315
0.081024,-11.199,5.7271,4.3542,0.033292,-0.094379,-0.70463
0.016144,-11.199,5.7859,4.5111,0.092546,-0.14569,0.19303
-0.037689,-9.9243,5.9624,4.9426,0.1405,-0.2022,0.064752
-0.094269,-8.4337,6.1193,5.1779,0.18631,-0.26206,-0.063835
-0.15134,-7.7473,5.7075,4.766,0.24282,-0.33017,-0.19273
-0.19525,-6.9823,4.7856,4.4522,0.31124,-0.40714,-0.32406
-0.23624,-6.1586,3.7658,4.4718,0.39401,-0.49144,-0.46242
-0.29971,-5.2368,3.2754,4.7856,0.49175,-0.58154,-1.409
-0.40402,-4.2953,3.2754,4.9426,0.58948,-0.67989,-1.5143
-0.52011,-3.805,3.3735,5.3348,0.67959,-0.78038,-0.81703
-0.62997,-3.7854,3.0204,5.3348,0.75045,-0.87934,-0.93187
-0.72104,-3.7265,2.7459,5.5506,0.80084,-0.97738,-1.0397
-0.81216,-3.9423,2.589,5.7467,0.82589,-1.0702,-1.1411
-0.86877,-3.6677,2.5693,5.7467,0.83383,-1.1637,-1.233
-0.93091,-3.9619,2.6478,5.884,0.84758,-1.2642,-1.3167
-0.98206,-4.3542,2.5693,5.9624,-1.1765,0.87598,1.1668
-0.99997,-4.9229,2.6478,6.1782,-1.2819,0.80543,1.1625
-0.99997,-5.8448,3.0204,6.0605,-1.3509,0.70341,1.511
-0.99997,-6.3351,3.5108,6.1978,-1.3448,0.59468,1.4807
-0.99997,-7.0216,4.0796,6.5901,-1.2614,0.49602,1.4502
-0.99997,-7.9826,4.4914,7.0019,-1.1222,0.40745,1.3885
-0.99997,-8.9241,5.021,6.8647,-0.94959,0.32712,1.2947
-0.99997,-9.5909,5.629,6.6685,-0.7645,0.26542,1.208
-0.99997,-10.101,6.3351,6.845,1.3671,-3.7052,-0.21228
-0.99997,-10.689,6.5901,7.1196,1.3436,-3.6768,-0.26542
-0.9462,-11.023,6.5901,7.1589,1.277,-3.6188,0.10873
-0.88065,-11.003,6.8058,6.5312,1.1671,-3.5491,0.072388
-0.79385,-10.65,7.0412,5.9821,0.99754,-3.4737,0.013134
-0.71823,-10.689,6.747,5.8252,0.76664,-3.3882,-0.059254
-0.63208,-10.65,6.1978,5.5702,1.2587,-3.3017,-0.12462
-0.54443,-10.748,6.0997,5.2956,1.3396,-3.2229,-0.17104
-0.44321,-10.395,6.9627,4.7856,-0.05284,-3.1414,-0.80817
-0.32028,-10.532,7.4531,4.5503,-0.20586,-3.0406,-0.86865
-0.16687,-10.395,7.1981,4.6484,-0.24679,-2.9306,-0.34819
-0.029541,-10.807,6.6293,4.7856,-0.19151,-2.8216,-0.45693
0.10251,-10.846,6.5901,4.7856,-0.055894,-2.7196,-0.55344
0.22174,-10.179,7.6688,4.6287,0.13653,-2.6344,-0.64049
0.32407,-9.4536,8.7868,4.8249,0.48778,-2.5702,-0.71074
0.42227,-8.9241,8.6102,4.9622,0.197,-2.511,-0.75869
0.48474,-8.5122,7.4531,4.7856,2.401,-4.2782,0.17349
0.51108,-8.3553,6.0017,4.5111,2.4169,-4.31,0.17379
0.47885,-7.8061,4.9229,4.4914,2.386,-4.3323,-0.52107
0.41055,-7.1392,4.3934,4.4522,2.2541,-4.3316,-0.4215
0.32288,-6.4724,4.4522,4.4914,1.9908,-4.3097,-0.26298
0.23361,-5.7859,4.7464,4.6484,1.6148,-4.247,-0.085827
0.13794,-5.4133,4.9426,5.1779,1.1756,-4.1572,0.029322
0.039581,-5.531,5.7075,5.3937,0.74403,-4.0629,0.1179
-0.044556,-4.9818,6.5116,5.2368,0.38973,-3.9694,0.16127
-0.12433,-4.5307,6.845,5.0406,0.15944,-3.8869,0.13744
-0.20776,-3.7265,6.2763,4.8641,0.093157,-3.8292,0.15608
-0.29324,-3.5304,5.7075,4.9229,0.197,-3.7932,0.14661
-0.40182,-3.2166,5.4917,4.4914,0.39828,-3.7648,0.12889
-0.50607,-2.8635,5.2956,4.3149,0.63774,-3.7452,0.099571
-0.60617,-2.3928,5.2368,4.158,0.8882,-3.7312,0.11087
-0.68182,-2.4713,5.4917,4.158,1.1096,-3.7186,0.15241
-0.74051,-2.1771,5.884,3.8834,-1.8167,3.1618,1.7431
-0.74258,-2.3144,7.0412,4.3149,-1.7373,3.2852,1.6725
-0.71695,-2.4124,7.9826,4.158,-1.6356,3.4022,1.4407
-0.65305,-2.4124,8.3945,3.7854,-1.5562,3.5,1.5403
-0.55508,-2.2359,8.7083,3.197,-1.5149,3.5748,1.6194
-0.4642,-2.079,9.0221,2.7851,-1.5082,3.6261,1.6854
-0.38248,-1.8633,9.179,2.5105,-1.5357,3.6609,1.7346
-0.29276,-2.1182,9.6301,2.3732,-1.5837,3.6948,1.7602
-0.20932,-2.4909,9.8655,2.1967,-1.5574,3.7327,1.4981
-0.12338,-3.197,10.12,2.0398,-1.639,3.769,1.5476
-0.0088501,-3.5304,10.552,2.2163,-1.6692,3.7929,1.6011
0.099335,-3.5892,11.042,2.2751,-1.6845,3.7965,1.5647
0.21967,-3.6285,11.082,2.1378,-1.6735,3.7895,1.5482
0.30975,-3.7854,11.121,2.0006,-1.6438,3.8066,1.5226
0.3967,-4.0992,10.983,2.0006,-1.6157,3.8313,1.4777
0.46008,-4.2169,10.748,2.1182,-1.6008,3.8191,1.46
0.52023,-4.4326,10.572,2.2751,-0.42364,1.244,0.35583
0.55286,-4.7268,10.67,2.589,-0.46609,1.3812,0.44318
0.57138,-5.1387,10.728,2.8439,-0.4948,1.5088,-0.20006
0.56625,-5.7075,10.572,3.0793,-0.51404,1.6313,-0.11148
0.56287,-6.0409,10.14,3.1577,-0.53909,1.7565,-0.021075
0.56448,-6.2959,9.6497,3.2166,-0.59376,1.8818,0.071471
0.5495,-6.492,8.7083,3.2362,-0.69516,1.9981,0.16799
0.51871,-6.7862,7.61,3.3931,-0.82711,2.1112,0.26603
0.50714,-7.2373,6.7274,3.5304,-0.97464,2.2208,1.2504
0.48004,-7.8845,6.4135,4.2365,-1.1328,2.3259,1.3369
0.46674,-7.8845,6.4724,4.668,-1.295,2.4386,0.54856
0.44812,-7.8845,6.3351,5.0798,-1.4581,2.5552,0.66706
0.42249,-7.9042,5.8644,5.4329,-1.6145,2.6713,0.78405
0.38635,-8.218,5.6879,5.7271,-1.7468,2.7901,0.91049
0.31137,-8.0415,5.5506,5.6486,-1.8286,2.9092,1.0424
0.23517,-8.0807,5.5506,5.7075,-1.8497,3.0336,1.16
0.15894,-8.2964,5.3937,5.7467,-0.9728,1.6408,-0.12309
0.10172,-8.9241,5.0798,6.0213,-0.90316,1.5779,-0.17837
0.042114,-8.3553,4.7856,5.8252,-0.85368,1.5153,0.23732
-0.012512,-8.3749,4.766,5.4917,-0.81428,1.4542,0.17685
-0.047394,-8.5514,4.6091,5.4525,-0.78252,1.3961,0.10751
-0.056213,-8.8456,4.7856,5.9036,-0.75167,1.3415,0.045815
-0.049744,-8.826,5.3348,6.1978,-1.1973,1.2883,-0.0085521
-0.0089417,-8.9044,5.7467,6.0409,-1.0721,1.2336,-0.063225
0.044281,-8.6102,5.7859,5.5702,-1.182,2.937,0.66829
0.11359,-8.8652,5.2368,5.1779,-1.1555,2.8918,0.63163
0.18488,-8.6102,4.4522,5.0798,-1.1457,2.8378,0.78282
0.23605,-8.9829,4.3934,5.1779,-1.1573,2.7846,0.76786
0.26706,-8.4533,4.3934,5.0406,-1.2004,2.7318,0.74526
0.27942,-8.5122,4.7856,4.9426,-1.2651,2.6793,0.73426
0.29181,-8.4337,4.8053,4.7856,-1.354,2.627,0.7254
0.29315,-8.4337,5.021,5.0406,-1.4603,2.5733,0.69852
0.29861,-8.218,5.1779,5.276,-1.569,2.5226,0.53237
0.29489,-8.1199,5.3937,5.2368,-1.6683,2.474,0.50671
0.27786,-7.8061,5.2564,5.1387,-1.7514,2.4221,0.5962
0.25848,-7.8845,5.0995,5.0995,-1.8042,2.3656,0.56902
0.22299,-7.5707,5.2368,5.3544,-1.8286,2.3027,0.54642
0.16638,-7.4138,5.4721,5.4917,-1.8421,2.244,0.53573
0.096924,-7.1,5.374,5.4329,-1.865,2.1857,0.54184
0.016602,-7.0412,5.0602,5.4329,-1.8998,2.1221,0.54734
-0.076538,-6.8843,5.0995,5.6486,-1.8488,2.0614,0.31398
-0.18106,-6.492,4.9033,5.8055,-1.777,2.0082,0.27978
-0.28201,-6.4528,4.9426,5.9036,-1.697,1.9581,0.47464
-0.39297,-6.1782,5.1779,5.9624,-1.5965,1.9059,0.43677
-0.49542,-5.8644,5.5506,6.1978,-1.4713,1.8503,0.39951
-0.58286,-6.2959,5.9624,6.2959,-1.3326,1.7993,0.38026
-0.67209,-6.0017,6.1586,6.3939,-1.9203,1.7535,0.36927
-0.75775,-6.0997,6.3351,6.5901,-1.9038,1.7016,0.34697
-0.83759,-5.7075,6.6489,6.8058,0.83444,-1.4343,-0.14875
-0.89169,-5.5113,6.9823,7.1196,0.92852,-1.5412,-0.16096
-0.94611,-5.1583,7.2961,7.3158,1.0366,-1.6463,-0.11148
-0.99893,-5.4721,7.61,7.5511,1.1432,-1.7455,-0.13103
-0.99997,-5.374,7.7473,7.4531,1.2275,-1.8396,-0.13836
-0.99997,-5.3152,7.7276,7.5511,1.2877,-1.9242,-0.13195
-0.99997,-5.2171,7.61,7.61,1.3311,-2,-0.1295
-0.99997,-5.374,7.2569,7.6492,1.3738,-2.0714,-0.13653
-0.99997,-5.5702,7.1196,7.7473,1.4273,-2.142,-0.12584
-0.99997,-5.531,7.4138,7.5511,1.4939,-2.2159,-0.11026
-0.99997,-5.5506,7.5315,7.5511,1.573,-2.2932,-0.17165
-0.99997,-5.9821,7.2961,7.5315,1.6573,-2.3689,-0.18082
-0.99997,-6.0801,6.9431,7.3354,1.7428,-2.4453,-0.18662
-0.96417,-6.1978,6.7274,7.3158,1.8201,-2.522,-0.19273
-0.87628,-6.0213,6.6489,7.0608,1.8726,-2.5904,-0.18662
-0.78305,-6.1782,6.5901,6.9235,1.8882,-2.645,-0.15516
-0.6937,-6.0213,6.2763,6.747,1.8625,-2.6878,-0.21777
-0.59253,-6.3351,5.9624,6.5312,1.8185,-2.7208,-0.24068
-0.49005,-6.4724,5.6879,6.2959,1.7859,-2.74,-0.09499
-0.37271,-6.3351,5.7075,5.9821,1.784,-2.7498,-0.093157
-0.25275,-6.2959,5.7859,5.7663,1.8198,-2.7519,-0.10873
-0.13101,-6.6489,5.7859,5.8055,1.8925,-2.7507,-0.13011
-0.012634,-6.7274,5.2564,5.5506,1.9871,-2.7568,-0.15913
0.1171,-7.4923,4.6287,5.2956,2.076,-2.7767,-0.1909
0.2287,-8.218,4.2953,5.276,2.1249,-2.8054,-0.67592
0.33957,-8.0611,4.5307,5.4917,2.1112,-2.8362,-0.74678
0.45483,-7.6688,4.9426,5.6682,2.0311,-2.8515,-0.25656
0.53943,-7.4923,5.1779,5.3937,1.9028,-2.8534,-0.27031
0.61841,-7.8061,4.9622,5.2564,1.7535,-2.8518,-0.31246
0.6846,-7.9042,4.6484,5.1779,1.6081,-2.8543,-0.39676
0.72736,-7.6492,4.6091,5.0798,1.4991,-2.8692,-0.50213
0.76013,-7.61,4.6091,4.9426,1.4429,-2.89,-0.59437
0.77466,-7.8649,4.6091,4.6287,1.3857,-2.8989,-1.3271
0.77466,-8.0218,4.7464,4.4914,1.4575,-2.8784,-1.2984
0.7872,-8.0415,4.9229,4.4914,1.5015,-2.8485,-1.5003
0.77524,-8.4337,4.9426,4.4718,1.5006,-2.8109,-1.5006
0.77402,-8.3357,5.0798,4.2365,1.4481,-2.7626,-1.4762
0.75903,-8.3749,5.2368,4.158,1.3442,-2.7052,-1.4313
0.73413,-8.6102,5.5506,3.9815,1.2065,-2.6341,-1.3842
0.71356,-8.9241,5.7075,3.7265,1.047,-2.5449,-1.3549
0.6976,-8.8456,5.7859,3.8246,0.53054,-2.4389,-1.1154
0.68854,-8.7475,5.7467,3.6285,0.36469,-2.3246,-1.0849
0.66287,-8.6102,5.9428,3.2362,0.21502,-2.2068,-1.2688
0.65939,-8.6691,6.0213,2.9224,0.1011,-2.091,-1.2382
0.64975,-8.9241,6.3351,2.8243,0.027794,-1.978,-1.2095
0.64212,-8.6691,6.4135,2.7851,-0.012523,-1.8671,-1.1884
0.64197,-8.5122,6.4724,2.687,0.8769,-1.7602,-1.1695
0.63751,-8.5122,6.5312,2.3536,0.70219,-1.6545,-1.1454
0.62296,-8.5514,6.9039,2.2948,-0.033292,-1.5522,-0.74128
0.61856,-8.2768,7.5707,2.2163,-0.0094684,-1.4545,-0.70433
0.60159,-7.8061,8.218,2.1182,0.016799,-1.357,-1.0461
0.60825,-7.4531,8.6102,1.9809,0.039095,-1.2544,-0.99785
0.60938,-7.1785,8.9437,2.0986,0.050091,-1.1451,-0.956
0.59808,-6.8647,9.081,2.0006,0.044288,-1.0391,-0.90408
0.59158,-6.4528,9.1006,1.9613,-0.033598,-0.9389,-0.83597
0.56967,-5.9232,9.0221,1.6475,-0.04215,-0.83414,-0.77977
0.51068,-5.7075,9.0025,1.6475,1.1729,-3.0305,-1.4649
0.45871,-5.4721,8.826,1.6671,1.186,-3.0143,-1.4862
0.39005,-5.1583,9.0025,1.6475,1.1964,-2.996,-1.3906
0.32999,-5.0798,9.179,1.6671,1.2074,-2.9813,-1.4044
0.25302,-5.3937,9.3359,1.9613,1.2223,-2.9694,-1.4111
0.19522,-4.9229,9.2967,1.9025,1.2382,-2.9541,-1.427
0.1416,-4.9818,9.3948,1.8437,1.2648,-2.9355,-1.4419
0.094696,-5.0995,9.4144,1.9025,1.3161,-2.9172,-1.4487
0.053467,-4.9229,9.4144,1.8044,-1.3079,2.7477,1.1939
0.04187,-5.4133,9.4928,1.824,-1.3408,2.7807,1.1674
0.03537,-5.2564,9.3555,2.0594,-1.3418,2.7987,1.1933
0.012726,-5.2956,9.2379,1.9809,-1.3173,2.8097,1.1927
0.0076599,-5.3152,9.0221,2.0398,-1.2798,2.813,1.193
-0.0077515,-5.6879,8.7868,1.9809,-1.2401,2.8069,1.2052
-0.011688,-5.8448,8.6102,2.2163,-1.2144,2.7959,1.2153
-0.015869,-6.1782,8.5318,2.3144,-1.208,2.7785,1.2117
-0.016602,-6.1978,8.3945,2.4713,-1.2165,2.7535,1.0993
0.00082397,-6.5508,8.2964,2.687,-1.2364,2.7287,1.0876
-0.0055542,-6.8254,8.0611,2.7851,-1.2694,2.711,1.1429
-0.01593,-7.0216,7.7276,2.8439,-1.3207,2.6921,1.1341
-0.02771,-6.9627,7.4138,2.7655,-1.3894,2.6722,1.1341
-0.020599,-7.1785,6.9627,2.8243,-1.4621,2.6502,1.1356
-0.0028992,-7.4334,6.8058,2.942,-1.5333,2.6237,1.127
0.006134,-7.6688,6.6489,2.9812,-1.5791,2.5852,1.1087
0.032501,-7.8061,6.7862,3.1577,-1.5882,2.5443,0.80817
0.060089,-8.0415,6.5901,3.2362,-1.5715,2.5073,0.73976
0.085876,-8.1199,6.3547,3.197,-1.5391,2.47,1.069
0.12372,-8.2964,6.0213,3.2362,-1.5021,2.4361,1.0427
0.15588,-8.3553,5.6879,3.4519,-1.4679,2.4111,1.0061
0.19296,-8.6102,5.7075,3.3931,-1.4392,2.394,0.96425
0.21616,-8.6495,5.7859,3.6088,-1.4175,2.3827,0.91966
0.23691,-8.5514,5.7859,3.6873,-1.4053,2.376,0.87048
0.24228,-8.6691,5.9428,3.8638,-0.99785,2.3338,1.2089
0.25748,-8.4337,5.8644,3.8638,-0.99724,2.3998,1.1964
0.26605,-8.1984,5.531,3.6873,-1.0006,2.4587,1.0892
0.26065,-8.1591,5.021,3.5304,-1.0153,2.5162,1.1277
0.26596,-8.1984,4.8445,3.6088,-1.0501,2.5711,1.1506
0.27438,-7.9826,4.7464,3.7658,-1.106,2.6221,1.1677
0.2691,-7.5903,4.766,3.8834,-1.175,2.6667,1.1909
0.2464,-7.4138,4.7856,3.9815,-1.2468,2.7086,1.2095
0.23126,-7.3942,4.7856,3.8834,-0.48778,1.2963,-0.45235
0.21503,-7.1196,4.9229,4.1776,-0.44502,1.2669,-0.3769
0.20175,-7.1,5.0798,4.2365,-0.44624,1.2214,-0.75595
0.16974,-6.8254,5.0995,4.3345,-0.49724,1.1658,-0.72052
0.12512,-6.7274,5.0798,4.413,-0.59498,1.1133,-0.68417
0.064819,-6.7862,5.021,4.5111,-0.73762,1.0611,-0.63102
-0.014923,-7.0412,5.1191,4.6484,-0.62186,1.0037,-0.57085
-0.082764,-7.1196,5.0995,4.8641,-0.55711,0.93004,-0.51526
-0.16504,-7.1785,4.9229,5.0406,-1.3586,0.83169,0.2532
-0.24121,-6.8058,4.5307,4.9818,-1.4673,0.70647,0.40042
-0.33453,-6.8647,4.6484,4.9426,-1.4578,0.56444,-0.31948
-0.41891,-7.1196,4.8445,4.8837,-1.354,0.41722,-0.2978
-0.49216,-7.0412,5.1583,5.021,-1.1955,0.25748,-0.28497
-0.56165,-7.1,5.5702,4.9426,-1.0079,0.085827,-0.21655
-0.60959,-6.9823,5.7075,4.9426,-0.9331,-0.079107,-0.079412
-0.64188,-6.9627,5.6879,4.7856,-1.1609,-0.23396,0.093462
-0.65793,-6.7274,6.2174,4.8641,-0.59223,2.0357,-0.74128
-0.66364,-6.8843,6.3155,4.7268,-0.58338,2.0061,-0.75778
-0.66318,-6.5508,6.5116,4.6091,-0.58032,1.9737,-0.63286
-0.64169,-6.4135,6.5116,4.4522,-0.58551,1.9392,-0.67287
-0.6171,-6.1782,6.5116,4.2953,-0.58124,1.8836,-0.69486
-0.604,-6.4724,6.8058,4.413,-0.54092,1.8207,-0.66096
-0.58734,-6.7274,6.8254,4.4914,-0.53939,1.7886,-0.64752
-0.57346,-6.9431,7.4138,4.668,-0.59743,1.7507,-0.70616
-0.56979,-6.9627,8.1591,5.2564,-0.65882,1.6826,-0.79779
-0.58102,-6.7077,9.4732,5.9036,-0.70891,1.6087,-0.78649
-0.58759,-6.8647,10.728,6.3547,-0.75228,1.5507,-0.77274
-0.60843,-7.2373,10.807,6.2763,-0.78496,1.5003,-0.7813
-0.64084,-7.0412,10.415,5.9821,-0.80023,1.4471,-0.78435
-0.69165,-6.5508,10.12,5.7271,-0.78649,1.3992,-0.78649
-0.74551,-6.6293,10.042,5.6094,-0.7364,1.3625,-0.79138
-0.79712,-7.0412,10.12,5.8055,-0.6747,1.3277,-0.79535
-0.82709,-7.2569,10.356,6.0213,0.47098,-2.7794,0.13073
-0.82111,-7.5707,10.572,6.1978,0.55986,-2.7565,0.048258
-0.78494,-7.4334,10.277,6.0409,0.6295,-2.7315,0.52657
-0.74435,-7.5511,9.8655,5.9036,0.66706,-2.7055,0.47098
-0.68378,-7.9826,9.4732,5.884,0.67806,-2.6817,0.4105
-0.6106,-8.2964,9.0221,5.9036,0.66126,-2.6585,0.34911
-0.53351,-8.4926,8.8848,5.9232,0.62827,-2.6399,0.28375
-0.46445,-8.3749,8.6887,6.0605,0.58429,-2.6185,0.20953
-0.38629,-7.9826,8.5514,6.0801,0.018021,-2.3961,1.6854
-0.32819,-7.9238,8.218,6.1978,-0.022297,-2.4358,1.6643
-0.27533,-8.3945,8.1003,6.3547,-0.057421,-2.4667,1.8528
-0.22186,-7.9826,8.0611,6.4332,-0.09163,-2.5082,1.8479
-0.18738,-7.7669,8.0611,6.4332,-0.11118,-2.5583,1.8286
-0.1517,-7.2765,7.8845,6.2959,-0.11087,-2.602,1.7822
-0.12573,-6.9627,7.4531,6.1193,-0.094379,-2.6411,1.7327
-0.097107,-6.3547,7.5707,6.0409,-0.07758,-2.6725,1.7049
-0.082855,-6.1782,8.0415,6.2959,-0.093462,-2.686,1.3299
-0.078339,-5.8448,7.9042,6.3351,-0.14783,-2.6854,1.2553
-0.074463,-5.5506,7.6688,6.1978,-0.19761,-2.6961,1.6472
-0.083832,-5.0798,7.355,6.0801,-0.24221,-2.7089,1.6393
-0.10696,-4.5307,7.1196,5.7467,-0.26939,-2.7226,1.5931
-0.12686,-3.2754,7.0019,5.5702,-0.26817,-2.7287,1.5211
-0.16507,-2.3732,6.5901,5.1779,-0.25229,-2.7336,1.4206
-0.17133,-1.7652,6.0997,4.8249,-0.20372,-2.7675,1.3583
-0.18488,-1.7456,5.9624,4.7268,-0.13653,-2.803,0.66065
-0.18463,-1.4514,5.7271,4.5503,-0.089797,-2.8289,0.58796
-0.16458,-1.0787,5.4721,4.3149,-0.061697,-2.835,1.1203
-0.10889,-1.0199,5.6486,4.1972,-0.0012217,-2.8381,0.98991
-0.042877,-1.1572,5.5898,4.0207,0.061392,-2.8341,0.90011
0.05368,-1.216,5.3348,3.8246,0.14019,-2.8201,0.81306
0.16125,-1.118,5.6486,3.8442,0.25779,-2.8075,0.76969
0.27524,-1.2356,6.0409,3.8638,0.37324,-2.7965,0.72693
0.38864,-1.3925,6.3743,3.6873,0.081245,-2.1655,-1.3103
0.50656,-1.4514,6.3547,3.3146,0.49327,-2.0901,-1.2013
0.6134,-1.5298,6.3547,3.0989,0.37141,-2.0174,-1.0993
0.67734,-1.4906,6.5312,2.9812,0.31154,-1.9468,-0.99296
0.71698,-2.2751,7.0412,3.2362,0.27886,-1.8754,-0.87781
0.74011,-2.4713,7.1392,3.3735,0.24404,-1.8039,-0.7703
0.72702,-2.0986,6.845,2.7655,0.19334,-1.7321,-0.66798
0.69629,-1.7652,6.6293,2.432,0.13806,-1.6558,-0.5623
0.63434,-1.9613,6.7862,2.432,0.42913,-1.3986,-2.8784
0.55719,-2.2359,7.4727,2.7655,0.58551,-1.398,-2.9209
0.49158,-2.432,8.1591,2.942,0.73945,-1.4059,-2.8949
0.44604,-2.6478,8.6102,3.0793,0.88759,-1.4325,-2.9163
0.41034,-3.3343,8.9241,3.3931,1.0263,-1.4734,-2.9077
0.39828,-3.903,8.8848,3.5304,1.1548,-1.5159,-2.9062
0.38589,-4.1188,8.6887,3.2166,1.2746,-1.5678,-2.8995
0.36511,-4.5111,8.7279,3.295,1.39,-1.6405,-2.8778
0.35568,-5.3544,8.7083,3.295,1.93,-1.7257,-2.5666
0.35568,-6.0213,8.8848,3.4127,2.1774,-1.8173,-2.573
0.36612,-6.5705,8.9241,3.3931,2.3967,-1.9251,-2.9819
0.38443,-7.0412,8.5318,3.3931,2.5125,-2.054,-3.043
0.4006,-7.9238,7.6688,3.2362,2.485,-2.1768,-3.0849
0.43372,-8.1199,9.1006,2.6674,2.3674,-2.3091,-2.9987
0.49088,-8.1395,10.415,2.2555,1.5229,-2.4294,-2.759
0.58096,-8.0415,10.728,1.9417,1.7,-2.4835,-2.5898
0.66086,-7.9042,10.885,1.6475,2.1228,-2.4743,-1.4523
0.7533,-7.9826,12.003,1.5102,1.9994,-2.4523,-1.3815
0.84445,-7.1196,12.788,1.2749,1.7669,-2.4575,-2.4893
0.94507,-7.2569,12.631,0.84337,1.4468,-2.4636,-2.2801
1,-7.0804,12.003,0.54917,1.0916,-2.4346,-2.0198
1,-7.1392,11.827,0.41188,0.77397,-2.3747,-1.7938
1,-6.8058,12.003,0.25497,2.2507,-2.3094,-1.6347
1,-6.9235,12.239,0.21575,2.1793,-2.2419,-1.5266
1,-6.1978,12.376,0.15691,-0.27855,0.19731,2.2376
1,-6.3547,12.317,0.019613,-0.26084,0.26634,2.2779
1,-6.0017,12.317,0.21575,-0.25504,0.34178,1.9148
1,-5.531,12.494,0.23536,-0.26603,0.41264,1.9871
1,-5.5113,12.866,0.56879,-0.29077,0.48442,2.0507
1,-5.374,12.474,0.80415,-0.31704,0.5681,2.1032
1,-5.6879,11.984,1.0199,-0.34453,0.66218,2.1481
0.98666,-5.4525,11.552,1.2749,-0.37599,0.75411,2.1921
0.92108,-5.4721,11.376,1.6671,-0.4102,0.8433,2.412
0.85159,-5.2564,11.336,1.9809,-0.46792,0.93646,2.423
0.78757,-5.2956,11.199,2.1378,-0.54795,1.0336,2.3213
0.72482,-5.1387,11.042,2.3144,-0.63958,1.1319,2.3595
0.65741,-5.0014,10.572,2.2751,-0.73273,1.2233,2.3723
0.59927,-4.7464,10.277,2.3536,-0.81764,1.31,2.3726
0.54761,-4.6287,10.12,2.4124,-0.89186,1.4025,2.3781
0.50388,-4.5307,10.081,2.3732,-0.967,1.4936,2.3903
0.4678,-4.3149,9.9439,2.4124,-1.0504,1.5699,2.2394
0.44547,-4.158,9.8066,2.2948,-1.1396,1.6344,2.1832
0.44339,-3.903,9.8655,2.2948,-1.2324,1.6893,2.4111
0.45947,-3.6873,9.6694,2.432,-1.3286,1.741,2.3854
0.49063,-3.7265,9.3163,2.4517,-1.4361,1.7849,2.3634
0.52408,-3.5304,9.1398,2.5693,-1.5434,1.8192,2.3442
0.56079,-3.5696,8.8652,2.6674,-1.6368,1.8451,2.3185
0.58035,-3.4912,8.6887,2.8439,-1.7028,1.8671,2.2859
0.59283,-3.2166,8.2572,2.9224,-1.7306,1.8876,1.6875
0.58853,-3.3146,7.7669,3.2166,-1.7086,1.9077,1.6218
0.55298,-3.0989,7.2177,3.4716,-1.6374,1.9276,2.1249
0.4776,-2.6478,6.5705,3.7069,-1.5201,1.9447,2.062
0.34836,-2.2751,5.884,3.8834,-1.3552,1.9563,2
0.19998,-2.3732,5.3348,4.0992,-1.1551,1.9664,1.9322
0.023499,-1.9221,5.0602,4.0796,-0.93096,1.9774,1.8454
-0.15298,-2.079,5.3152,4.1776,-0.69669,1.9942,1.7584
-0.29926,-2.0986,5.629,4.2953,-1.2113,3.3866,-0.07422
-0.40414,-2.2163,5.8644,4.3542,-1.16,3.394,-0.090408
-0.47559,-2.1575,5.9624,4.668,-1.0712,3.3973,-0.24893
-0.5365,-2.5693,5.884,4.7268,-0.95142,3.3955,-0.20617
-0.57373,-2.8832,5.884,4.7856,-0.83841,3.379,-0.15944
-0.58105,-3.1577,5.7075,4.9426,-0.76969,3.3396,-0.10812
-0.59296,-2.8635,5.276,4.7856,-0.75686,3.281,-0.06689
-0.61374,-3.0989,5.2564,5.0406,-0.81215,3.2159,-0.055283
-0.63055,-3.2166,5.276,5.0995,-1.328,3.1579,0.070555
-0.63596,-3.805,5.3937,5.3937,-1.5296,3.1017,0.14142
-0.64182,-4.2757,5.5506,5.8055,-1.6863,3.0519,-0.087965
-0.64468,-5.1583,6.1586,6.3547,-1.7755,3.0103,-0.08094
-0.63177,-6.0997,6.6489,6.6881,-1.8014,2.9709,-0.075442
-0.6228,-6.237,6.4332,6.6685,-1.7801,2.9343,-0.053451
-0.6022,-6.139,6.2763,6.3743,-0.93371,2.8949,-0.025045
-0.57608,-6.4724,6.0605,6.3939,-1.1154,2.8436,0.010385
-0.56,-7.2569,5.7271,6.4332,-1.5965,2.7898,0.7703
-0.54349,-7.8061,5.1191,6.6685,-1.5382,2.7364,0.88637
-0.52106,-8.2376,4.7072,7.0019,-1.4972,2.6808,0.22633
-0.51257,-8.5514,5.0602,7.4334,-1.463,2.6347,0.32987
-0.50635,-8.826,5.5506,7.1392,-1.4413,2.5833,0.43005
-0.47495,-8.5122,6.0213,6.8647,-1.4578,2.5155,0.51832
-0.42661,-8.218,5.884,7.0019,-1.7275,2.4419,0.59284
-0.38571,-7.8061,5.629,7.0019,-1.6631,2.3686,0.66981
-0.35617,-7.3942,5.3937,6.3547,-0.58002,3.4193,-0.34086
-0.33179,-7.4531,5.3348,5.9036,-0.76816,3.4175,-0.29413
-0.31525,-7.8649,5.6486,5.5702,-0.93737,3.3967,-0.34636
-0.29529,-8.5318,5.8644,5.3544,-1.0611,3.3744,-0.40073
-0.27631,-9.2379,6.0409,5.4133,-1.1442,3.3695,-0.43707
-0.2478,-9.2967,6.5116,5.3544,-1.197,3.3753,-0.44379
-0.22672,-9.6105,7.0019,5.2368,-1.2214,3.3821,-0.4218
-0.17157,-9.3752,6.9627,4.9426,-1.2281,3.3845,-0.38485
-0.10175,-9.4536,6.6881,4.9426,-0.66309,-1.5601,1.0293
-0.037109,-9.3948,6.1782,4.6484,-0.61056,-1.6484,0.99999
0.030243,-8.5318,5.9624,4.5503,-0.60812,-1.7376,1.2425
0.054108,-7.9238,5.7467,4.5503,-0.64813,-1.8295,1.2236
0.042847,-7.4923,5.884,4.7268,-0.70677,-1.9242,1.1967
0.012512,-7.4334,6.3547,5.0406,-0.75289,-2.0207,1.175
-0.023376,-7.4334,6.7862,5.4525,-0.76633,-2.1163,1.1322
-0.074829,-7.4923,6.9823,5.9036,-0.74923,-2.2135,1.0715
-0.1503,-7.1196,6.6881,6.0801,-0.72204,-2.3011,0.67714
-0.22025,-6.9627,6.4724,6.3547,-0.7086,-2.375,0.61331
-0.31061,-6.8254,6.6489,6.9039,-0.70647,-2.4346,0.95875
-0.4053,-6.3351,6.8058,7.4334,-0.70036,-2.4816,0.90072
-0.50571,-6.0997,6.7862,7.9042,-0.6857,-2.5366,0.84971
-0.61789,-6.0213,6.5116,7.9434,-0.66951,-2.5931,0.81489
-0.73294,-5.6094,6.1586,7.8649,-0.65363,-2.6383,0.78496
-0.84546,-5.4525,6.0017,8.2768,-0.63499,-2.6814,0.74006
-0.95694,-4.766,6.0605,8.8652,-1.7202,0.44838,1.5021
-0.99997,-5.0798,6.3743,9.3359,-1.7507,0.3488,1.4917
-0.99997,-4.8837,6.1193,9.1006,-1.7773,0.24282,1.5415
-0.99997,-4.4326,5.9624,8.9633,-1.7791,0.12126,1.5534
-0.99997,-4.0992,6.3155,9.0221,-1.7568,-0.012828,1.5547
-0.99997,-4.2169,6.7274,9.3752,-1.7,-0.15455,1.5412
-0.99997,-4.3542,6.6293,9.5125,-1.6084,-0.29383,1.5244
-0.99997,-4.3149,6.3351,9.2575,-1.5018,-0.43097,1.5085
-0.99997,-3.903,6.2174,9.0221,-1.3833,-0.56291,1.2788
-0.99997,-3.5304,6.1782,8.9044,-1.2651,-0.69761,1.252
-0.99997,-2.8635,6.0605,8.9437,-1.1545,-0.82955,1.4624
-0.95325,-3.3343,6.0997,9.1006,-1.0574,-0.95539,1.4438
-0.89127,-3.0597,5.884,8.7083,-0.98197,-1.0876,1.4407
-0.81873,-2.589,5.531,8.2572,-0.91966,-1.2257,1.4245
-0.74646,-1.9025,5.1583,8.0022,-0.84422,-1.3525,1.3848
-0.67612,-1.6279,4.7856,7.963,-0.75075,-1.463,1.3292
-0.59833,-1.6279,4.6287,8.2376,0.41692,-0.014661,-3.2077
-0.50168,-1.9613,4.2365,8.1787,0.60109,0.026573,-3.2596
-0.40921,-2.2359,4.2169,7.9238,0.80146,0.06017,-2.9172
-0.31464,-1.6475,3.805,7.1785,0.98533,0.086132,-3.0201
-0.22064,-1.3141,3.5892,6.4332,1.1493,0.095295,-3.1008
-0.13397,-1.1768,3.2754,6.0801,1.3069,0.085521,-3.1414
-0.033844,-0.98067,3.2362,5.7663,0.19853,0.068111,-3.1652
0.066284,-0.70608,3.6677,5.4525,0.27519,0.043677,-3.1823
0.1636,-0.37265,4.3149,5.1191,1.8882,0.0054978,-3.233
0.30246,-0.13729,5.0602,5.0406,2.0632,-0.033598,-3.2874
0.41907,-0.50995,5.7271,5.1779,2.1426,-0.072693,-3.313
0.53091,-0.05884,6.1782,5.1779,2.1185,-0.10293,-3.3326
0.64285,0.078453,6.5901,5.0995,2.0201,-0.12065,-3.321
0.71683,0.17652,6.5901,5.0406,1.898,-0.15088,-3.2571
0.7709,-0.019613,6.492,5.1387,1.4813,-0.20769,-3.1673
0.78256,0.039227,6.0997,5.3544,1.6793,-0.27184,-3.1634
0.76755,-0.35304,5.374,5.3937,-1.077,-1.1771,-2.2141
0.69516,-0.35304,4.7072,5.2564,-1.2175,-1.0446,-2.2425
0.59561,-0.68647,4.766,5.1779,-1.3137,-0.92638,-1.9416
0.50113,-0.76492,4.9622,5.5702,-1.3503,-0.82864,-1.9667
0.39703,-0.98067,5.531,5.884,-1.2972,-0.75717,-2.0128
0.28867,-1.1376,5.9624,6.0801,-1.157,-0.70127,-2.0708
0.18881,-1.9417,6.4724,6.1782,-0.95539,-0.64385,-2.1322
0.11041,-2.2751,6.4332,5.9821,-0.73029,-0.57696,-2.1799
0.046539,-2.8635,6.3547,6.0213,-0.19609,-0.51038,-2.7248
-0.01236,-3.4323,6.6881,5.9821,-0.08491,-0.44379,-2.8152
-0.046661,-4.1188,7.2961,5.9232,0.013744,-0.37385,-2.284
-0.081573,-4.3542,7.2961,5.5506,0.094379,-0.30665,-2.3515
-0.065277,-4.9229,7.61,5.1387,0.14478,-0.24526,-2.4261
-0.040375,-5.374,8.9241,5.2564,0.16921,-0.18723,-2.4853
0.036224,-6.7666,9.9832,5.4917,-0.51588,-0.12767,-2.5498
0.15521,-7.4334,9.9636,5.6682,-0.33659,-0.067806,-2.6359
0.27542,-8.3749,9.2379,5.276,1.7767,-1.3387,2.3195
0.43549,-9.3752,9.6105,4.9426,1.8494,-1.2923,2.3063
0.57748,-9.3948,10.493,4.6484,1.8961,-1.2156,1.8454
0.72128,-9.3163,10.493,4.5699,1.9224,-1.1148,1.9309
0.84491,-9.0025,10.042,4.6287,1.9068,-1.0113,2.0363
0.93619,-8.8652,10.12,4.9426,1.8036,-0.90011,2.1512
1,-8.4337,11.199,4.8641,1.6063,-0.77733,2.2486
1,-7.9042,11.219,3.8442,1.3586,-0.65179,2.3072
1,-7.7473,10.827,3.2362,1.1475,-2.9141,-0.11209
1,-7.1785,10.179,3.1577,0.99938,-2.8326,-0.047953
1,-6.6685,9.787,3.197,0.85765,-2.7489,-0.39401
1,-6.8058,9.9439,3.3539,0.73762,-2.657,-0.37599
1,-6.4724,10.415,3.3735,0.64721,-2.5659,-0.36805
1,-6.3547,10.728,3.3735,0.58674,-2.4896,-0.32559
1,-6.0213,10.493,3.295,0.55161,-2.43,-0.24862
1,-5.7075,10.493,3.1381,0.56261,-2.3769,-0.17287
1,-5.629,10.297,3.1577,0.62766,-2.3057,0.80207
1,-5.4133,9.7674,3.0401,0.74006,-2.2214,0.87537
1,-5.1387,9.3555,2.9812,0.8885,-2.1469,0.051924
1,-5.1583,9.5517,3.2362,1.0409,-2.0824,0.18143
1,-5.0798,9.9636,3.4127,1.1606,-2.0214,0.31887
1,-5.1975,10.12,3.5696,1.2208,-1.9575,0.46212
1,-5.0798,9.8655,3.5108,1.2184,-1.894,0.60323
0.9794,-5.0602,9.5517,3.4716,1.1738,-1.8298,0.71838
0.96707,-4.5307,9.4928,3.4716,1.1191,-1.7672,1.5916
0.97073,-4.2757,10.179,3.0597,1.0904,-1.7098,1.7379
1,-4.2757,10.925,2.7851,1.1115,-1.6735,0.96242
1,-3.8442,11.238,2.3536,1.1805,-1.6472,1.0614
1,-3.5892,11.748,2.3732,1.285,-1.6032,1.1496
1,-2.8832,11.925,2.4517,1.4184,-1.5296,1.2358
1,-2.2163,11.748,2.6282,1.5504,-1.4465,1.3256
1,-1.9221,11.297,2.6282,1.6716,-1.3821,1.4395
1,-1.3925,10.807,2.589,-1.4038,2.4135,-0.20067
1,-0.66685,9.9439,2.1575,-1.2156,2.4502,-0.46914
1,-0.23536,9.2967,1.7456,-1.0498,2.4841,0.62889
1,-0.05884,8.6102,1.6475,-0.95753,2.5189,0.44685
1,-0.17652,8.2964,1.8044,-0.91996,2.5687,0.34758
1,-0.23536,8.218,2.0006,-0.94867,2.6255,0.32376
1,-0.43149,7.9826,2.0986,-1.0592,2.6713,0.25198
1,-0.33343,7.3158,2.0986,-1.2025,2.7156,0.06017
1,-0.11768,6.6489,2.2948,-1.2788,2.7681,-1.12
1,-0.27459,6.0997,2.6282,-1.2223,2.8362,-1.2117
1,-0.27459,5.2564,2.7655,-1.0586,2.9322,-0.70921
1,-0.50995,4.3149,2.8832,-0.84177,3.0568,-0.89767
1,-0.37265,3.2362,2.7655,-0.62522,3.1902,-1.0088
0.83588,-0.11768,3.5108,3.6873,-0.4725,3.3075,-1.0522
0.57806,-0.98067,4.7072,4.413,-0.40073,3.4135,-1.0739
0.31628,-1.4514,5.3348,4.5111,-0.38057,3.507,-1.0867
0.062073,-1.7064,4.7856,4.1972,-0.22266,3.5888,-1.1057
-0.21338,-1.1376,3.7658,4.0011,-0.12889,3.6728,-1.1075
-0.44803,-1.6083,3.7658,4.766,-0.14844,3.7663,-1.3332
-0.70325,-2.5693,4.7856,5.8055,-0.28772,3.8833,-1.438
-0.93005,-3.9815,5.5506,5.9624,-0.52443,4.0085,-1.4936
-0.99997,-4.0992,5.0995,5.1387,-0.87201,4.102,-1.4542
-0.99997,-4.5111,4.8445,5.7271,-0.36957,4.1432,-1.3057
-0.99997,-5.8252,6.3547,6.8058,-0.32284,4.1646,-1.1591
-0.99997,-6.8647,7.7669,7.1589,-1.7886,4.2015,-0.65271
-0.99997,-7.1392,7.2177,6.8058,-1.8402,4.2492,-0.57177
-0.99997,-8.1787,5.6486,6.2959,-1.7828,4.2901,-1.1383
-0.99997,-8.6102,4.4718,6.0213,-1.6591,4.3148,-1.1463
-0.99997,-9.689,4.766,6.3547,-1.5247,4.3167,-1.0907
-0.99997,-10.101,5.2564,6.3351,-1.4184,4.2968,-1.0098
-0.99997,-10.728,5.884,6.1193,-1.2645,4.2565,-0.9108
-0.99997,-10.866,6.5312,6.1782,-1.5925,4.1985,-0.78405
-0.99997,-10.709,7.0412,6.0409,-0.83841,-0.71135,2.7196
-0.99997,-10.866,7.6884,5.8055,-0.6918,-0.87751,2.5546
-0.95035,-10.434,8.3553,5.6486,-0.54092,-1.0235,3.4221
-0.79996,-10.375,8.7279,5.7467,-0.35552,-1.1619,3.3463
-0.66879,-10.375,9.2379,5.276,-0.1069,-1.2767,3.2608
-0.54941,-11.16,9.179,4.7856,0.1799,-1.3583,3.1316
-0.44492,-11.67,8.8652,4.7268,0.48594,-1.4261,2.9764
-0.3703,-11.729,7.9238,4.766,0.81153,-1.4829,2.8454
-0.31165,-12.101,6.8058,5.1387,1.1472,-1.5351,1.6399
-0.31281,-11.65,5.7859,5.5506,1.4856,-1.5705,1.3335
-0.33939,-11.493,4.9229,6.0801,1.7908,-1.5647,2.3601
-0.41516,-11.317,4.9622,6.9627,1.9978,-1.5281,2.1896
-0.51181,-11.023,5.5506,7.61,2.0803,-1.4804,2.0782
-0.60822,-10.728,5.3348,7.9434,2.0446,-1.4392,2.025
-0.69427,-9.9439,4.7856,7.8649,1.967,-1.4325,1.989
-0.71036,-8.8652,4.0011,7.708,1.8476,-1.4255,1.8842
-0.72141,-8.0611,3.3343,7.5511,1.6869,-1.3809,0.12553
-0.70734,-6.6489,2.4124,7.1589,1.5262,-1.321,-0.1066
-0.68469,-5.9232,2.2555,6.845,1.3714,-1.2608,1.091
-0.62378,-5.0014,1.7064,6.3547,1.204,-1.1961,0.91691
-0.53012,-4.1188,1.6279,6.1978,0.98197,-1.1267,0.79138
-0.41251,-2.8439,2.8243,6.2959,0.68936,-1.0589,0.67653
-0.27173,-2.9616,3.9815,6.1193,0.36255,-0.99663,0.51801
-0.10449,-2.4713,3.9815,5.7467,0.048869,-0.9444,0.32681
0.079926,-1.7848,3.9815,5.4329,-1.3518,-0.90347,-1.5974
0.25995,-1.216,4.3934,5.4329,-0.25992,-0.8604,-1.7691
0.4382,-1.0787,4.9229,5.5898,-0.41844,-0.8097,-0.36072
0.59692,-0.82376,5.021,5.5898,-0.50885,-0.75289,-0.61514
0.72952,-0.90221,4.7072,5.1779,-0.56352,-0.69578,-0.84849
0.85117,-0.90221,4.2757,4.9426,-0.62278,-0.6353,-1.0595
0.94614,-0.86299,4.2953,4.766,-0.74678,-0.5568,-1.2514
1,-1.1376,5.2564,5.0995,-0.99021,-0.45845,-1.434
1,-1.5298,6.3547,5.276,-0.22052,-1.0201,-0.39279
1,-2.2555,6.7274,5.276,-0.34056,-1.1988,-0.28344
0.99988,-2.4713,6.0213,5.0995,-0.31673,-1.3919,-1.3234
0.90643,-2.4124,6.6489,5.5506,-0.23824,-1.5785,-1.0519
0.68713,-4.0403,6.492,5.7663,-0.14478,-1.741,-0.79779
0.38272,-5.0798,4.3149,5.1779,-0.075136,-1.8699,-0.63499
-0.02002,-5.8448,1.118,4.0992,-0.037568,-1.9722,-0.54275
-0.4549,-7.4923,-1.118,2.7262,-0.0015272,-2.0766,-0.47312
-0.83658,-8.9633,-0.49033,3.3146,0.080634,-2.1918,0.1799
-0.99997,-12.043,2.8832,5.4329,-0.013744,-2.2938,0.20831
-0.99997,-10.434,4.9229,5.9821,-0.13164,-2.3787,-0.14691
-0.99997,-12.16,6.5901,4.2953,-0.2364,-2.4596,0.0076358
-0.99997,-12.886,8.6102,2.6086,-0.31093,-2.5397,0.13928
-0.99997,-12.474,8.6887,3.6873,-0.3372,-2.6108,0.1967
-0.97455,-12.199,9.1006,5.0995,0.059865,-2.6829,0.18815
-0.69836,-10.532,9.3555,6.0801,0.10568,-2.7593,0.17501
-0.39136,-10.258,9.9636,6.0213,-0.1179,-2.8231,0.39279
-0.10837,-9.9243,8.6691,5.8055,-0.016493,-2.8683,0.39004
0.11966,-9.1202,6.8254,4.668,0.086132,-2.9053,0.25595
0.2908,-8.9241,6.0605,3.6677,0.16707,-2.926,0.30421
0.42511,-8.7475,6.0605,3.5304,0.20006,-2.9236,0.32223
0.49597,-8.9241,5.7271,4.3149,0.19364,-2.9129,0.35033
0.54282,-8.9044,5.374,4.7856,-0.30818,-2.9129,0.38729
0.55081,-9.0221,5.7075,5.2564,-0.22755,-2.9218,0.39401
0.5351,-8.826,6.0213,4.9426,4.0174,0.6411,-1.5446
0.49792,-8.7475,5.7271,5.0995,3.6475,0.40195,-1.5098
0.4516,-8.5122,5.2368,5.0995,3.2547,0.14661,-2.8686
0.36646,-8.0807,4.6091,5.0406,2.8607,-0.020159,-2.8616
0.24881,-7.5903,4.7072,5.4329,2.3289,-0.17257,-2.6625
0.10516,-7.8061,4.6484,6.2959,1.6063,-0.4102,-2.222
-0.058685,-8.1199,4.6287,6.9235,0.82711,-0.66218,-1.7593
-0.229,-8.0415,4.6287,7.1589,0.17104,-0.85704,-1.5394
-0.38751,-7.355,5.0995,7.3158,0.22144,1.6716,-0.19028
-0.55515,-7.2765,5.4917,7.6884,-0.051007,1.9355,-0.16157
-0.70139,-6.237,4.8445,7.4531,-0.34147,2.1875,-0.62369
-0.85562,-5.531,4.0207,7.2765,-0.67745,2.4416,-0.60567
-0.98972,-4.7268,3.5892,7.0019,-1.0504,2.6881,-0.5226
-0.99997,-4.2561,3.55,6.3547,-1.4603,2.9178,-0.41264
-0.99997,-3.4127,3.6873,6.1978,-1.8836,3.1261,-0.33414
-0.99997,-3.0597,3.9227,6.1978,-2.2492,3.2962,-0.25595
-0.99997,-3.3146,4.2953,6.3547,-2.4893,3.4233,0.70983
-0.99997,-2.4713,4.0796,5.4133,-2.569,3.5158,0.80634
-0.99997,-1.6475,3.903,4.4522,-2.4713,3.5897,-0.1292
-0.99997,-1.2749,3.7069,4.0207,-2.255,3.6478,-0.078191
-0.99997,-1.1768,4.2169,4.0207,-2.011,3.6811,0.0012217
-0.99997,-0.98067,4.7464,4.0207,-1.7788,3.6951,0.15119
-0.99997,-0.90221,5.5702,4.2365,-1.5776,3.7028,0.35766
-0.99997,-0.82376,6.3743,3.7854,-1.4181,3.6991,0.56047
-0.99997,-0.90221,6.5116,3.4127,2.4609,-1.7541,-0.85765
-0.86151,-0.5884,6.6489,3.6873,2.6508,-1.6295,-0.90591
-0.64322,-0.52956,7.0412,3.7265,2.7944,-1.5085,-0.85399
-0.41037,-0.45111,7.4334,3.2166,2.8509,-1.3708,-0.85827
-0.21426,-0.82376,7.9042,2.9224,2.8277,-1.204,-0.84605
-0.023224,-1.0591,8.0611,2.9224,2.748,-1.0259,-0.8207
0.14294,-1.4514,8.3945,3.4716,2.6252,-0.83963,-0.81153
0.28256,-2.0986,9.1594,4.158,2.4755,-0.63194,-0.81978
0.38083,-2.9616,9.8066,4.7268,2.3005,-0.40256,-0.63927
0.457,-3.6285,9.4144,4.6484,2.0776,-0.17043,-0.6243
0.48007,-4.2757,8.218,4.0992,1.7901,0.063835,-0.91783
0.45309,-5.0798,7.1589,3.9423,1.4817,0.32345,-0.87751
0.39532,-6.237,7.1392,4.6484,1.2135,0.60079,-0.81184
0.30173,-6.6685,7.4334,5.276,0.98655,0.87293,-0.74953
0.21304,-7.1196,7.5315,5.5702,0.75625,1.1368,-0.7086
0.15073,-7.5903,7.6688,5.8055,0.49511,1.401,-0.67226
0.10336,-7.5707,8.1591,6.0801,-0.080023,-0.011912,1.3164
0.080048,-7.708,8.6887,6.6685,-0.24251,-0.015577,1.2776
0.064362,-8.0415,8.3945,6.845,-0.41447,-0.019548,1.7202
0.020813,-7.5903,7.2177,6.9235,-0.60201,-0.010996,1.6225
-0.0672,-7.5903,6.8058,6.2174,-0.79077,0.011606,1.5421
-0.17398,-7.4334,6.9431,5.8055,-0.93707,0.038179,1.4664
-0.2778,-7.4923,7.4727,5.5702,0.21289,0.055894,1.4093
-0.3443,-7.963,7.5315,6.1193,0.073609,0.067195,1.3647
-0.34488,-7.9826,7.2961,6.237,-2.3497,2.0064,2.7083
-0.35031,-8.0415,7.2177,6.3939,-2.2718,1.8644,2.5953
-0.30573,-7.9238,7.1981,5.8644,-2.1509,1.697,2.9407
-0.23029,-7.9042,7.0412,5.884,-1.9676,1.5675,2.8695
-0.13565,-7.5119,6.5116,6.2959,-1.7309,1.4981,2.7773
-0.01004,-6.4528,6.0997,5.7467,-1.4566,1.4462,2.7443
0.134,-6.1782,6.3547,5.4329,-1.2101,1.3977,2.755
0.32065,-6.8647,6.845,5.7075,-1.0525,1.3488,2.7654
0.56595,-6.6489,7.1392,6.6685,-0.99999,1.2608,2.105
0.85699,-6.1782,7.1,6.9823,-1.0223,1.087,2.0959
1,-5.2956,6.9627,6.1978,-1.0437,0.85307,2.4804
1,-5.1387,6.9431,5.4329,-0.99999,0.64019,2.3769
1,-4.7268,6.9431,5.1975,-0.86682,0.49786,2.2706
1,-4.2169,7.1981,5.8055,-0.65301,0.39218,2.1732
1,-3.6677,7.3158,5.9036,-0.40531,0.28986,2.1163
1,-3.4323,7.7276,5.5702,-0.1744,0.20983,2.1081
1,-3.903,7.7669,5.5506,0.20097,0.13867,1.9025
1,-4.0403,7.7669,5.7271,0.25443,0.04948,1.8295
1,-3.3343,7.9826,5.8644,0.29841,-0.031765,2.0992
1,-2.589,8.0611,5.884,0.34819,-0.0956,2.1005
1,-2.7262,7.4334,5.5506,0.36469,-0.11393,2.0782
1,-2.9616,6.7274,5.0995,0.31948,-0.091019,2.0342
1,-3.1774,6.5901,5.2956,0.00061087,-0.06353,1.9694
1,-3.5892,6.5116,5.5702,0.11606,-0.032376,1.93
1,-3.2754,6.1586,5.7467,4.0952,-2.653,-1.3454
1,-3.4912,5.7859,5.9036,4.3359,-2.9114,-1.0699
1,-3.0204,5.9624,5.884,4.5149,-3.1716,-2.5439
1,-2.8635,5.884,6.0605,4.6374,-3.4071,-2.3497
1,-2.2555,5.6486,5.9821,4.7082,-3.5873,-2.1652
1,-1.7652,5.3348,5.7663,4.7128,-3.7464,-1.9786
1,-1.6279,5.0798,5.5898,4.6945,-3.9022,-1.741
1,-1.7652,4.7856,5.4329,4.6242,-4.0311,-1.5324
1,-2.0986,4.4522,5.3544,-0.42028,0.38485,-3.6624
1,-2.4124,4.0011,5.3937,-0.97311,0.36896,-3.6579
1,-2.7262,3.5892,5.5506,-1.4621,0.33934,-2.3802
0.91824,-3.197,3.3539,5.9036,-1.7895,0.29291,-2.6771
0.78455,-3.6677,3.6873,6.6489,-1.9019,0.26603,-2.9829
0.64172,-4.6091,4.8641,7.7473,-1.7978,0.2865,-3.2553
0.4819,-5.7075,5.4721,8.3749,-1.5107,0.34086,-3.4798
0.31528,-6.492,4.9426,8.0218,-1.0718,0.39309,-3.6178
0.085114,-6.3351,4.0011,7.3158,-0.49999,0.40897,-3.0693
-0.23083,-5.374,2.8243,6.8254,0.17562,0.37171,-3.0223
-0.6554,-5.6682,1.4514,7.0019,0.89553,0.28283,-3.6053
-0.98276,-6.4724,1.0003,7.3746,1.5956,0.15394,-3.5
-0.99997,-7.1785,1.3337,7.963,2.2269,-0.011912,-3.3808
-0.99997,-8.2376,2.334,8.4141,2.7571,-0.20372,-3.2654
-0.99997,-9.2771,3.55,8.4141,3.1664,-0.4047,-3.1673
-0.99997,-10.179,4.7856,7.963,3.4532,-0.62125,-3.1099
-0.99997,-10.179,6.1782,7.6884,3.6426,-0.85155,-2.8332
-0.99997,-10.748,7.0019,7.5511,3.7675,-1.0907,-2.722
-0.99997,-11.101,6.6881,7.1785,3.8207,-1.3216,-2.9758
-0.99997,-11.435,6.5901,6.5312,3.7929,-1.5226,-2.9389
-0.99997,-11.356,7.2177,5.9036,3.7293,-1.73,-2.8863
-0.99997,-10.748,7.6296,5.4329,3.675,-1.9694,-2.8249
-0.99997,-10.532,7.6688,5.2956,3.7015,-2.1994,-2.8133
-0.99997,-10.336,8.3553,5.3937,3.8549,-2.4144,-2.8427
-0.99997,-9.2967,9.2575,5.3544,0.34025,-2.7935,1.0458
-0.99997,-8.6495,10.101,5.2956,0.16707,-2.6728,1.0104
-0.99997,-7.8649,9.8655,5.021,0.025351,-2.5458,1.0244
-0.99997,-7.2569,8.8652,4.4522,-0.11729,-2.4215,1.0574
-0.97128,-6.6293,7.6688,4.0403,-0.30727,-2.3109,1.0831
-0.84921,-6.1782,7.9826,4.0011,-0.53267,-2.2052,1.0938
-0.72897,-5.6094,7.9238,4.7268,-0.75106,-2.0974,1.095
-0.64621,-4.9818,7.6296,5.6486,-0.92638,-1.9893,1.0782
-0.58829,-4.5111,7.7473,6.0409,-1.0446,-1.8925,1.0968
-0.55344,-3.7265,7.8845,5.9036,-1.0886,-1.7972,1.0702
-0.50436,-3.1185,7.61,5.6486,-1.0531,-1.6939,1.007
-0.4718,-3.0008,8.0415,5.7467,-0.95936,-1.6081,1.0278
-0.44736,-2.2359,8.1984,5.4917,-0.84269,-1.5342,1.0421
-0.42371,-1.6083,7.7473,5.276,-0.73976,-1.4392,1.0605
-0.41232,-0.98067,7.6296,5.3544,-0.68478,-1.3323,1.0873
-0.42212,-0.45111,8.0415,5.5702,-0.67042,-1.2559,1.1029
-0.45435,-0.21575,7.8453,5.1779,-0.66432,-1.211,0.47159
-0.48502,0.54917,7.3158,4.8249,-0.64416,-1.1628,0.3656
-0.55505,0.60801,6.8843,4.7072,-0.5962,-1.0708,1.0171
-0.65912,0.49033,6.7274,4.6287,-0.52229,-0.92546,0.93462
-0.77933,0.27459,6.7274,4.766,-0.43891,-0.75778,0.83658
-0.87238,-0.019613,6.8254,4.8249,-0.34911,-0.56536,0.73945
-0.92911,0.56879,6.5116,3.9815,-0.27825,-0.34544,0.65424
-0.96344,0.90221,5.884,3.2362,-0.24068,-0.12034,0.56749
-0.96451,1.1964,5.2368,3.0401,-0.21166,0.10629,-0.48869
-0.93497,1.2749,5.0798,3.6873,-0.22449,0.32467,-0.62125
-0.88608,1.0395,5.3937,4.1384,-0.24496,0.52626,0.24709
-0.83499,0.60801,5.4721,4.0992,-0.24618,0.72479,0.13073
-0.77496,0.13729,5.5506,3.9227,-0.19884,0.9163,0.018937
-0.70831,-0.21575,5.531,3.197,-0.087048,1.0904,-0.09896
-0.66785,-0.66685,5.2564,2.4713,-0.22358,1.2532,-0.22266
-0.60529,-0.82376,4.7072,1.9809,-0.21228,1.4145,-0.35216
-0.54782,-1.4906,4.7856,2.1575,-2.0162,3.5091,1.9129
-0.44434,-2.6282,5.7859,2.2948,-2.1502,3.5198,1.9893
-0.35446,-2.8635,6.2174,2.0986,-2.2804,3.5192,1.1558
-0.27039,-3.4912,6.3547,1.8437,-2.3958,3.4404,1.2788
-0.17685,-4.2561,6.845,2.2948,-2.4877,3.3405,1.3894
-0.10739,-5.1583,8.3945,3.6873,-2.5598,3.2526,1.4865
-0.055725,-6.3351,10.022,4.668,-2.6108,3.1826,1.6078
-0.0058289,-7.1196,10.493,4.1384,-2.6573,3.1111,1.7654
0.019012,-7.8061,10.395,3.5108,-2.7147,3.0262,2.0647
0.046265,-9.2967,10.983,4.3542,-2.7779,2.9282,2.0751
0.079529,-10.022,10.925,4.413,-2.8194,2.7999,2.029
0.12836,-10.65,10.297,3.8638,-2.8265,2.6487,2.0598
0.21649,-11.219,10.12,3.7854,-2.8081,2.5027,2.091
0.32919,-12.003,10.748,4.7856,-2.7727,2.3671,2.1163
0.47375,-10.101,10.336,4.9818,-2.7174,2.23,2.1255
0.62027,-11.435,10.728,5.0406,-2.6325,2.0834,2.0925
0.7655,-9.9243,10.081,5.0798,-2.5155,1.9401,1.9942
0.86633,-9.4928,9.3948,4.8053,-2.3854,1.8185,1.9789
0.9306,-9.6301,8.6887,4.7856,-2.2614,1.7123,2.0944
0.9725,-9.3163,8.3553,4.4914,-2.1334,1.6099,2.0889
0.97675,-9.2379,7.9434,4.5111,-1.9807,1.5134,2.0693
0.96133,-9.081,7.4138,4.5503,-1.8039,1.4282,2.0647
0.93463,-8.6887,7.1392,4.1972,-1.6267,1.35,2.0403
0.88409,-8.6691,6.7274,4.0992,-1.482,1.2688,2.0107
0.82324,-8.0611,6.3547,3.9227,-1.6548,4.857,0.87812
0.77051,-7.5511,6.0997,4.0207,-1.5217,4.7275,1.0153
0.66721,-7.0412,6.0409,4.158,-1.431,4.5726,-0.20556
0.57324,-6.8647,5.884,4.158,-1.4542,4.3729,0.081551
0.45877,-6.0409,5.8644,4.1972,-1.5992,4.1307,0.32132
0.33047,-5.6682,6.2763,4.5503,-1.6017,4.1154,0.49969
0.22107,-5.4721,6.5312,4.9426,-1.6567,4.0177,0.63561
0.12329,-5.374,6.2566,4.9426,-1.8549,3.6814,0.76633
0.026093,-5.0798,6.0017,4.8837,1.011,-0.06017,-1.97
-0.04184,-5.0014,5.8644,5.1191,0.86926,-0.089492,-1.9563
-0.10315,-4.6876,5.5506,5.1779,0.72357,-0.12095,-1.6738
-0.15945,-5.0602,5.276,5.1779,0.61239,-0.16677,-1.7061
-0.21606,-4.7268,5.7075,5.4525,0.5678,-0.22571,-1.7602
-0.26559,-4.1972,6.4724,5.6094,0.59071,-0.27458,-1.8463
-0.29919,-3.4127,6.4724,5.5702,1.1591,-0.31124,-1.9279
-0.3266,-3.7461,6.0017,5.3937,1.1121,-0.35369,-1.9676
-0.34229,-4.0011,5.4721,5.1387,0.7028,-0.39645,-1.7703
-0.34918,-4.3542,5.3937,5.2564,0.63194,-0.43952,-1.8234
-0.36008,-4.2169,5.1191,5.276,0.47831,-0.49083,-1.9196
-0.36493,-4.2561,4.8641,5.2564,0.2926,-0.56108,-1.8619
-0.37213,-3.9815,4.5895,5.0798,0.15791,-0.65363,-1.7892
-0.37714,-4.1972,4.2169,5.0406,0.11942,-0.76175,-1.7397
-0.3699,-4.6091,3.8442,5.0995,0.64996,-0.88973,-1.7309
-0.36417,-5.1583,3.6873,5.1779,0.69975,-1.0388,-1.74
-0.34488,-5.7075,3.8442,5.1779,0.16524,-1.6423,-1.8622
-0.32568,-5.9821,4.0796,5.0995,0.27367,-1.7889,-1.9053
-0.29831,-6.2566,4.3149,4.7856,0.46609,-1.956,-1.9438
-0.27057,-6.5508,4.9426,4.9622,0.76694,-2.1228,-1.9771
-0.22147,-6.5508,5.884,5.1975,1.1787,-1.1878,-1.9881
-0.17612,-6.7862,6.1782,5.5113,1.6851,-1.3152,-1.9746
-0.14166,-6.5508,5.9624,5.0995,2.2345,-1.4178,-1.9816
-0.12173,-6.6293,5.5898,4.8641,2.7953,-1.5195,-1.9334
-0.12064,-6.9431,5.7859,5.1779,0.41966,0.28466,-1.525
-0.13831,-7.4923,6.1782,6.2959,0.54672,0.26573,-1.62
-0.16656,-8.5122,6.5901,6.8254,0.67104,0.22877,-0.71196
-0.19214,-9.0025,6.3351,6.237,0.78771,0.17807,-0.83658
-0.21252,-9.0025,5.9036,5.6682,0.89339,0.12492,-0.96883
-0.24887,-9.0025,4.7856,5.1191,0.99266,0.068417,-1.1136
-0.29053,-9.2967,3.5108,5.0406,1.0806,0.015272,-1.2602
-0.34564,-9.8066,2.7459,5.0406,1.1451,-0.027794,-1.3998
-0.39905,-10.63,2.5693,4.6287,0.88209,-3.014,0.60506
-0.41043,-11.572,3.9227,3.6873,0.91813,-2.9706,0.66798
-0.34558,-10.866,5.4329,4.158,0.90469,-2.9114,0.5959
-0.26453,-10.964,5.2171,5.2564,0.88178,-2.8182,0.63011
-0.15283,-11.219,4.4326,5.5113,0.87995,-2.6832,0.61972
-0.049103,-11.572,3.55,4.8053,0.90408,-2.5058,0.58338
0.054108,-12.199,4.0011,4.3149,0.8937,-2.3127,0.55283
0.16391,-11.67,5.276,4.4914,0.79229,-2.1081,0.55008
0.24719,-11.121,6.3547,5.0798,0.58674,-1.9032,0.092852
0.34888,-10.748,6.2763,5.276,0.30207,-1.7291,0.043677
0.38272,-10.591,5.7859,4.7856,0.0024435,-1.5809,0.65668
0.40817,-9.4732,6.5901,4.4522,-0.26023,-1.4435,0.56933
0.40497,-8.5514,8.0415,4.6484,-0.44593,-1.3164,0.45418
0.36203,-8.1787,8.2964,5.4133,-0.54214,-1.1903,0.33811
0.28409,-7.5707,7.61,6.0801,-0.56291,-1.0504,0.22694
0.16528,-7.4334,6.7274,5.6486,-0.53939,-0.89492,0.14416
0.01825,-6.5508,6.2763,4.8641,0.83108,-3.9379,0.033903
-0.15237,-6.3155,6.3743,4.7856,0.4441,-3.7797,0.074831
-0.32245,-5.7859,6.6881,5.1191,0.15088,-3.6695,-0.11057
-0.49298,-5.6094,7.1589,5.5702,0,-3.6139,-0.14447
-0.63062,-5.0798,6.9627,5.1191,-0.0033598,-3.5641,-0.13164
-0.75085,-4.3542,6.5116,4.6287,0.093157,-3.4914,-0.099266
-0.84778,-3.6677,6.6489,4.6484,0.22541,-3.4202,-0.054367
-0.91205,-3.0204,7.1392,4.668,0.35797,-3.3646,-0.0079412
-0.93729,-1.9025,6.6489,4.1972,0.47525,-3.3133,0.42272
-0.93353,-1.1376,6.3547,4.2365,0.55375,-3.2703,0.51435
-0.8913,-0.76492,7.1589,4.6484,0.58246,-3.2373,0.1237
-0.82605,-0.66685,7.7276,4.5111,0.56627,-3.2156,0.20036
-0.72604,0.17652,7.4334,3.7658,0.54306,-3.1948,0.28833
-0.61496,0.70608,6.5901,2.9028,0.57238,-3.1563,0.35094
-0.49924,1.4514,6.0213,2.687,0.66981,-3.109,0.37782
-0.39676,1.3533,5.7075,2.9028,0.79077,-3.0607,0.38454
-0.32617,0.82376,5.9624,3.2166,-2.5583,3.4328,0.076664
-0.24515,0.8826,5.9624,3.0793,-2.7706,3.3433,0.22266
-0.16336,1.0395,6.0017,2.8439,-2.952,3.2492,-0.70983
-0.11673,1.1376,6.0213,2.6674,-3.1163,3.1676,-0.60018
-0.062073,0.98067,6.3547,2.7655,-3.2883,3.0882,-0.45968
-0.0091553,0.23536,7.2961,3.0597,-3.4135,3.0064,-0.32193
0.037872,0.098066,7.7669,3.0008,-2.0876,2.9169,-0.22663
0.093414,-0.13729,7.7276,2.589,-2.3359,2.8143,-0.10324
0.15799,-0.27459,7.61,2.432,-0.281,2.7929,-1.8683
0.20676,-0.64724,8.0611,2.9028,0.013439,2.978,-2.014
0.24808,-1.3141,8.5318,3.295,0.33995,3.1676,-1.6802
0.29248,-2.0202,8.1591,3.0989,0.56719,3.3607,-1.7437
0.32126,-2.2359,6.9627,2.6282,0.61789,3.5378,-1.7379
0.32056,-2.7851,6.0997,2.432,0.49602,3.664,-1.6475
0.29382,-4.0992,7.61,3.9227,0.28039,3.7342,-1.6005
