0.72403,2.1378,-3.5108,8.316,-0.12737,-0.048564,0.012523
0.74982,2.0006,-3.4519,8.316,-0.10446,-0.040928,0.01069
0.77386,1.8437,-3.3931,8.2572,-0.084299,-0.021991,0.0067195
0.7728,1.824,-3.3931,8.1787,-0.062614,-0.007025,0.019242
0.76041,1.9025,-3.2362,8.218,-0.043677,-0.0045815,0.016188
0.74133,2.0006,-3.3146,8.2768,-0.019853,0.0064141,0.013439
0.70743,1.8633,-3.3931,8.2572,-0.00061087,0.016493,0.009163
0.67542,1.9221,-3.4519,8.2572,0.011606,0.017104,0.0085521
0.64081,1.8437,-3.5108,8.2572,0.019242,0.016799,0.010385
0.59656,1.9221,-3.3931,8.218,0.015577,0.016799,0.0094684
0.56937,1.8437,-3.3931,8.2572,0.0033598,0.010079,0.011606
0.54855,1.9221,-3.3931,8.1787,-0.018326,0.0018326,0.015272
0.5079,2.0006,-3.5304,8.218,-0.044593,-0.0036652,0.011912
0.48019,2.0202,-3.55,8.1199,-0.056505,-0.013744,0.0058032
0.44275,2.0594,-3.6873,8.0218,-0.051618,-0.018021,0.0039706
0.41135,2.3732,-3.7658,8.0022,-0.040623,-0.016188,0.0073304
0.37256,2.079,-3.7069,8.0022,-0.029322,-0.019548,0.022907
0.33804,2.2948,-3.5696,8.1787,-0.019548,-0.026267,0.020769
0.30988,2.2359,-3.55,8.218,-0.018021,-0.028405,0.0082467
0.28079,1.8633,-3.5304,8.2572,-0.025351,-0.030849,0.011912
0.25104,2.1378,-3.6873,8.1787,-0.038179,-0.036346,0.014661
0.2269,2.1182,-3.4519,8.1591,-0.052534,-0.045204,0.01405
0.20386,1.9809,-3.5304,8.0807,-0.065363,-0.052534,0.015577
0.18137,2.1182,-3.6285,8.2572,-0.083994,-0.057727,0.019853
0.18292,2.0202,-3.55,8.2572,-0.027794,-0.063835,0.0027489
0.15222,2.0006,-3.55,8.0807,-0.1124,-0.065668,-0.0009163
0.12024,2.1575,-3.5108,8.1199,-0.12431,-0.064752,0.016493
0.10651,2.0202,-3.5108,8.1003,-0.1127,-0.055589,0.011301
0.084412,2.0202,-3.6285,8.0022,-0.087659,-0.041844,0.010079
0.065521,2.1575,-3.7658,8.0807,-0.064141,-0.029016,0.01069
0.047791,2.1575,-3.6873,8.0611,-0.046426,-0.01405,0.0061087
0.034576,2.1771,-3.6285,8.0022,-0.03207,-0.0012217,0.0012217
0.032013,2.2359,-3.7265,8.0022,0.03543,0.13775,0.0033598
0.031891,2.0594,-3.7265,8.1787,-0.011912,-0.0024435,0.011912
0.064148,2.1771,-3.6285,8.218,0.0094684,-0.088575,-0.0097738
0.071594,2.1575,-3.5304,8.218,0.073609,-0.10629,-0.039401
0.091766,2.0202,-3.4519,8.218,0.135,-0.077885,-0.054062
0.11264,2.0202,-3.4519,8.0807,0.15944,-0.029627,-0.044593
0.12915,2.0594,-3.6285,7.9434,0.41325,0.025656,-0.024435
0.15128,2.1771,-3.8638,8.0022,0.17898,0.059865,-0.0085521
0.18604,2.2948,-3.7069,8.0611,0.064446,0.059559,-0.0061087
0.23358,2.2359,-3.55,8.0807,0.017715,0.043677,0.0036652
0.26596,2.2751,-3.5304,8.1787,-0.025656,0.026573,0.0054978
0.30902,2.1771,-3.5108,8.1787,-0.083383,0.013439,-0.012217
0.3287,2.0594,-3.7658,8.1003,-0.12492,-0.0030543,-0.017104
0.30374,2.1575,-4.5699,7.9434,-0.16035,-0.020464,-0.0064141
0.1731,2.687,-5.4133,7.5511,0.14813,-0.027184,-0.01069
-0.020233,2.6086,-4.158,7.7865,0.11393,-0.033903,-0.021991
-0.25027,1.8044,-2.0594,8.7083,-0.099876,-0.046426,0.007025
-0.4903,1.3337,-1.216,9.0417,-0.03879,-0.05681,0.015272
-0.74869,1.3925,-1.8829,9.0025,0.0033598,-0.043066,-0.002138
-0.96332,1.8044,-3.0401,8.4926,0.013439,-0.010079,-0.013134
-0.99997,2.334,-3.5304,8.1787,-0.013439,0.021686,-0.025656
-0.99997,2.1378,-3.0793,8.316,-0.079718,0.039095,-0.013439
-0.99997,2.0202,-2.687,8.4926,-0.18265,0.039706,0.0012217
-0.99997,2.1378,-2.687,8.4926,-0.15516,0.033292,0.0039706
-0.99997,1.9809,-2.7851,8.7083,0.15944,-0.032376,0.0067195
-0.99997,1.8633,-2.8439,8.5514,0.50457,0.014661,0.011606
-0.99997,2.1575,-3.0008,8.4926,0.88973,0.11698,-0.093768
-0.99997,2.0006,-3.2362,8.3945,1.1591,0.27092,-0.13744
-0.99997,2.2948,-3.1381,8.2768,1.2547,0.39095,-0.1405
-0.99997,2.0594,-2.8243,8.316,1.1912,0.43066,-0.10812
-0.99997,1.9221,-2.5105,8.5514,0.9951,0.38973,-0.06689
-0.99997,2.1182,-2.2751,8.4337,0.71135,0.28191,-0.027184
-0.99997,2.0006,-2.3144,8.5514,0.044288,0.043371,-0.020769
-0.99997,1.9613,-3.1577,8.5906,0.031765,0.052534,-0.018326
-0.99997,2.0006,-3.7265,8.1787,0.0085521,0.05284,-0.002138
-0.89413,2.0006,-4.0796,8.4926,-0.019242,0.045509,-0.0036652
-0.69785,2.0594,-3.7854,8.4337,-0.040012,0.039706,-0.0054978
-0.52261,2.0202,-3.2362,8.6299,-0.036957,0.033598,-0.012828
-0.37659,1.7652,-2.8243,8.7279,0.0030543,0.029322,-0.019242
-0.25491,1.9809,-3.1381,8.2572,0.080023,0.043677,-0.023518
-0.15909,2.1575,-3.6677,7.7865,0.14752,0.071777,-0.018631
-0.10538,2.4713,-4.158,7.6884,0.17013,0.094684,-0.0058032
-0.067139,2.6478,-4.5699,7.4334,0.15119,0.10812,-0.020769
-0.033234,2.6282,-4.5699,7.4727,0.10263,0.10537,-0.014966
-0.01004,2.2751,-4.0207,7.9434,0.03543,0.091935,-0.0088575
0.003418,2.2163,-3.2362,8.4141,-0.030849,0.071777,-0.010996
0.011475,1.7064,-2.9812,8.5514,-0.076053,0.046426,-0.017104
0.019592,2.0202,-3.197,8.4141,-0.092546,0.025656,-0.020769
0.013916,2.1182,-3.4519,8.2572,0.29749,0.13134,0.0064141
0.0049438,2.1378,-3.6873,8.0807,0.36469,0.1576,0.010996
0.0042419,2.2948,-3.6677,7.963,0.36285,0.15577,-0.018631
0.00027466,2.3732,-4.0207,8.0022,0.30391,0.12248,-0.029016
-0.0040588,2.1575,-3.7069,8.0611,0.219,0.077274,-0.021075
-0.0071106,2.1771,-3.6285,8.0807,0.11668,0.025045,-0.012217
-0.018036,2.2359,-3.6873,8.0807,0.0085521,-0.02138,-0.0097738
-0.024536,2.1575,-3.4127,8.1787,-0.082467,-0.060476,-0.0015272
-0.028351,2.0006,-3.55,8.2376,-0.17043,-0.084605,0.00061087
-0.016785,2.079,-3.8442,8.0807,-0.17685,-0.087659,-0.0015272
-0.012268,2.1771,-3.5304,8.0807,-0.16157,-0.07758,0.01405
0.0084229,2.0006,-3.3931,8.2376,-0.13103,-0.059865,0.012828
0.045471,2.0594,-3.4519,8.2572,-0.091019,-0.039706,0.011912
0.067688,2.2359,-3.5304,8.3945,-0.044593,-0.01741,0.011912
0.10178,2.1575,-3.6285,8.2376,0.0027489,0.0051924,0.010996
0.11624,2.2948,-3.6677,7.9434,0.035736,0.026267,0.0073304
0.13644,2.2359,-3.7265,7.9434,-1.6069,-0.27794,-1.4621
0.1666,2.1771,-3.7658,8.0611,-1.3937,-0.28405,-1.5577
0.19485,2.2163,-3.55,8.2768,-1.0739,-0.24771,-0.94165
0.19974,2.1182,-4.4522,8.0022,-0.71899,-0.11393,-1.0241
0.12738,2.687,-5.1191,7.6884,-0.40928,0.059865,-1.1313
-0.0066833,2.4517,-3.5304,8.4141,-0.208,0.24862,-1.237
-0.18521,1.6475,-1.6475,8.8652,-1.3738,0.416,-1.3014
-0.38983,1.4318,-1.1768,8.7868,-1.6017,0.54825,-1.368
-0.56339,1.5298,-1.8044,8.6299,-0.82406,-0.16188,0.095295
-0.69519,1.824,-2.2948,8.3945,-0.70647,-0.14569,0.095295
-0.7504,1.6671,-3.1381,8.5514,-0.50977,-0.09499,0.10537
-0.75732,2.1575,-4.3345,8.2768,-0.27886,-0.01069,0.078191
-0.72577,2.4517,-4.7072,7.963,-0.082467,0.073304,0.075747
-0.66748,2.1771,-3.9227,8.2572,0.029932,0.12584,0.085827
-0.61172,1.8633,-2.8832,8.5318,0.036346,0.13775,0.093768
-0.56851,1.7064,-2.7851,8.6299,-0.041844,0.11393,0.093768
-0.50632,1.5298,-3.55,8.8064,-0.18509,0.071777,-0.11209
-0.45056,2.4517,-4.4914,8.4141,-0.39584,0.0030543,-0.2251
-0.38553,2.2948,-5.2368,8.2376,-0.59071,-0.078802,0.081551
-0.2951,2.0006,-5.7467,7.8649,-0.6576,-0.11209,0.062003
-0.14349,2.3732,-5.1191,7.3746,-0.57574,-0.091935,0.032681
0.038544,2.4517,-4.0796,7.6296,-0.41905,-0.039095,-0.0012217
0.23019,2.2751,-3.6677,7.9238,-0.23763,0.0061087,-0.017715
0.42007,2.2751,-4.7856,8.4926,-0.011606,0.047647,-0.040623
0.61163,3.2558,-5.6486,7.2373,0.59437,0.12492,-0.48075
0.83337,4.3149,-6.5901,6.1193,0.73304,0.20433,-0.7761
0.99896,5.0602,-6.8254,5.7467,0.78313,0.28772,-0.2865
1,4.9622,-6.3351,6.0801,0.6692,0.3427,-0.2645
1,4.3345,-5.2368,6.2959,0.013134,0.33903,-0.23182
1,4.158,-4.158,6.747,-0.89675,0.34056,-0.23243
1,3.8638,-3.6677,7.0019,0.20617,0.24465,-0.24893
1,4.0207,-4.0403,6.9823,0.40042,-0.10812,-0.28955
1,4.0207,-4.5699,6.6685,0.45509,-0.22633,0.40317
1,4.0403,-5.6486,6.6685,0.6408,-0.15852,0.41447
1,3.7069,-5.5898,6.9235,0.78099,-0.071166,0.20586
1,3.5696,-5.4917,7.0019,0.88911,0.037874,0.24618
1,3.3146,-5.3544,7.2373,0.9615,0.16738,0.29108
1,3.2166,-5.2956,7.1589,0.97066,0.31673,0.33262
1,3.1774,-5.1191,7.3158,0.95234,0.48472,0.35827
1,2.8635,-4.5699,7.5903,0.88362,0.59407,0.3769
1,2.6086,-4.158,7.6884,-0.21044,0.5452,-0.61209
1,2.3732,-3.9815,7.8453,-0.25626,0.4945,-0.55192
1,1.8633,-3.8834,8.0022,-0.32254,0.44838,-1.0666
1,1.824,-3.6677,8.1003,-0.39645,0.39951,-0.97677
1,1.6867,-3.1381,8.218,-0.47067,0.35155,-0.89156
1,1.9221,-2.8243,8.1003,-0.53237,0.30818,-0.81153
1,1.824,-2.432,8.0807,-0.57269,0.26725,-0.7422
1,1.7456,-2.3144,8.2376,-0.59743,0.23763,-0.67562
1,2.0006,-2.4909,7.9434,-0.5565,0.22113,-0.16738
1,2.1771,-2.7851,8.2376,-0.47037,0.21716,-0.11973
1,2.7851,-3.2362,8.0022,-0.3488,0.2251,-0.49144
1,3.0008,-3.4127,8.1003,-0.22022,0.24099,-0.42822
1,3.0793,-3.2558,8.2376,-0.11515,0.25473,-0.36469
1,2.8439,-3.1381,8.4141,-0.0562,0.25473,-0.30665
1,2.9028,-3.1381,8.6299,-0.039706,0.23671,-0.25687
1,3.4716,-3.0989,8.7083,-0.053145,0.2025,-0.21289
0.99469,4.0403,-3.0793,8.8652,-0.091935,0.1518,0.14508
0.9397,4.4326,-3.3931,8.6887,-0.14019,0.092852,0.17501
0.87567,4.7268,-3.8638,8.1199,-0.17226,0.029322,-0.072693
0.80307,5.1387,-4.1384,7.4923,-0.1741,-0.041844,-0.024129
0.72119,5.1975,-4.1972,7.0216,-0.14233,-0.11698,0.023518
0.59253,4.8053,-3.3146,6.3351,-0.069944,-0.18112,0.061697
0.42212,4.5699,-2.3144,5.4917,0.062003,-0.22907,0.087354
0.23901,4.0011,-2.6086,5.8252,0.24801,-0.25107,0.1127
0.043335,3.0204,-4.5699,6.6489,-0.13867,0.025045,-0.047953
-0.13287,3.2558,-6.6685,7.2765,-0.075136,0.062919,-0.097433
-0.29443,3.2558,-6.4528,8.2572,-0.0067195,0.11545,0.074831
-0.47717,2.0594,-4.8053,8.7083,0.01741,0.15974,0.070555
-0.69531,1.5298,-2.9028,9.0221,-0.030238,0.17501,0.075442
-0.93219,1.0199,-1.9613,8.8652,-0.13378,0.15516,0.07086
-0.99997,0.45111,-1.5298,8.316,-0.25351,0.11423,0.048869
-0.99997,0.23536,-2.0594,8.4926,-0.32742,0.094073,0.0082467
-0.99997,0.13729,-2.589,8.3945,-0.31796,0.11637,-0.06353
-0.99997,-0.13729,-2.3732,8.6887,-0.24282,0.17746,-0.048564
-0.99997,-0.039227,-2.5301,8.7868,-0.16066,0.23885,-0.12217
-0.99997,0.098066,-3.0401,8.7083,-0.094684,0.26084,-0.12462
-0.99997,0.56879,-3.6873,8.2768,-0.043982,0.24923,-0.11698
-0.99997,1.2356,-3.5108,8.4141,-0.030238,0.22205,-0.10232
-0.99997,1.824,-2.8439,8.5318,-0.05284,0.18601,-0.09163
-0.99997,2.079,-2.4713,8.6299,-0.10934,0.1405,-0.081856
-0.99997,2.0006,-2.9028,8.4141,-0.32712,0.081856,-0.12767
-0.99997,2.3732,-3.2166,8.1787,-0.31979,0.015882,-0.13317
-0.99997,2.2948,-2.9224,8.1199,-0.27184,-0.030849,-0.056505
-0.99997,1.9613,-2.6086,8.5514,-0.23091,-0.041233,-0.084299
-0.99997,2.0006,-2.432,8.9437,-0.22266,-0.031765,-0.10812
-0.99997,1.6671,-2.4517,9.1986,-0.2251,-0.029932,-0.11668
-0.99997,1.7064,-2.9028,9.0417,-0.19242,-0.048258,-0.11148
-0.99997,1.6867,-2.7851,8.8652,-0.27794,-0.075442,-0.11148
-0.99997,1.6083,-2.687,8.9437,-0.21747,-0.090103,-0.099876
-0.99997,1.3337,-2.6282,8.7083,-0.30207,-0.089186,-0.074831
-0.99997,1.5495,-2.3144,8.5514,-0.42791,-0.092241,-0.10507
-0.99997,1.6867,-1.9809,8.7083,-0.50916,-0.11759,-0.065057
-0.99997,1.824,-2.432,8.6299,-0.47464,-0.16707,-0.041844
-0.99997,2.079,-2.942,8.1787,-0.35308,-0.208,-0.051313
-0.99997,2.3732,-3.3539,8.0022,-0.20678,-0.19181,-0.085521
-0.99997,2.1182,-2.8439,8.5514,-0.19181,-0.12523,-0.10934
-0.99997,2.2163,-2.3732,8.9044,-0.16493,-0.10812,0.064141
-0.95068,1.9809,-2.4713,9.434,-0.17379,-0.11087,0.076358
-0.87717,2.1378,-2.7459,8.8848,-0.13775,-0.10171,0.071777
-0.81345,2.432,-3.197,8.6299,-0.076358,-0.080023,0.067195
-0.75159,2.432,-3.197,8.3945,-0.039706,-0.067806,0.067806
-0.6911,2.4517,-2.9224,8.1787,-0.013439,-0.050702,0.06017
-0.63498,2.1575,-2.687,8.4729,0.0088575,-0.020464,0.040623
-0.60983,2.2359,-2.5105,8.5906,0.025962,-0.0027489,0.044288
-0.5881,2.1575,-2.942,8.3945,0.022297,-0.015272,-0.082161
-0.59476,2.687,-2.9028,8.218,0.04612,-0.02138,-0.11148
-0.60358,2.7459,-2.7459,8.2572,0.078191,-0.020159,0.053451
-0.62079,2.4517,-2.7262,8.4926,0.12278,-0.0082467,0.014355
-0.65234,2.2359,-2.9028,8.8064,0.16218,0.0064141,-0.016188
-0.69327,2.6086,-2.9224,8.4926,0.20433,-0.0067195,-0.030543
-0.74332,2.687,-2.8243,8.316,0.26237,-0.026878,-0.037263
-0.79724,2.8635,-3.0793,8.0807,0.27428,-0.040928,-0.061392
-0.84732,2.7459,-3.0597,8.2572,0.26695,-0.057727,-0.11912
-0.88953,2.7655,-3.0989,8.1787,0.25626,-0.077274,-0.11332
-0.92654,2.8635,-3.3146,8.4926,0.22449,-0.088575,-0.14111
-0.94562,2.9224,-2.942,8.3357,0.16829,-0.097128,-0.14111
-0.95657,2.5693,-3.0597,8.5318,0.10324,-0.11484,-0.13408
-0.97229,2.8047,-3.3931,8.6299,0.041539,-0.13958,-0.13592
-0.9704,2.7851,-3.3931,8.9044,-0.011301,-0.16707,-0.13256
-0.95544,2.7851,-3.2362,9.1594,-0.046731,-0.19731,-0.12462
-0.9425,3.0204,-3.1381,9.1006,-0.099876,-0.047953,0.069333
-0.92468,3.0597,-2.8243,8.9437,-0.10263,-0.085521,0.072998
-0.90326,2.6478,-2.4517,8.7083,-0.12523,-0.12828,0.012828
-0.89423,2.4517,-2.3732,8.3749,-0.14905,-0.15638,0.0015272
-0.87863,2.5497,-2.432,8.3749,-0.15424,-0.16035,-0.0064141
-0.86404,2.6086,-2.6282,8.0807,-0.14569,-0.15058,0.011912
-0.84222,2.589,-2.6086,7.8649,-0.13439,-0.13011,0.037263
-0.8175,2.5497,-2.7262,7.5903,-0.14172,-0.1124,0.054978
-0.78973,2.8635,-2.589,7.963,-1.8173,-0.81795,0.060476
-0.76624,2.8047,-2.4517,8.2768,-1.2782,-0.68386,0.10629
-0.75369,2.7459,-2.3732,8.1787,-0.79382,-0.52076,-0.049786
-0.7699,2.7851,-2.4713,7.7669,-0.32712,-0.36377,-0.084299
-0.81415,2.6478,-3.0989,7.5315,0.17349,-0.18815,-0.07758
-0.85785,2.7066,-3.5108,8.8652,0.68539,0.017715,-0.073609
-0.9024,2.8635,-3.2558,9.6694,1.0736,0.20189,-0.072388
-0.95111,2.687,-2.9028,10.199,1.2465,0.30024,-0.019242
-0.99295,2.589,-2.6282,10.199,0.85888,0.33689,-0.0009163
-0.99997,2.2359,-2.3732,9.8066,0.61606,0.36102,-0.045509
-0.97986,2.5497,-2.432,9.179,0.45296,0.36835,0.12675
-0.9198,3.3343,-2.7459,8.6299,0.41722,0.3656,0.16035
-0.8038,3.8638,-3.3146,8.2572,0.59804,0.35827,0.20433
-0.65277,4.0403,-3.3146,7.61,1.0299,0.32101,0.23274
-0.47696,3.805,-3.3735,7.1589,1.2428,0.36408,0.21258
-0.31161,3.5696,-3.197,6.6881,1.1051,0.58887,0.11759
-0.16913,3.6285,-3.4519,5.8055,3.4755,0.94959,-0.1912
-0.063263,3.9423,-4.4718,5.1779,1.8741,1.3882,-0.25259
0.024109,4.1188,-5.4525,4.6484,2.6206,1.7849,-0.015272
0.091675,4.2169,-7.2961,4.1972,3.2837,2.0385,0.069028
0.16208,4.9622,-7.7669,4.0011,3.7547,2.1576,0.13592
0.24725,4.7268,-7.2177,4.0992,4.0375,2.1756,0.11087
0.31656,3.8638,-5.7663,4.6484,4.1062,2.1261,0.016188
0.34274,3.1774,-4.8053,5.4133,3.9059,2.025,-0.10079
0.35925,3.1774,-4.0796,5.6094,-2.682,-0.97158,-0.067806
0.34006,3.4127,-3.7265,5.276,-2.7046,-0.96731,-0.028405
0.31586,2.8439,-4.8837,4.6484,-2.7776,-0.96944,-0.099571
0.28555,3.5304,-6.8058,2.5693,-2.8876,-0.97983,-0.04948
0.29654,4.2561,-7.2373,3.1577,-2.9569,-1.0192,-0.016188
0.31223,3.4127,-6.0409,4.9426,-2.9141,-1.0351,-0.019242
0.3045,2.589,-4.9229,7.0019,-2.7223,-0.98624,-0.05681
0.25726,2.0202,-3.6088,8.9044,-2.3494,-0.90958,-0.090408
0.18112,1.8633,-2.3144,9.9832,-0.64935,0.93798,-0.26573
0.073883,2.2359,-2.3144,10.689,-1.9551,-0.23243,-0.11454
-0.038422,3.2754,-2.9812,9.5713,-2.0876,-1.2364,0.31032
-0.1022,4.0403,-3.0793,9.1202,-1.354,-1.5467,0.061087
-0.10669,3.7069,-1.7848,9.5125,-0.25534,-1.3228,-0.49205
-0.090942,2.942,-0.27459,9.6497,0.65851,-0.83536,-0.8769
-0.0784,2.2359,0.52956,9.8066,1.0369,-0.39676,-0.81123
-0.078674,2.1771,-0.23536,9.5713,0.83414,-0.19792,-0.52229
-0.045349,1.7064,-1.471,9.8851,0.21258,-0.28405,-0.44838
0.016846,1.0591,-2.7459,9.3752,-0.54795,-0.56108,-0.29688
0.1217,1.2945,-3.0597,8.3945,-1.1515,-0.86651,-0.11942
0.22687,1.4906,-2.6282,7.708,-1.376,-1.087,-0.22602
0.32248,1.0199,-1.9025,8.0807,-1.1939,-1.1387,-0.36224
0.40195,0.078453,-2.1967,8.3357,-0.72265,-0.99388,-0.49663
0.47552,0.60801,-3.0793,8.4141,-0.12339,-0.70341,-0.57208
0.55307,1.0199,-3.6285,8.1003,0.43738,-0.34911,-0.55192
0.61758,0.96105,-3.4127,8.7083,-0.039095,0.36469,0.09163
0.67383,1.1964,-2.687,9.787,-0.14752,0.28191,0.11057
0.69113,1.2945,-3.3931,11.14,-0.2135,0.23366,0.12523
0.69705,2.4713,-5.3348,11.513,-0.17165,0.23702,0.06353
0.61719,4.5699,-5.0995,7.4531,-0.015882,0.27122,0.023824
0.31992,5.1975,-0.39227,5.1191,0.20128,0.30604,0.022297
-0.20218,-1.6083,4.4522,15.22,0.39492,0.31673,0.040623
-0.80814,-2.432,-2.3536,10.513,0.49572,0.28924,0.069028
-0.99997,2.5497,-6.0801,7.61,0.45112,0.20525,0.085216
-0.99997,2.9224,-4.3934,8.218,0.38882,0.065363,0.19487
-0.99997,0.2942,0.078453,9.9439,0.51313,-0.085216,0.098655
-0.99997,0.25497,1.1768,9.4732,0.81551,-0.19273,0.013134
-0.89484,1.4906,-0.49033,7.7865,1.3186,-0.17135,-0.065973
-0.728,2.6086,-2.432,6.237,1.9667,0.11118,-0.097128
-0.49393,3.7069,-2.9028,6.2959,2.1279,0.63347,-0.067806
-0.23438,3.2558,-1.6475,7.3354,1.1649,1.1536,0.051007
0.0041809,2.4713,-0.33343,8.2376,-0.069639,-0.15485,-0.13317
0.17783,2.334,0.21575,8.3749,-0.026267,-0.13347,-0.12675
0.29382,2.1771,0.039227,8.4141,0.0067195,-0.10751,0.0085521
0.34967,1.8633,-1.0983,9.1202,0.014966,-0.092852,0.0048869
0.3649,2.0202,-2.2751,8.9437,0.013134,-0.094684,0.00030543
0.33951,1.8633,-2.8243,8.4141,0.047037,-0.11332,-0.018021
0.3136,1.824,-2.7655,8.6299,-0.10599,-0.12187,-0.047647
0.27747,1.6083,-2.6086,9.4928,-0.097433,-0.097128,-0.094684
0.22928,1.7064,-2.7262,10.003,-0.31734,0.034514,0.035125
0.16623,2.1771,-2.942,9.6497,-0.30849,0.04948,0.022907
0.11343,2.3732,-2.5105,8.7475,-0.24679,0.069028,0.16432
0.072723,2.6086,-1.5102,7.8649,-0.18692,0.050091,0.16524
0.037445,2.0006,-1.0199,7.6884,-0.16952,0.024129,0.19395
0.016724,1.4318,-1.1768,7.9434,-0.066279,0.056505,0.13958
0.0036926,1.7456,-2.6674,9.0417,0.027489,0.080634,0.019548
0.019592,2.5693,-2.9028,9.5713,0.069639,0.084299,0.0097738
0.081421,2.6478,-2.5693,9.8066,0.079412,0.067806,0.015272
0.14044,2.2359,-1.7848,9.5125,0.062003,0.018631,0.039095
0.18689,2.2163,-1.6475,9.4928,0.038179,-0.041233,0.015577
0.23004,2.0006,-1.7456,9.0221,0.0018326,-0.094073,0.019548
0.24475,2.0202,-2.0398,8.8064,-0.057421,-0.13989,0.020769
0.25314,2.1378,-2.0006,8.6299,-0.11362,-0.18143,0.018021
0.2319,1.8633,-2.0986,8.8848,-0.13225,-0.19884,0.016799
0.2045,1.9613,-2.1967,8.8652,-0.12675,-0.18051,0.011912
0.18503,2.079,-2.1378,9.0613,-0.096517,-0.15333,0.072998
0.15863,2.2359,-2.6086,8.9633,-0.10843,-0.13011,0.038485
0.12497,2.1575,-2.6086,8.8064,-0.13225,-0.11973,0.063225
0.099091,2.1575,-2.6086,8.7475,-0.14294,-0.12553,0.080329
0.069763,2.0594,-2.6086,8.6299,-0.12706,-0.13531,0.087048
0.042084,2.5497,-2.3144,8.5514,-0.11423,-0.1405,0.078191
0.007782,2.3732,-1.5887,8.5906,-0.11851,-0.14294,0.068417
-0.041626,2.0006,-1.3337,8.8652,-0.10507,-0.15638,0.071166
-0.09613,2.1771,-1.6475,8.8652,-0.021075,0.0033598,0.0042761
-0.13528,2.5497,-2.7459,8.7083,-0.06017,-0.012523,-0.00030543
-0.16766,2.7851,-2.7655,8.6299,-0.066584,-0.009163,-0.012828
-0.18869,2.687,-2.6086,8.5514,-0.059865,-0.0048869,-0.0042761
-0.23465,2.2948,-2.0006,8.7868,-0.05681,0.00061087,0.00030543
-0.276,2.334,-1.7456,8.8064,-0.053451,0.0088575,-0.0039706
-0.3063,2.334,-1.6867,8.7083,-0.047953,0.020464,-0.002138
-0.33142,2.4517,-1.7456,8.6887,-0.038485,0.029932,0.0030543
-0.37277,2.4517,-1.9025,8.4926,-0.026267,0.033598,-0.030238
-0.39066,2.2359,-1.726,8.8652,-0.023213,0.032987,-0.026267
-0.39926,2.2751,-1.5691,9.0613,-0.033903,0.01741,-0.013134
-0.39996,2.1575,-1.6867,9.0025,-0.036957,0.0051924,-0.028405
-0.39334,2.2948,-2.0594,8.8652,-0.017715,0.0073304,-0.046426
-0.37158,2.2948,-2.1182,8.9044,0.0097738,0.012217,-0.050091
-0.35944,2.3732,-2.1967,8.8456,0.017715,0.0061087,-0.040012
-0.31406,2.4713,-2.1378,9.0417,0.002138,-0.007025,-0.030849
-0.28397,2.3732,-2.1967,9.0417,-0.064752,-0.020464,-0.020464
-0.26617,2.2751,-2.1378,9.0025,-0.099876,-0.03543,-0.03146
-0.23969,2.4517,-1.9613,8.8652,-0.11515,-0.044593,-0.020769
-0.21579,2.2751,-1.7848,8.8064,-0.10263,-0.045204,-0.019853
-0.20013,2.2948,-1.8044,8.5514,-0.092241,-0.033903,-0.01741
-0.17279,2.432,-1.9809,8.5906,-0.1066,-0.020464,-0.014355
-0.15222,2.7066,-1.9417,8.5514,-0.11393,-0.017715,-0.009163
-0.12946,2.5497,-2.1967,8.7083,-0.096822,-0.02138,-0.0097738
-0.096161,2.3732,-2.3144,8.8064,-0.069028,-0.013439,0.011606
-0.072571,2.4713,-2.2948,8.8652,-0.034208,0.0033598,0.019548
-0.040222,2.4517,-1.9809,9.0613,0.0033598,0.019853,-0.032681
-0.020752,2.1575,-2.0006,8.9437,0.022297,0.028711,-0.018326
0.0080261,2.432,-2.0594,8.7279,0.028405,0.021991,0.0030543
0.0049438,2.2948,-1.9613,8.7279,0.023824,0.0067195,0.019853
0.012665,2.2359,-2.0594,8.5318,0.0097738,-0.0076358,0.023518
0.0037537,2.3732,-2.2163,8.4729,-0.0045815,-0.013134,0.015577
-0.0063171,2.1378,-2.1575,8.6299,-0.024129,0.01069,0.016493
-0.0040283,2.1771,-2.0594,8.9437,-0.10721,-0.033903,0.015272
0.0086365,2.2163,-1.9417,8.9044,-0.14386,-0.049786,0.040317
0.0081177,2.1575,-1.824,9.1006,-0.12095,-0.032987,0.0073304
0.018097,2.432,-1.8437,8.8652,-0.058032,0.0054978,-0.012217
0.037781,2.6282,-2.0398,8.8064,0.0076358,0.044899,-0.0094684
0.052826,2.334,-1.9809,8.7083,0.049786,0.067501,0.00030543
0.066132,2.2359,-2.0594,8.6887,0.055894,0.063835,0.009163
0.06665,2.3732,-1.9613,8.5514,-0.040012,0.043371,-0.007025
0.064728,2.4713,-2.1575,8.6299,-0.05284,0.022602,0.015882
0.073517,2.2948,-2.432,8.8064,-0.041233,0.013134,0.0015272
0.087891,2.5497,-2.2751,8.8848,-0.0079412,0.0082467,-0.007025
0.11237,2.2359,-1.9809,8.9437,0.031154,0.0058032,-0.0079412
0.13696,2.0006,-1.6867,9.0613,0.043066,0.010996,-0.011606
0.13818,2.1771,-1.8044,9.0613,0.029932,0.031765,-0.01741
0.16516,2.1771,-2.1378,8.8064,-0.010385,0.049175,-0.021075
0.15466,2.3732,-2.2751,8.5514,-0.11484,0.047342,-0.0039706
0.15811,2.3732,-2.0006,8.7475,-0.15882,0.027794,0.0076358
0.15375,2.2359,-1.8829,8.9437,-0.15852,-0.0024435,0.025656
0.16272,2.2359,-1.9809,8.8456,-0.10965,-0.023213,0.020464
0.16348,2.2948,-2.0986,8.9044,-0.037874,-0.025962,0.016799
0.17365,2.3732,-2.0986,8.8652,0.029932,-0.0082467,0.011301
0.21017,2.3732,-2.0594,8.8064,0.012523,0.024129,-0.0054978
0.2254,2.0594,-1.8044,8.8652,-0.049175,0.058032,-0.013439
0.23264,2.2359,-1.8829,8.7475,0.014966,0.07758,-0.022602
0.23041,2.1575,-2.2751,8.4926,-0.032987,0.073609,-0.012217
0.22842,2.334,-2.3732,8.7475,-0.08491,0.05284,0.010079
0.23642,2.2948,-2.0594,8.8456,-0.11912,0.03207,-0.0030543
0.2244,2.2948,-1.824,9.0025,-0.11637,0.0054978,-0.011606
0.22037,2.2948,-1.824,8.9437,-0.086437,-0.017715,-0.0033598
0.19644,2.3732,-2.1378,8.8064,0.069028,-0.025351,-0.010079
0.19183,2.4517,-2.2555,8.7083,0.057727,-0.016799,-0.02474
0.18961,2.2359,-2.1967,8.5514,-0.046731,-0.0051924,0.015577
0.17944,2.2751,-2.3144,8.9437,-0.038179,-0.0018326,0.0058032
0.20523,1.9221,-2.0594,9.0417,-0.023824,0.0036652,0.012217
0.19821,2.2948,-2.3732,8.8652,-0.015882,0.010079,0.0094684
0.2146,2.3732,-2.0986,8.8652,-0.018326,0.016188,0.0088575
0.21906,2.0006,-1.9417,8.8652,-0.033292,0.016188,0.012217
0.22266,2.2948,-1.8829,8.8848,-0.044288,0.0097738,0.020159
0.22311,2.2948,-2.1575,8.8064,-0.042761,0.0061087,0.023518
0.2243,2.1771,-2.2751,8.8064,-0.031765,0.010079,-0.0042761
0.23114,2.2948,-2.2751,8.8064,-0.016493,0.018021,0.002138
0.24414,2.334,-2.0006,8.8652,-0.012523,0.034514,0.0030543
0.24631,2.3732,-2.0986,8.8064,-0.020464,0.039706,0.0042761
0.26935,2.1182,-2.0594,8.8456,-0.025045,0.033598,0.0045815
0.29089,2.2751,-2.1575,8.7475,-0.015882,0.029627,-0.00030543
0.30338,2.1575,-2.0986,8.7083,0.0030543,0.033903,-0.010079
0.32178,2.2163,-2.0006,8.8652,0.0076358,0.041844,-0.011606
0.36111,2.2359,-2.0986,8.8064,-0.010079,0.048869,-0.047342
0.38422,2.3732,-2.3536,8.7475,-0.031765,0.053145,-0.032376
0.41019,2.432,-2.1575,8.7083,-0.050702,0.051007,0.0051924
0.43063,2.2751,-1.9809,8.6299,-0.072693,0.061392,0.0051924
0.44781,2.2948,-2.1182,8.7475,-0.071777,0.083383,-0.0073304
0.45547,2.4517,-2.4517,8.6299,-0.013134,0.09163,-0.0281
0.46677,2.4517,-2.3144,8.7083,0.079412,0.11057,-0.043677
0.45975,2.4517,-2.1575,8.8064,0.15516,0.15241,-0.052229
0.45044,2.1182,-2.1575,8.8652,-0.039095,0.012828,0.014661
0.44809,2.1575,-2.1378,8.8456,-0.027794,0.014355,0.015272
0.44986,2.2948,-1.9809,8.8652,-0.018631,0.01741,0.0027489
0.45621,1.9613,-2.1378,8.7083,-0.01741,0.018631,0.0030543
0.46118,2.4517,-2.432,8.316,-0.025656,0.012828,0.0079412
0.46906,2.3732,-2.7851,8.2572,-0.037874,0.0024435,0.010996
0.48431,2.1575,-2.432,8.7279,-0.043677,-0.0039706,0.013134
0.46188,2.1771,-2.1967,8.7083,-0.045509,-0.0058032,0.013744
0.42465,2.2359,-2.1967,8.3945,0.18387,0.087048,-0.0088575
0.36661,2.0006,-2.0594,9.2575,0.058338,0.28527,0.019853
0.31326,1.4906,-1.8044,10.297,-0.1127,0.39645,0.13256
0.22827,1.6867,-1.6867,9.8066,-0.23793,0.39554,0.13592
0.12405,2.334,-1.5102,8.8848,-0.28588,0.32406,0.11942
-0.020386,2.0594,-1.6475,7.9434,-0.28039,0.25504,0.047037
-0.19116,2.4909,-2.1967,5.3937,0.015577,0.2138,-0.025045
-0.36957,1.6671,-2.0594,9.3359,0.17349,0.18631,-0.040928
-0.53815,1.0787,-2.0594,12.082,0.021075,0.15791,-0.019548
-0.69275,1.8437,-0.68647,10.944,0.17226,0.13653,-0.036652
-0.83984,1.7652,1.4122,8.2572,0.26634,0.1292,0.033598
-0.9552,1.3729,0.84337,7.61,0.25565,0.13378,0.037874
-0.99997,2.7066,-1.6671,5.9821,0.15302,0.13439,0.042761
-0.99997,2.1575,-4.3345,9.8066,0.018021,0.11698,0.052229
-0.99997,2.1575,-3.0401,13.827,-0.22938,0.066279,0.049786
-0.99997,1.0591,-0.39227,13.455,-0.1237,0.0015272,0.018937
-0.99997,2.079,0.92183,9.8066,-0.80604,-0.1011,0.092852
-0.99997,2.2948,0.21575,7.0019,-1.0333,-0.17074,0.011301
-0.99997,2.2948,-1.118,5.9821,-0.68539,-0.12828,-0.054978
-0.99997,2.0202,-2.3732,6.2959,0.034208,0.040928,-0.12339
-0.99997,2.3928,-2.3732,7.0019,0.8039,0.2926,-0.042455
-0.99997,2.5497,-1.6475,7.9238,1.1518,0.33995,0.018631
-0.99997,1.9221,-2.0398,9.179,0.99418,0.11332,0.036041
-0.99997,2.0202,-2.2751,9.6301,0.60292,-0.22235,0.096517
-0.99997,2.3732,-2.2555,9.6694,-0.5849,-0.52657,0.10263
-0.89334,2.1575,-2.2948,9.5125,-0.75961,-0.72021,0.13378
-0.63284,2.1378,-1.9809,9.6694,-0.79535,-0.78527,-0.021686
-0.38748,1.9809,-1.5102,9.6301,-0.71349,-0.7419,0.011606
-0.19604,2.0202,-1.216,9.434,-0.52809,-0.64691,0.031154
-0.042816,2.0006,-1.1768,9.0417,-0.25504,-0.51862,0.03543
0.067841,1.9221,-1.5102,8.8456,0.14783,-0.34392,0.055283
0.14478,2.1575,-1.9417,8.8456,-0.27184,-0.14019,0.07422
0.20602,2.2751,-1.9809,8.7083,-0.33872,-0.12278,0.089186
0.26456,1.9221,-1.7456,8.8064,-0.35308,-0.15913,0.081856
0.31528,2.0006,-1.1964,8.7279,-0.25962,-0.1573,-0.041844
0.33347,1.9221,-1.0591,8.8064,-0.082772,-0.097433,-0.087965
0.35056,2.0594,-1.3533,8.8064,0.11393,0.010996,-0.10873
0.37057,2.1378,-1.6475,9.3359,0.23305,0.12278,-0.090408
0.39081,2.0594,-1.3533,9.4928,0.23335,0.19273,-0.028405
0.37375,2.0202,-1.6671,9.3752,0.13806,0.1909,0.04612
0.27188,2.687,-2.8243,6.747,0.051007,0.12981,0.0051924
0.15268,2.1378,-2.9028,9.9832,0.065973,0.045204,0.029016
0.029846,0.8826,-1.6867,12.768,-0.082772,-0.018326,0.047647
-0.070557,1.3729,-1.0591,11.788,-0.17868,-0.041844,0.016188
-0.15329,2.334,-0.72569,7.9434,-0.19975,-0.035125,0.0088575
-0.19556,1.7456,-1.1768,6.6685,-0.15882,-0.0033598,0.0054978
-0.18729,2.1575,-1.7456,7.4531,-0.081856,0.04215,-0.017715
-0.1171,2.0202,-1.9809,8.6887,0.0009163,0.073304,-0.024435
0.0097961,1.9613,-1.5102,9.6694,-0.075136,-0.17898,-0.049175
0.14285,1.6671,-0.86299,9.9832,0.12034,-0.04948,-0.10934
0.2337,2.0594,-1.2749,9.3359,0.25168,0.041539,-0.17257
0.29581,2.3928,-1.9025,8.6887,0.28863,0.071777,-0.079107
0.3158,2.4517,-1.6475,8.6495,0.21716,0.047953,-0.015882
0.30991,2.3732,-1.3533,9.0417,0.057421,-0.020159,0.013439
0.24924,2.1771,-0.70608,9.0417,-0.10996,-0.1179,0.018326
0.19519,2.2359,-0.8826,8.8652,-0.20403,-0.19548,0.00030543
0.14102,2.7459,-1.824,8.3357,-0.14111,-0.20067,0.010996
0.096008,2.9616,-2.5105,8.2376,-0.0033598,-0.14813,-0.0058032
0.072876,2.7655,-1.9809,8.6887,0.12981,-0.069639,-0.12828
0.062225,2.0006,-1.1572,9.0417,0.17501,-0.0018326,-0.085521
0.040192,1.7064,-1.0395,9.2575,0.13073,0.026267,-0.018631
0.030426,1.7456,-1.2553,9.1202,0.026878,0.019853,0.01741
0.042572,2.1182,-2.1182,8.8848,-0.10599,-0.011912,0.028711
0.06311,2.2359,-1.8829,9.0417,-0.24038,-0.064752,0.025045
0.071106,2.1575,-1.5298,9.2183,0.18784,0.27611,-0.050396
0.088928,2.2948,-1.3141,9.1594,-0.13958,-0.019548,-0.098349
0.076721,2.6086,-1.6279,8.7279,-0.26756,-0.35583,0.011912
0.060364,2.8635,-2.0594,8.3945,-0.24251,-0.5568,-0.0082467
0.053864,2.6086,-1.9809,8.5318,-0.19426,-0.57544,0.0024435
0.037994,2.0202,-1.8044,9.0025,-0.20311,-0.45509,0.0036652
0.025604,1.9221,-1.6475,8.9437,0.94501,-0.29444,-0.0094684
0.0032959,1.9613,-1.216,8.7083,0.63163,-0.16402,-0.030238
-0.02832,1.8437,-1.2553,8.4926,0.1741,0.076358,-0.095906
-0.069611,2.1182,-1.7456,8.4141,0.28375,0.047953,-0.10446
-0.096985,1.8437,-2.0594,8.9044,0.38271,0.022907,-0.056505
-0.14029,1.824,-1.8829,9.5321,0.43066,-0.0015272,-0.023213
-0.18539,1.4318,-1.8829,9.8459,0.3879,-0.017104,-0.026878
-0.2446,1.5298,-2.0006,9.8459,0.26573,-0.023213,-0.046731
-0.28397,1.6671,-1.3533,10.14,0.13042,-0.01741,-0.078496
-0.3121,1.7064,-0.8826,10.356,0.035736,0.034514,-0.098655
-0.34979,2.4517,-0.5884,8.8652,0.57971,0.15944,0.0082467
-0.4483,2.2751,-0.39227,7.0608,0.66676,0.28039,0.066279
-0.57211,2.2948,-0.43149,6.8254,0.55131,0.27184,-0.1237
-0.77051,1.2945,-1.3533,11.454,0.28711,0.16463,-0.13653
-0.90991,2.687,-1.0591,12.474,0.054367,0.030849,-0.15119
-0.99997,2.4517,0.54917,9.2183,-0.080023,-0.094073,-0.146
-0.99997,2.1575,1.4906,6.2959,0.12523,-0.16677,-0.1124
-0.99997,1.4318,0.68647,6.5508,0.39156,-0.15088,-0.059559
-0.99997,1.6083,-1.8829,8.0218,-0.36285,-0.041844,-0.20036
-0.99136,1.7456,-4.5699,11.376,-0.46731,0.10965,-0.055283
-0.88214,1.9613,-2.1967,12.984,-0.37141,0.1124,0.092852
-0.79306,1.6475,0.84337,12.611,-0.12981,0.12278,0.10629
-0.75006,2.334,0.62763,9.9832,0.35522,0.20281,0.0094684
-0.72549,3.0989,-0.31381,7.61,0.84055,0.19456,-0.12187
-0.69897,2.8635,-0.86299,7.0019,-0.1463,0.25565,-0.19884
-0.64432,2.687,-1.2553,7.0019,-0.19334,0.36041,-0.23946
-0.57751,2.5497,-1.3141,8.0022,0.19975,0.0054978,0.14508
-0.46323,2.4517,-1.3533,8.316,0.28772,0.085521,0.17104
-0.36234,1.9613,-1.118,8.0022,0.2135,0.075442,-0.047342
-0.2803,1.8044,-1.2553,7.8649,0.028405,0.0064141,-0.0076358
-0.19604,1.8044,-1.5102,8.4926,-0.2135,-0.083994,0.033598
-0.14127,1.5298,-1.0199,9.8066,-0.40928,-0.15333,0.073915
-0.12384,0.60801,-0.70608,10.12,-0.48258,-0.18326,0.1066
-0.18799,0.74531,-1.5691,8.1199,-0.44257,-0.18906,0.12737
-0.27853,0.27459,-0.78453,10.474,-0.34697,-0.19639,0.03207
-0.39938,-0.68647,0.13729,15.534,-0.34544,-0.22327,-0.034514
-0.5206,0.66685,-0.84337,11.219,-0.37354,-0.26634,0.18815
-0.62823,2.3732,-1.1768,7.1589,-0.4215,-0.31276,0.18112
-0.66302,1.5495,-0.49033,7.9434,-0.48319,-0.343,0.16157
-0.64929,1.2945,0.21575,9.434,-0.54611,-0.36194,0.13958
-0.59253,1.1964,0.078453,10.003,-0.58918,-0.37782,0.11362
-0.50888,1.3533,-0.27459,8.8848,-0.58857,-0.39279,0.07758
-0.40192,1.5102,-0.80415,8.6299,-0.53084,-0.41478,-0.12828
-0.2316,1.9221,-1.0199,9.4732,-0.38057,-0.42425,-0.12217
-0.034912,2.7459,-1.5691,9.8851,-0.13806,-0.37293,-0.12187
0.18375,2.687,-1.7848,10.062,0.080329,-0.25901,-0.21075
0.41583,2.8047,-1.8829,9.6301,0.18906,-0.13378,-0.2364
0.66617,2.5497,-2.2555,9.179,0.15882,-0.064752,-0.20311
0.91418,2.6282,-2.5693,8.7279,0.0024435,-0.066279,-0.15241
1,2.2751,-1.9417,8.7868,-0.21136,-0.13531,-0.12492
1,1.4906,-0.72569,8.9437,-0.35155,-0.2303,0.051007
1,1.5102,-0.43149,8.9437,-0.36133,-0.2755,0.0082467
1,1.5495,-1.3729,8.6887,-0.2584,-0.25962,-0.088881
1,1.5298,-1.5691,8.316,-0.090408,-0.19028,-0.082161
1,1.2945,-0.72569,7.9042,0.069028,-0.054062,-0.089492
1,0.5884,-0.84337,8.4729,0.1292,0.092852,-0.059865
1,1.3925,-1.5102,9.0613,0.079718,0.14905,0.0030543
1,1.9809,-1.824,9.787,-0.018326,0.1069,0.054672
1,2.2948,-1.824,9.8066,0.018326,0.11484,0.043677
1,2.334,-1.5102,9.3752,-0.028711,0.081856,0.03543
1,2.4909,-1.4318,9.1202,-0.088881,0.040623,0.024129
1,2.2751,-1.5102,9.1202,-0.11637,-0.0033598,0.035125
1,2.5497,-1.824,8.8064,-0.090713,-0.023518,0.027489
1,2.687,-1.9809,8.8064,-0.03543,-0.013439,0.012217
1,2.5497,-1.9417,8.5318,0.0073304,0.0018326,0.013439
1,2.2948,-1.7848,8.5514,0.019853,0.0045815,0.034514
1,2.1575,-1.824,8.6299,-0.12401,-0.0076358,-0.089797
1,2.2751,-1.8829,8.7475,-0.18754,-0.029016,-0.074831
1,1.9809,-1.5102,9.0417,-0.21044,-0.039706,0.015882
1,2.0006,-1.5102,9.1202,-0.19639,-0.054978,-0.0079412
1,1.6867,-1.6279,9.0417,-0.12065,-0.063835,-0.02474
0.96988,2.2948,-1.824,8.8456,0.0054978,-0.053451,-0.042455
0.91806,2.079,-1.216,9.0613,0.0009163,-0.029016,-0.060476
0.84973,1.8044,-0.86299,9.434,-0.049175,0.01405,-0.078191
0.78601,1.8633,-1.0199,9.179,0.23427,0.059865,-0.089797
0.70691,2.079,-1.3533,9.0417,0.15547,0.089492,-0.09896
0.65363,2.1771,-1.4318,9.3163,0.031154,0.084605,-0.040623
0.5834,2.2359,-1.471,9.3752,-0.10507,0.038179,-0.016493
0.53177,2.0006,-1.3337,9.3359,-0.22694,-0.032376,-0.0042761
0.47968,2.2163,-1.4906,8.6495,-0.30268,-0.087354,-0.0073304
0.41739,2.2948,-1.9417,8.4926,0.14172,-0.11087,-0.03146
0.36963,2.4713,-2.5301,8.5514,0.23305,-0.10843,-0.066279
0.32281,2.334,-2.0594,9.0613,0.099876,0.10934,-0.033598
0.2821,2.1575,-1.3141,9.4732,0.0015272,0.09499,-0.00061087
0.22562,1.8044,-0.8826,9.5321,-0.11576,0.062003,0.010996
0.19608,2.0202,-1.118,9.1202,-0.17959,0.037263,-0.017104
0.15671,2.4909,-1.6475,8.1787,-0.1576,0.050091,-0.0562
0.13208,2.3732,-1.9809,8.0022,-0.085827,0.086437,-0.090103
0.11227,2.2948,-1.8437,8.5514,-0.0082467,0.11759,-0.092546
0.088867,2.1771,-1.3141,9.1594,0.033903,0.12798,-0.069639
0.07016,2.0594,-0.8826,9.5125,-0.085521,0.11209,-0.036652
0.067505,1.8044,-1.2553,9.5125,-0.094073,0.10415,-0.039095
0.076019,2.1182,-1.3729,9.0417,-0.087048,0.089492,0.026878
0.090515,2.0006,-1.5691,8.8848,-0.085216,0.075136,0.010996
0.1044,2.2751,-1.824,8.7279,-0.11148,0.059254,-0.0067195
0.1326,2.2948,-2.0986,8.5514,-0.15699,0.035125,-0.025962
0.15427,2.589,-1.9809,9.0417,-0.16066,0.0082467,-0.054062
0.19647,2.3732,-1.5298,9.6301,-0.090713,-0.0051924,-0.051313
0.21683,2.079,-1.5691,9.3359,0.0051924,0.012828,0.0033598
0.23361,2.4713,-1.824,8.8848,0.063835,0.054367,-0.00061087
0.23547,2.6478,-1.824,8.8064,0.064141,0.09499,-0.033903
0.23087,2.2359,-1.9417,9.1006,0.020159,0.11393,-0.0088575
0.22336,1.824,-1.6475,9.0613,-0.03207,0.12309,0.0073304
0.20959,1.9221,-1.5102,8.9437,-0.056505,0.13195,-0.0012217
0.19171,1.7456,-1.4318,8.8064,-0.04612,0.13683,-0.0061087
0.15482,1.7456,-1.3533,8.8456,0.0079412,0.14508,0.00030543
0.13849,1.6867,-1.2553,9.0613,0.061087,0.17623,-0.00061087
0.09198,1.6867,-1.2749,9.179,0.093768,0.19761,0.002138
0.059509,1.5102,-1.118,9.2575,0.099876,0.1912,0.0097738
-6.1035e-05,1.6867,-1.4906,9.0417,0.083078,0.20403,0.040928
-0.013458,1.4906,-1.6475,9.179,0.072693,0.17318,0.057116
-0.034424,1.7456,-1.5102,9.0613,0.10446,0.085216,0.072388
-0.062836,1.7456,-1.6279,8.6299,0.11942,-0.016799,0.07025
-0.084869,2.0006,-1.6475,8.3749,0.066279,-0.16005,0.0085521
-0.11023,2.334,-1.5691,8.2572,0.048564,0.062003,-0.0094684
-0.1279,2.7655,-1.5102,8.6887,0.023824,0.065363,0.014355
-0.14429,2.4909,-1.6671,9.1202,0.015272,0.083078,-0.087354
-0.15195,2.432,-1.824,9.5713,0.019853,0.10324,-0.083383
-0.16672,1.824,-1.3533,9.7282,0.014966,0.10965,-0.071166
-0.18332,1.4514,-0.94144,9.3359,0.0033598,0.10721,-0.047037
-0.21204,0.72569,-1.4318,9.787,-0.020769,0.10507,-0.027489
-0.27939,0.66685,-1.9809,11.219,-0.050091,0.10507,-0.021991
-0.33804,1.216,-2.4713,11.042,0.34789,0.64568,-0.018937
-0.3692,2.2359,-2.1967,9.2183,0.034208,0.51282,-0.079412
-0.39807,1.6867,-1.471,7.9434,-0.35797,0.14325,0.12614
-0.439,1.5887,-1.6671,8.0611,-0.61575,-0.24557,0.12217
-0.44241,2.4517,-2.2555,8.2572,-0.6466,-0.61392,0.015272
-0.43512,2.4713,-1.9417,8.8652,-0.57696,-0.83627,0.022297
-0.40771,2.6086,-1.216,9.0613,0.66829,-0.81642,0.007025
-0.34103,2.8635,-1.1768,8.826,0.61422,-0.70036,-0.0051924
-0.28455,2.9616,-1.0199,8.7279,-0.28283,-0.6298,-0.0956
-0.23776,2.7851,-0.84337,8.6299,-0.18845,-0.53817,-0.052534
-0.18692,3.1774,-0.5884,8.218,-0.16157,-0.41172,-0.097433
-0.14032,3.3146,-0.39227,7.963,-0.12523,-0.34667,-0.080329
-0.10834,4.1972,-0.80415,7.8649,-0.078191,-0.34606,-0.083078
-0.092834,4.2561,-1.3729,8.1787,-0.072693,-0.35003,-0.13134
-0.071289,4.1972,-2.0006,8.2768,-0.53817,-0.3427,-0.17165
-0.069641,3.8442,-2.0986,8.316,-0.44166,-0.34453,-0.14875
-0.068756,3.1774,-1.7456,8.1591,-0.12401,0.2529,-0.15058
-0.025177,2.0594,-1.3533,8.7475,-0.080634,0.3146,-0.15944
-0.023407,1.5495,-1.3729,9.8851,-0.0045815,0.38515,-0.024129
-0.018372,1.2356,-1.9809,9.8851,0.091324,0.47617,-0.068722
-0.044128,0.98067,-1.9809,9.3163,0.19426,0.58154,-0.10996
-0.11783,0.13729,-1.9417,8.3357,0.29566,0.68111,-0.12523
-0.22333,-3.1774,-1.6867,12.396,0.35308,0.74342,-0.12737
-0.3493,-3.3735,-1.1572,14.357,0.37538,0.76389,-0.13775
-0.48093,-0.05884,-0.70608,10.532,0.48808,0.75533,0.030238
-0.57941,0.74531,-1.3533,7.2961,0.53512,0.72937,0.032681
-0.62747,0.5884,-1.5102,7.4923,0.52993,0.69639,-0.16616
-0.61868,0.8826,-1.3729,7.61,0.46762,0.66096,-0.16585
-0.54971,1.0199,-1.8437,9.0417,0.44715,0.64049,-0.15669
-0.45685,1.4318,-1.471,9.6694,0.52962,0.61239,-0.12248
-0.35184,2.3732,-0.80415,9.6301,0.39065,0.57605,-0.045204
-0.29657,2.5497,-0.43149,9.5713,0.42883,0.58093,0.015882
-0.24408,3.0793,-1.2749,8.6299,0.043982,0.68753,0.19517
-0.19205,3.5696,-2.1378,7.7669,-0.26176,0.49052,0.10232
-0.1391,3.3146,-1.3337,7.4531,-0.47373,0.26023,0.15088
-0.095856,3.0989,-1.0199,8.1787,-0.53512,0.10812,0.11637
-0.04245,3.4716,-1.3533,8.6299,-0.44227,0.054062,0.07422
-0.0011902,3.6285,-1.5298,8.5514,-0.22174,0.10965,0.047342
0.010986,2.942,-1.3533,8.8064,0.10782,0.21625,0.083689
-0.0027771,2.2163,-0.62763,8.8652,0.41997,0.2529,0.16493
-0.040253,0.82376,-0.31381,9.434,0.26848,0.17685,0.018631
-0.090027,0.35304,-1.0983,9.7478,0.37813,0.2138,0.039401
-0.15042,1.0787,-2.3144,9.3359,0.44715,0.23457,-0.022297
-0.20847,1.5102,-2.687,9.4732,0.42608,0.23671,-0.0045815
-0.27817,1.1964,-1.9809,9.3359,0.37049,0.25381,-0.018021
-0.38409,1.6083,-0.98067,9.1202,0.33017,0.3094,-0.054978
-0.52173,2.4713,-0.27459,7.9238,0.2474,0.3653,-0.06353
-0.69089,2.7851,-0.17652,8.0611,0.17776,0.39156,-0.026573
-0.87439,2.4517,-1.0199,9.1202,0.26786,0.40653,0.083078
-0.99997,2.3732,-1.0199,11.631,0.43891,0.40042,0.13958
-0.99997,2.4517,-0.019613,12.651,0.58826,0.35766,0.0030543
-0.99997,2.7851,0.94144,10.454,0.7025,0.28833,-0.083689
-0.99997,2.4517,1.7652,7.6884,0.58765,0.13439,-0.11148
-0.99997,1.6083,0.94144,6.8254,0.29169,-0.055894,-0.033903
-0.99997,2.2948,-2.0594,6.5312,-0.055283,-0.2025,0.01069
-0.99997,3.0793,-3.0008,7.0608,-0.33964,-0.23702,0.032376
-0.8624,1.9221,-1.6671,9.434,-0.66798,-0.17959,0.098044
-0.58511,0.56879,-0.72569,10.513,-0.83627,-0.16005,0.15882
-0.31827,0.49033,-1.0983,9.7478,-0.81062,-0.20861,0.18601
-0.072937,1.6867,-1.2749,8.9044,-0.56933,-0.18479,0.16646
0.14841,1.5298,-1.7848,8.2768,-0.16829,-0.019548,0.075747
0.354,0.5884,-2.1378,11.454,0.24343,0.27306,-0.031154
0.53394,0.66685,-0.80415,14.612,0.41844,0.57482,-0.099876
0.63177,1.5298,-0.05884,12.572,0.31643,0.72785,-0.035125
0.67612,2.589,0.2942,8.9044,-0.19426,-0.076969,-0.052534
0.67102,2.4517,-0.15691,7.3158,-0.14813,-0.036652,-0.067806
0.6221,1.824,-1.5102,7.1589,-0.11209,0.00030543,-0.03879
0.55862,2.3732,-2.4517,7.8649,0.022602,0.051313,0.058643
0.52411,2.6282,-2.1967,8.5318,0.030849,0.091324,0.056505
0.54413,2.3732,-1.6475,9.0417,0.0051924,0.10599,0.036346
0.60178,2.0594,-1.3533,8.8848,-0.011301,0.096822,0.012523
0.68402,2.0006,-1.3533,8.6299,0.030543,0.093462,-0.0036652
0.75943,2.1575,-1.4318,8.7279,-0.32529,0.021075,-0.062003
0.81668,2.2163,-1.5102,8.5318,-0.26878,0.047647,-0.077274
0.86356,2.1575,-1.6279,8.4337,-0.17959,0.089797,-0.080023
0.89404,2.3732,-1.3533,8.4926,-0.094379,0.13592,-0.076664
0.91046,2.2948,-1.1572,8.7475,-0.03207,0.16035,-0.069944
0.9176,2.1378,-1.2749,9.0221,0.0058032,0.15913,-0.065973
0.9249,1.9809,-1.6671,9.0417,0.009163,0.14905,-0.062919
0.90442,2.432,-1.9417,8.7475,-0.020769,0.12339,-0.059865
0.87741,2.1575,-2.0594,9.0025,-0.054062,0.087048,-0.029322
0.82166,2.1771,-1.9417,8.7868,-0.023213,0.055894,-0.018937
0.76791,1.824,-1.5102,8.8652,0.013439,0.049175,-0.091019
0.7052,1.9809,-1.5691,9.1594,0.04612,0.057421,-0.089797
0.64902,1.8437,-1.6867,9.179,0.070555,0.058032,-0.073304
0.58542,1.9809,-1.6475,9.0613,0.097433,0.047953,-0.053451
0.52493,1.7456,-1.8044,9.2183,-0.055894,0.036346,-0.037568
0.46286,1.7456,-1.7848,9.3359,-0.070555,0.022297,-0.034208
0.40366,1.5298,-1.118,9.3752,0.12004,0.0281,0.085216
0.33365,1.5298,-1.0591,9.3555,0.061392,0.040317,0.10079
0.26074,1.5102,-1.0199,9.4928,-0.011301,0.01069,0.0076358
0.18152,1.6867,-1.2553,9.0613,-0.069028,-0.036957,0.041844
0.10931,1.9025,-1.4318,9.0417,-0.091019,-0.075442,0.052534
0.053925,2.1378,-1.4906,8.4141,-0.070555,-0.1014,0.045815
0.0076599,2.0594,-1.1768,8.316,0.1295,-0.10751,0.050091
-0.049927,2.2948,-1.4318,8.3945,0.14233,-0.098655,0.064446
-0.085327,2.2948,-1.8829,8.8652,0.20006,0.20128,-0.060476
-0.10248,2.6478,-2.432,9.1202,-0.025351,0.12614,-0.1066
-0.10654,2.687,-1.8829,8.8064,-0.18265,0.034819,0.12767
-0.11557,2.589,-1.5102,8.4926,-0.12767,0.032987,0.092241
-0.12225,2.2948,-1.2553,8.3945,0.11545,0.15516,0.079718
-0.13962,2.1378,-1.5298,9.3359,0.34178,0.25443,0.10415
-0.1362,2.4517,-1.3337,9.2575,0.49755,0.25504,0.10568
-0.16635,1.3533,-1.0395,9.0613,0.52473,0.18265,0.023213
-0.21664,0.66685,-1.3533,9.6694,0.15852,0.054978,-0.16127
-0.2742,1.6083,-1.471,9.4928,-0.034208,-0.052534,-0.13073
-0.41003,1.7456,-2.1967,8.9044,-0.21441,-0.033903,-0.11148
-0.49023,1.6083,-2.9028,9.5125,-0.48228,0.027184,-0.039095
-0.54053,2.0594,-1.3729,9.1202,-0.68753,-0.038485,0.084299
-0.58517,2.0006,-0.35304,8.7279,-0.63561,-0.15882,0.16005
-0.62277,1.5887,-0.62763,9.5713,-0.32193,-0.17898,0.11148
-0.69757,2.0594,-1.4906,8.1591,0.18082,-0.044899,-0.03879
-0.75882,1.4318,-2.1575,9.5321,0.67104,0.18723,0.021075
-0.80344,0.76492,-1.8829,11.258,0.90072,0.29627,-0.007025
-0.81116,2.0006,-0.54917,10.768,0.9331,0.32987,0.029932
-0.81625,1.8633,1.0395,7.61,0.61514,0.30879,0.064446
-0.82236,1.118,0.13729,7.5511,0.0562,0.10904,0.0051924
-0.83127,1.2356,-2.7459,8.7868,-0.48411,-0.20067,0.015882
-0.83209,3.0008,-3.3931,8.2572,-0.84208,-0.45937,0.025656
-0.83252,1.9025,-2.6086,10.474,-0.9783,-0.57971,0.039095
-0.83932,1.5298,0.23536,11.69,-0.9444,-0.58735,-0.12217
-0.88959,1.824,0.98067,11.533,-0.79596,-0.5226,-0.11912
-0.95648,2.2751,-0.31381,8.7475,-0.55619,-0.41203,-0.020159
-0.99997,2.8047,-1.471,7.6884,-0.219,-0.2645,-0.051313
-0.99997,3.0008,-2.6086,7.1589,0.13592,-0.087965,-0.11668
-0.99997,3.2754,-3.197,7.4334,0.41478,0.1127,-0.17074
-0.95853,2.687,-2.5693,8.8064,0.53756,0.28253,-0.18418
-0.85193,2.0202,-1.0199,9.0417,0.50366,0.3711,-0.1576
-0.76794,1.3925,-0.43149,8.7083,0.076358,-0.14691,-0.062308
-0.72406,1.7456,-0.098066,8.0807,0.051313,-0.1127,-0.055894
-0.70947,1.3337,-0.68647,8.5514,-0.03543,-0.087965,-0.053756
-0.69711,0.54917,-1.6475,9.3359,-0.13531,-0.10201,-0.045204
-0.67795,0.74531,-2.0006,9.2575,-0.20556,-0.13439,-0.037568
-0.6423,0.86299,-1.9613,9.4928,-0.24557,-0.14386,-0.051007
-0.60367,0.90221,-1.471,9.434,-0.070555,-0.12492,-0.065057
-0.53854,1.0395,-1.6475,10.062,0.01741,-0.10507,-0.069639
-0.45416,1.5102,-2.1575,10.513,-0.27519,-0.097738,0.00030543
-0.39606,2.1182,-1.9025,9.5125,-0.24404,-0.089797,0.016493
-0.39429,2.6086,-1.118,4.9426,-0.17471,-0.077274,-0.059559
-0.41351,-0.33343,-0.74531,8.8456,-0.075747,-0.055894,-0.071777
-0.42307,-0.13729,-1.118,11.944,0.040317,-0.025656,-0.076969
-0.45401,1.6083,-1.5102,9.5125,0.11698,0.010996,-0.066584
-0.47211,0.8826,-1.4318,8.218,-0.27184,0.061697,-0.049786
-0.45285,1.0395,-0.94144,8.4729,-0.28039,0.10782,-0.027794
-0.41489,1.5298,-1.5887,8.7868,-0.014661,0.11637,-0.029016
-0.33997,1.8633,-2.4124,9.434,-0.05681,0.076969,-0.01741
-0.2403,1.9809,-2.0006,10.003,-0.072998,0.025045,0.013439
-0.10886,2.0006,-1.4318,9.3359,-0.061392,-0.01405,-0.0058032
0.011841,2.1575,-0.86299,8.6887,-0.046426,-0.036957,-0.023518
0.13168,2.1575,-0.8826,8.6887,-0.040928,-0.037568,-0.035736
0.25681,2.2948,-1.3533,8.9044,0.10904,-0.032987,-0.044593
0.38116,2.1771,-1.6475,8.8652,0.047647,-0.028711,-0.041539
0.49985,2.2359,-1.8829,8.8652,-0.028711,0.016188,-0.020464
0.62286,2.0006,-1.4906,9.1202,-0.2981,-0.20097,-0.038179
0.71295,1.7064,-1.3337,9.2183,-0.35552,-0.24801,-0.069333
0.78522,1.7456,-1.5102,9.5125,-0.25198,-0.19456,-0.071777
0.83868,2.079,-1.6475,9.434,-0.13958,-0.16218,-0.025962
0.87335,1.8044,-1.6475,9.2575,-0.091019,-0.15516,-0.0036652
0.8873,2.0006,-1.6475,9.0221,-0.11179,-0.16005,-0.014661
0.88956,1.8633,-1.5102,9.0417,-0.12034,-0.16493,-0.016799
0.87997,1.9221,-1.5691,9.0025,0.0027489,-0.057116,-0.032681
0.89465,1.9221,-1.8437,8.8064,0.030849,-0.052534,-0.022907
0.90231,1.8633,-1.7064,8.8064,0.051924,-0.021991,0.0088575
0.90677,1.9221,-1.824,8.9437,0.05681,0.019242,-0.0027489
0.90369,1.9613,-1.7456,9.1202,0.068417,0.054062,-0.012523
0.8894,1.9221,-1.6279,9.179,0.10904,0.082772,-0.026878
0.87711,1.8437,-1.6475,8.8652,0.15424,0.11179,-0.039706
0.86957,1.9809,-1.8437,8.8848,0.17532,0.12523,-0.042455
0.85382,1.8633,-2.0006,8.8652,0.16127,0.11637,0.090408
0.85684,2.0202,-1.9613,8.8652,0.12645,0.093157,0.12126
0.8447,1.5495,-1.8044,9.1202,0.10904,0.055589,-0.015272
0.82553,1.824,-1.3141,9.179,0.13225,0.026878,-0.011606
0.79742,1.6475,-1.0591,9.0613,0.16738,0.034819,-0.01741
0.77643,1.9809,-1.471,8.8848,0.14416,0.072388,-0.016799
0.75754,2.1378,-1.8829,8.7083,0.039095,0.091324,-0.0009163
0.74011,1.824,-1.8437,9.1006,-0.12553,0.071471,0.036041
0.73376,1.6867,-1.7848,9.3359,0.15119,0.079718,-0.037568
0.71948,1.6867,-1.5298,9.179,0.082772,0.061392,-0.028405
0.68979,1.7456,-1.4318,9.2575,-0.0061087,0.036041,0.021991
0.6803,2.0202,-1.4318,9.179,-0.080634,0.0097738,0.024435
0.66605,2.1771,-1.8044,8.9633,-0.11698,0.00030543,0.016799
0.64719,2.1575,-1.8829,8.8456,-0.10171,0.018021,-0.00030543
0.64597,2.432,-1.9809,8.7475,-0.051618,0.055283,-0.02138
0.64517,1.9809,-1.8044,8.8652,0.018326,0.083689,-0.036652
0.62326,1.824,-1.3533,9.1986,0.092852,0.099571,0.028711
0.60333,1.6475,-1.4318,9.3752,0.1347,0.10599,0.02138
0.57727,1.3925,-1.3533,9.2575,0.13286,0.093768,-0.022907
0.5321,1.6083,-0.90221,9.2575,0.10476,0.068722,-0.020769
0.48331,1.7652,-0.49033,9.4928,0.072693,0.036652,-0.01405
0.39301,1.7064,-1.1964,8.7083,0.047037,0.0061087,-0.0015272
0.26169,1.5298,-3.1381,9.8066,0.022297,-0.018631,0.013134
0.13156,1.4318,-2.1575,10.787,-0.0033598,-0.041844,0.024129
0.01535,1.3925,-0.62763,11.219,0.12339,0.1066,-0.085216
-0.091156,2.0594,0.05884,8.5514,-0.18906,0.074526,-0.054062
-0.15198,1.6083,-0.8826,7.1785,-0.42302,0.0085521,0.020159
-0.17694,2.2359,-1.8829,7.0019,-0.43585,-0.097433,0.090713
-0.16708,2.4713,-2.0398,7.3746,-0.25779,-0.2135,0.1518
-0.11414,2.4517,-1.7456,8.6299,0.039095,-0.2587,0.12278
-0.040405,2.2359,-1.5102,9.3555,0.44257,-0.18998,0.025656
0.01944,2.1378,-1.5102,9.3359,0.35919,-0.03543,-0.059254
0.069458,2.0202,-2.0986,9.0417,-0.014355,0.14813,-0.028711
0.12637,2.0006,-2.4517,8.4141,0.37629,0.27397,-0.021075
0.17435,2.0202,-2.2555,8.7083,0.47342,0.31857,-0.0018326
0.20471,2.079,-1.7456,8.9437,0.46151,0.3207,0.0061087
0.2247,2.1182,-1.5102,9.0417,0.40959,0.32254,-0.0281
0.19202,2.1575,-1.6279,9.1202,0.3375,0.30085,-0.057116
0.19519,2.0594,-1.6279,9.0417,0.23457,0.23854,-0.060781
0.18777,2.1575,-1.2553,8.9044,0.10934,0.1518,-0.04948
0.17371,1.8633,-1.1572,8.7083,0.12431,0.17685,0.087965
0.16312,1.5298,-0.8826,9.5125,0.14813,0.22388,0.12126
0.13354,1.3337,-1.0003,10.297,0.10934,0.23885,-0.069028
0.084595,1.5102,-0.8826,10.219,0.064752,0.24312,-0.054978
0.0062256,1.6867,-0.72569,8.7083,0.062003,0.24465,-0.047953
-0.13757,1.6867,-1.5298,7.4531,0.11087,0.23366,-0.025351
-0.27435,1.0199,-2.6086,10.003,0.21228,0.22205,0.0097738
-0.39749,1.824,-1.8437,11.415,0.31215,0.20159,0.044593
-0.48486,1.9025,0,9.5909,0.14936,0.15516,-0.094073
-0.55197,1.4318,-0.078453,8.0022,0.093768,0.083994,-0.048258
-0.58752,2.0006,-1.5298,7.8061,0.12767,0.01069,0.12187
-0.57108,2.3732,-1.9613,8.2572,0.15149,-0.011301,0.15516
-0.50595,2.2948,-1.7456,9.1202,0.1689,0.087354,0.2364
-0.41852,1.8044,-1.3729,9.4732,0.34117,0.16005,0.27245
-0.33652,1.5495,-0.72569,9.6301,0.32132,0.11026,0.21228
-0.25711,1.118,-0.62763,9.5321,0.23915,0.10843,0.029016
-0.17575,1.3533,-0.94144,9.3752,-0.27153,0.036041,-0.031765
-0.04248,1.824,-1.3533,9.2575,-0.26206,0.043677,-0.030543
0.075378,1.7064,-1.0591,8.8652,-0.22297,0.058338,-0.024129
0.19489,1.9809,-1.6279,8.7279,-0.15974,0.069944,-0.045204
0.30533,2.5497,-1.8829,8.7083,-0.079107,0.083078,-0.043982
0.3988,3.0793,-1.824,9.1986,0.0018326,0.091019,-0.034208
0.47418,3.4127,-1.6867,9.5125,0.087354,0.10476,-0.021686
0.53186,3.2754,-1.824,8.7868,0.13989,0.13958,-0.021686
0.56631,3.0597,-1.5298,8.6299,0.58277,0.32803,-0.12523
0.56918,2.6086,-1.0003,8.8652,0.41325,0.040012,-0.13806
0.51974,1.7456,-1.0199,9.4928,0.067501,-0.35827,0.12156
0.38028,1.2945,-1.726,9.5125,-0.32742,-0.70005,0.0061087
0.17114,0.33343,-1.9809,7.1589,-0.48747,-0.80268,-0.039706
-0.049561,-3.197,-1.8829,12.003,-0.41386,-0.68295,-0.14508
-0.27966,-1.7456,-1.3533,13.141,-0.21838,-0.47556,-0.17379
-0.46805,2.0006,-1.1768,8.0218,0.013744,-0.28436,-0.13683
-0.59201,1.5102,-1.471,5.9036,0.26664,-0.14844,-0.089492
-0.66733,1.0591,-1.1572,6.6685,0.29902,-0.050702,-0.084299
-0.67303,1.4514,-0.39227,8.218,0.20097,0.0061087,-0.15913
-0.62244,1.824,-0.70608,9.5713,0.017715,-0.0094684,-0.14508
-0.53598,2.1575,-1.1768,9.7478,-0.18112,-0.070555,-0.11301
-0.42355,2.5497,-1.5102,9.3359,-0.34056,-0.13867,-0.090408
-0.29642,2.8635,-1.6475,8.8848,-0.44746,-0.18754,-0.086132
-0.13885,2.6478,-1.5102,8.8652,-0.49297,-0.20922,-0.093157
0.0054932,2.6086,-1.5102,8.7279,-0.46731,-0.2025,0.010385
0.11642,2.1771,-1.1768,8.5514,-0.39737,-0.17257,0.0009163
0.21692,2.1575,-1.3141,8.5318,-0.31857,-0.13867,-0.076358
0.26181,2.0006,-1.6475,8.7868,-0.26114,-0.097738,-0.0562
0.30774,2.0594,-1.824,9.0417,-0.22602,-0.056505,-0.041233
0.30981,1.9809,-1.824,9.3359,-0.20586,-0.018631,-0.027184
0.30203,2.0006,-1.5298,9.1594,-0.21411,0.018021,-0.010385
0.28955,1.5887,-1.0003,9.2771,-0.24832,0.037874,0.0042761
0.2641,1.3533,-1.0199,9.3752,0.072998,0.14875,0.047342
0.26282,1.4318,-1.7456,9.1202,0.097738,0.17654,0.051618
0.26996,2.0594,-2.0398,9.2771,0.14172,0.19181,0.032987
0.29175,2.0006,-1.9417,9.2771,0.15394,0.19548,0.045509
0.31049,1.6083,-1.5298,9.179,0.1237,0.18051,0.044288
0.32404,1.6083,-1.3729,9.1202,0.068111,0.16585,0.041233
0.32675,1.3533,-1.4122,8.9044,0.024435,0.16127,0.041539
0.33936,1.3533,-1.2553,9.0417,0.025045,0.17043,0.042761
0.36487,1.3533,-1.824,9.1594,0.048258,0.19609,0.024435
0.37131,2.0006,-2.2163,8.8652,0.043677,0.22083,-0.017715
0.38773,2.3732,-2.0594,8.7279,0.038179,0.22938,0.044899
0.39432,2.1771,-1.6671,8.4141,0.0562,0.25045,0.025656
0.37186,2.0594,-1.3337,8.1591,0.06353,0.29688,0.015882
0.3223,1.9025,-1.3533,8.6299,0.021991,0.33292,0.014966
0.27832,1.9221,-1.5887,9.0417,-0.05284,0.31857,0.02474
0.23389,2.0006,-1.8437,9.0417,-0.11698,0.23121,0.032681
0.18518,1.9221,-1.9025,8.8652,0.16432,0.12584,-0.13042
0.12704,2.2359,-1.6279,8.8652,0.33689,0.066584,-0.1408
0.066071,1.8633,-1.5691,9.1202,0.44624,0.054367,-0.080329
-0.0059509,1.4906,-1.2553,9.0221,0.45082,0.067501,-0.11637
-0.093842,0.98067,-1.6475,9.434,0.35125,0.068722,-0.13042
-0.18738,1.6083,-2.589,10.199,0.20036,0.040928,-0.12828
-0.24716,2.1575,-2.5693,10.375,-0.11545,-0.021991,-0.13011
-0.29691,1.8437,-1.726,10.219,-0.010385,-0.10385,-0.13103
-0.31876,1.6867,-0.84337,9.787,-0.17226,-0.1628,0.0079412
-0.35385,1.9613,-0.80415,9.2771,-0.1741,-0.197,-0.023518
-0.37552,2.0594,-1.118,8.7868,-0.050091,-0.21441,-0.15149
-0.39877,2.1575,-1.5102,8.0022,0.12248,-0.17959,-0.16188
-0.43469,1.9613,-0.84337,7.2373,0.26909,-0.080634,-0.14875
-0.51862,1.0591,-1.1768,8.316,0.39584,0.07422,-0.0956
-0.62082,1.2749,-1.7848,10.101,0.055283,0.25504,-0.030543
-0.74866,2.432,-0.78453,10.768,-0.077274,0.34453,0.011606
-0.90784,1.9809,-0.23536,10.297,0.76541,0.35308,0.16524
-0.99997,1.824,-1.0199,9.179,0.60292,0.29444,0.10324
-0.99997,2.2948,-1.1964,7.3158,0.31551,0.12798,0.067501
-0.99997,2.2948,-1.8437,7.3354,-0.064446,-0.12492,0.087048
-0.99997,2.0202,-1.824,8.6299,-0.45937,-0.35125,0.080634
-0.99997,1.2945,-0.94144,9.3163,-0.82711,-0.47647,0.074526
-0.99997,0.56879,-1.0395,8.8064,-1.1527,-0.57238,0.092546
-0.99997,-1.118,-1.3533,11.003,-1.3784,-0.69547,0.14019
-0.99997,-1.118,-0.86299,13.023,-1.1365,-0.73762,0.19761
-0.99997,0.27459,-0.098066,10.63,-0.6857,-0.66523,0.1628
-0.99997,0.41188,-0.43149,7.8061,-0.14813,-0.50702,0.059865
-0.99997,0.19613,-1.3533,6.237,0.36957,-0.28711,0.057727
-0.99997,0.90221,-1.6475,7.4531,0.70311,-0.036957,0.056505
-0.99997,1.9025,-1.7456,8.1787,0.75472,0.17074,0.072388
-0.99997,1.6867,-1.6475,9.5125,0.5623,0.3036,0.1405
-0.99997,1.7456,0,10.768,0.27275,0.34514,0.19487
-0.99997,1.0395,0.98067,12.199,0.039706,0.33353,0.085521
-0.99997,1.5887,0.37265,11.14,-0.096517,0.32467,0.10324
-0.99658,1.8437,-0.17652,9.5125,-0.16218,0.31124,0.11179
-0.94366,1.8633,-1.9809,8.4141,-0.16218,0.28222,0.076358
-0.87936,2.3732,-3.5108,7.9042,-0.10965,0.26084,0.062308
-0.75699,3.2362,-3.0008,7.2177,-0.050091,0.2755,0.057727
-0.60654,3.1774,-1.4906,7.6296,-0.015882,0.30757,0.053451
-0.46661,2.4909,-0.33343,8.0022,-0.023518,0.32834,0.061087
-0.33752,1.6083,-0.27459,7.7669,-0.029322,0.32987,0.092852
-0.20819,1.1964,-0.72569,8.316,-0.043371,0.30665,0.054978
-0.097992,1.5298,-1.5887,8.9044,-0.017715,0.28405,0.017715
0.011108,1.8437,-1.9809,9.1202,0.051618,0.27947,-0.00030543
0.090118,1.7064,-2.0594,9.0613,0.13347,0.29474,0.010079
0.12888,1.4906,-2.0006,9.3163,0.18021,0.31704,0.04215
0.10934,1.6083,-1.8044,9.3359,0.20464,0.32254,0.078802
0.054108,1.7652,-1.1768,9.3359,0.20678,0.29383,0.10385
-0.019836,1.2749,-1.2553,10.768,-0.57269,-0.34758,-0.00030543
-0.085663,1.1964,-1.8044,11.062,-0.69791,-0.45509,0.061087
-0.13745,1.5298,-1.4906,11.14,-0.70769,-0.5006,-0.058338
-0.16437,1.4318,-0.80415,10.513,-0.56627,-0.50244,-0.035736
-0.17593,1.3533,0.13729,9.1202,-0.27855,-0.44257,0.020769
-0.19318,1.1768,-0.27459,7.5511,0.083994,-0.3427,0.039706
-0.21179,1.3533,-1.824,7.7473,-0.11423,-0.19792,0.0045815
-0.21866,1.8633,-2.0398,8.4926,-0.36469,0.007025,-0.015577
-0.19846,1.6475,-1.3533,9.5713,0.69944,0.20739,-0.14752
-0.17395,1.3729,-0.72569,9.8851,0.61148,0.33872,-0.10293
-0.13583,1.3729,-1.0003,9.2575,0.54153,0.42944,0.14111
-0.094788,1.6083,-1.5691,8.4729,0.45601,0.48686,0.21716
-0.043579,1.6083,-1.9809,8.2572,0.44166,0.49083,0.27764
0.0059204,1.4906,-1.6475,9.7478,0.30971,0.36866,0.2361
0.029663,1.2945,-1.4318,10.827,0.45907,0.21502,0.045204
0.017334,1.9809,-1.6475,9.3555,0.69578,0.029932,-0.13256
-0.04422,1.8633,-1.3729,9.5321,-0.19151,-0.081856,-0.30665
-0.14816,0.90221,-0.41188,10.748,-0.50152,-0.10232,-0.30788
-0.27243,1.0395,-0.17652,10.63,-0.75259,-0.10843,-0.020464
-0.41565,1.6083,0.078453,8.5318,-0.73854,-0.17226,0.050091
-0.54065,1.5102,-0.54917,7.5511,-0.4725,-0.28161,0.069028
-0.63699,2.2359,-1.8829,7.0019,-0.082772,-0.30177,0.0033598
-0.67395,2.7851,-2.4713,7.3746,0.17226,-0.18601,-0.11332
-0.68665,1.8437,-1.1768,8.8652,0.036346,0.027184,-0.22144
-0.73798,1.9221,-0.27459,5.6682,0.36682,0.11148,-0.062308
-0.7789,0.13729,-1.3141,10.454,0.34483,0.068111,-0.072998
-0.78094,1.1768,-2.3732,13.298,0.19212,0.01069,0.017104
-0.73416,2.432,-1.0395,10.728,0.095295,-0.061087,0.043982
-0.68597,2.1575,0.52956,8.2572,0.12828,-0.07025,0.043982
-0.63846,2.1575,-0.43149,7.5903,0.23854,-0.013134,0.024129
-0.5798,3.0793,-3.0793,7.7865,0.24771,-0.03207,-0.068722
-0.49341,3.6481,-3.0597,8.4926,0.10476,-0.17318,-0.07025
-0.35034,2.3732,-1.6671,9.0417,0.46548,0.24893,0.0079412
-0.21735,1.3729,-1.1768,9.179,0.16371,0.23793,0.049786
-0.15192,1.6083,-0.5884,8.4141,-0.19945,0.12614,0.29383
-0.13483,1.3729,-0.098066,8.4337,-0.47922,-0.0036652,0.27184
-0.16837,0.92183,-0.27459,9.6694,-0.57177,-0.074526,0.18845
-0.22955,0.41188,-1.118,10.572,-0.47281,-0.054672,0.078496
-0.32895,0.49033,-1.0003,9.1594,-0.26939,0.035736,-0.00030543
-0.39264,-1.3925,-1.0003,10.003,-0.073609,0.16096,-0.018326
-0.43127,-1.3925,-1.1964,11.062,0.051007,0.26634,0.12309
-0.44125,0.80415,-1.5691,8.9044,0.10018,0.31826,0.094684
-0.45563,1.118,-1.1768,7.3354,0.094684,0.33506,0.075442
-0.46082,0.41188,-0.23536,7.7669,0.062308,0.32834,0.076664
-0.47415,0.23536,-0.23536,9.3752,0.02474,0.30391,0.07025
-0.47528,0.64724,-0.05884,10.474,-0.040012,0.26878,0.062919
-0.43872,0.74531,0.56879,11.533,-0.15577,0.21319,0.071166
-0.38013,0.74531,1.0199,11.69,-0.24679,0.14508,0.10049
-0.31186,1.0787,1.3337,10.317,0.55772,0.23824,0.1686
-0.26016,0.98067,1.0983,8.9437,0.65943,0.22694,0.2193
-0.22488,1.1964,-1.5102,8.5514,0.74556,0.23366,-0.17868
-0.14029,2.687,-3.9423,8.1003,0.71441,0.17929,-0.12584
0.048584,3.5892,-3.3931,7.8061,0.56688,0.059865,-0.042761
0.25027,2.2163,-0.72569,8.6887,0.36346,-0.083078,0.010996
0.40381,1.3533,0.52956,8.9437,0.11026,-0.1909,0.053451
0.49738,1.5495,-0.39227,8.5514,-0.23854,-0.25626,0.10965
0.55582,2.2359,-1.6475,8.0807,-1.073,-0.35216,0.16218
0.62744,1.8437,-1.6867,8.4926,-1.3741,-0.50519,0.25504
0.68204,1.7064,-1.3337,8.7083,-1.4215,-0.63469,0.25962
0.71783,1.5887,-1.0003,9.179,-1.2346,-0.72296,0.26725
0.70569,1.4318,-0.86299,9.8066,-0.75625,-0.6857,0.20678
0.67026,1.118,-0.78453,10.827,-0.14386,-0.45845,0.040928
0.5986,1.9613,-1.5102,9.2575,0.35155,-0.14966,-0.062308
0.47391,0.66685,-1.5691,9.8263,0.55405,0.11606,0.019853
0.32361,-0.37265,-1.2749,12.141,-0.0015272,0.14142,-0.015882
0.15854,0.5884,-1.216,11.454,0.061087,0.029627,-0.046426
0.019745,1.7064,-0.86299,8.8064,0.16616,-0.038179,0.00061087
-0.10745,2.0202,-0.94144,7.6884,0.23182,-0.017104,-0.023824
-0.20035,2.3732,-1.7456,7.4531,0.26542,0.068417,-0.047647
-0.21225,2.687,-1.9809,7.1196,0.28863,0.14264,-0.047953
-0.15881,1.9221,-1.5298,8.4926,0.27703,0.17135,-0.016188
-0.050842,1.6671,-1.118,9.5321,0.077274,0.18051,0.0030543
0.037201,1.4318,-0.23536,9.7478,0.64294,0.29535,-0.020769
0.029877,1.5298,0.13729,7.6492,0.75961,0.22327,-0.066279
-0.041412,1.0395,-1.1572,6.6685,0.59498,0.089797,-0.1576
-0.082031,-0.45111,-3.0401,12.043,0.26145,-0.041539,-0.048258
-0.092529,0.60801,-1.6867,13.925,-0.18876,-0.17776,0.058338
-0.080688,1.1964,0.84337,10.415,-0.68509,-0.37477,0.11759
-0.081268,1.0395,1.3141,8.218,-0.96731,-0.52687,0.11484
-0.070801,1.118,-0.80415,7.4531,-0.89003,-0.53512,0.047037
-0.0039673,2.2359,-2.2751,8.1787,0.25015,-0.42577,-0.066584
0.16312,2.4517,-1.6671,9.1202,0.53787,-0.24557,-0.11118
0.36209,1.8633,-0.56879,9.5125,0.66096,-0.011301,-0.11209
0.54904,1.7456,0.19613,9.3752,0.58154,0.197,-0.1295
0.69025,1.6083,-0.70608,8.9044,0.33995,0.32437,-0.076358
0.82047,1.7456,-1.6671,8.9044,0.035736,0.35858,-0.0085521
0.96158,1.4318,-1.1572,9.5125,-0.56933,0.30971,0.011301
1,1.0395,-0.098066,10.14,-0.15272,0.20128,-0.018021
1,0.54917,0.19613,10.199,-0.040928,0.090103,0.044288
1,0.8826,-0.49033,9.6694,0.27519,0.048258,0.019853
1,1.1964,-1.0003,9.2575,0.55741,0.10629,-0.13928
1,1.3337,-0.90221,9.1986,0.67837,0.23243,-0.15363
1,0.80415,-0.86299,9.0417,0.63469,0.354,-0.13408
1,1.0395,-0.70608,9.3163,0.48442,0.39431,-0.071471
1,1.3533,-0.80415,9.5125,-0.18906,0.34086,0.0048869
1,1.3925,-0.80415,9.5713,-0.2193,0.2474,0.052534
1,1.5298,-0.78453,9.0417,0.14752,0.31979,-0.22266
1,1.3533,-1.1768,8.5514,0.24923,0.36835,-0.22022
1,1.1768,-0.86299,8.6887,0.31246,0.41783,-0.14172
1,0.92183,-0.62763,9.2575,0.35888,0.46517,-0.14997
1,0.76492,-0.43149,9.787,0.38668,0.47006,-0.14386
1,1.2945,-0.49033,9.1594,0.3879,0.41692,-0.14722
1,1.6671,-0.47072,8.8064,0.32926,0.32132,-0.17471
1,1.6671,-0.47072,8.5318,0.2251,0.21747,-0.20036
1,1.6671,-0.68647,9.0417,0.37874,0.25107,-0.10782
1,1.2749,-0.41188,9.5125,0.42028,0.26939,-0.093462
1,0.90221,-0.019613,9.7282,0.42944,0.26939,-0.14936
1,0.64724,0.31381,9.7478,0.37782,0.22633,-0.1237
1,0.49033,0.05884,9.8851,0.27519,0.13592,-0.097128
1,0.74531,-0.25497,9.7478,0.1741,0.046426,-0.083078
1,0.98067,-0.11768,9.5125,0.13073,-0.010996,-0.097128
1,0.66685,0.23536,9.7282,0.15882,-0.0036652,-0.10965
1,0.25497,0.45111,10.199,0.26512,0.063225,-0.12339
1,0.49033,0.19613,9.8851,0.27947,0.1127,-0.12126
1,0.8826,0.05884,9.3752,0.22999,0.12889,-0.061087
1,1.0395,0.13729,9.1202,0.13836,0.10507,-0.036041
1,0.70608,0.23536,9.4732,0.073304,0.059254,-0.025962
1,0.74531,-0.098066,9.5321,0.066584,0.033292,-0.043066
1,0.98067,-0.39227,9.1202,0.12431,0.041844,-0.078802
1,0.98067,-0.098066,8.8456,0.22327,0.084299,-0.10812
1,0.90221,0.62763,8.4141,0.31796,0.15516,-0.13256
1,0.66685,0.86299,9.0417,0.36835,0.2361,-0.13317
0.95587,0.66685,0.45111,9.3163,0.35797,0.2978,-0.11148
0.88522,0.60801,0,9.3555,0.2978,0.3149,-0.094684
0.79953,0.80415,-0.098066,9.0417,0.23488,0.29993,-0.080023
0.68362,0.25497,0.52956,8.7279,0.19578,0.28039,-0.083078
0.58798,-0.2942,0.82376,9.8066,0.19059,0.26848,-0.1011
0.4794,-0.13729,0.52956,10.591,0.22174,0.2813,-0.12248
0.39069,0.41188,0.52956,10.219,0.00061087,-0.40317,0.18815
0.35175,0.74531,1.1572,9.9439,-0.011912,-0.43463,0.17532
0.34637,0.76492,1.5495,9.8263,-0.10049,-0.46456,-0.083994
0.35995,0.35304,1.1768,10.219,-0.20097,-0.48717,-0.039706
0.36221,0.82376,0.76492,9.5713,-0.31093,-0.50335,0.023824
0.36801,1.0199,0.56879,7.7669,-0.45143,-0.53573,0.091324
0.31137,0.80415,0.37265,7.0804,-0.59346,-0.58857,0.14019
0.21307,-0.05884,0.56879,9.179,-0.65271,-0.62033,0.17257
0.097809,-0.90221,1.0003,12.003,-0.47831,-0.56566,-0.081551
-0.026886,-0.98067,0.84337,12.298,-0.46273,-0.4386,-0.071777
-0.094879,0.27459,0.37265,9.8066,-0.45723,-0.3146,0.15974
-0.091522,0.74531,0.23536,9.8851,-0.44532,-0.19212,0.14936
0.0028381,1.2749,-0.098066,10.611,-0.40073,-0.090713,0.11393
0.16788,1.1964,0.52956,10.532,-0.32009,-0.025045,0.050702
0.30887,1.1964,1.6279,9.8066,-0.60659,0.022602,-0.019548
0.39224,0.39227,2.2751,8.8456,-0.52718,0.069639,-0.063835
0.388,-0.37265,1.5102,8.8652,-0.14233,0.11209,0.094073
0.30948,-0.74531,0.19613,8.1003,-0.1686,0.13408,0.087659
0.2041,0.39227,-0.21575,7.4727,-0.17898,0.12339,-0.025045
0.1582,0.45111,-0.52956,7.7865,-0.16707,0.094073,0.011606
0.11581,0.54917,-0.39227,8.2572,-0.15241,0.064141,0.029016
0.1492,0.64724,-0.27459,8.8652,-0.13317,0.050396,0.049786
0.22781,0.43149,0.078453,9.1986,-0.21411,0.046731,0.071166
0.32263,0.64724,0.25497,9.689,-0.1463,0.058032,0.089797
0.39856,0.90221,0.37265,9.9439,-0.033903,0.075136,0.053451
0.418,0.92183,0.41188,9.9832,-0.021686,0.093462,0.036652
0.41089,1.118,0.19613,9.6497,-0.036652,0.11332,0.083994
0.40527,0.96105,0.23536,9.5125,-0.076358,0.12492,0.091935
0.40222,0.90221,0.31381,9.7478,-0.1069,0.11484,0.10018
0.42947,1.0395,-0.15691,10.101,-0.091935,0.086743,0.10201
0.47336,0.90221,-0.54917,10.375,-0.1014,0.042761,0.090713
0.53183,0.92183,-0.56879,10.003,-0.06353,-0.0027489,0.070555
0.59448,1.0787,-0.23536,9.5713,-0.30665,0.12737,0.065057
0.6752,1.2945,-0.31381,9.5125,-0.4047,0.11668,0.079718
0.75308,1.4318,-0.37265,9.1202,-0.39859,0.095295,0.053145
0.77585,1.4318,-0.94144,9.0417,-0.24984,0.1124,0.022297
0.78424,1.216,-1.0591,9.179,0.0042761,0.15302,-0.019242
0.77133,1.5298,-0.80415,9.2575,0.2364,0.20922,-0.034514
0.72122,1.1964,-0.098066,8.8652,0.36011,0.24679,-0.019548
0.65308,1.0199,0.039227,8.7475,0.34483,0.25107,0.029322
0.58731,1.216,-0.27459,8.7475,0.19181,0.21747,0.11973
0.50806,1.2749,-0.60801,8.8652,-0.029932,0.14997,0.20953
0.4339,1.0787,-0.23536,9.0417,-0.22113,0.051618,0.085216
0.33719,0.70608,0.37265,9.179,-0.29658,-0.029322,0.079412
0.20276,0.80415,0.47072,9.1594,-0.26359,-0.04215,0.065973
0.054657,1.0395,0,8.8064,-0.18509,-0.013439,0.04612
-0.10202,1.1964,-0.17652,8.8456,-0.11973,0.0009163,0.03879
-0.23981,0.90221,-0.019613,9.3752,-0.0036652,-0.03146,0.060781
-0.36234,0.90221,-0.098066,9.5909,0.18784,-0.01405,0.073609
-0.48166,0.96105,-0.54917,8.9437,0.14752,0.059865,0.10904
-0.61945,1.0395,-0.86299,8.9044,0.03543,0.034208,0.30757
-0.7298,1.0591,-0.72569,9.787,-0.146,-0.067501,0.28558
-0.82544,0.80415,-0.31381,10.572,-0.40836,-0.24771,0.16768
-0.92123,0.98067,0.23536,10.454,-0.60628,-0.40317,0.11301
-0.99911,1.0395,-0.17652,9.8851,-0.69242,-0.46914,0.078802
-0.99997,1.1964,-0.23536,9.6694,-0.65179,-0.44471,0.054062
-0.99997,1.2945,-0.11768,10.003,-0.13195,-0.010996,0.061392
-0.99997,1.2945,-0.37265,7.7669,-0.20892,-0.042761,0.059865
-0.99997,0.33343,-0.86299,10.591,-0.22205,-0.048564,-0.014355
-0.99997,0.098066,-1.0591,12.16,-0.16646,-0.011912,0.00030543
-0.99997,1.1768,-0.31381,9.8066,-0.076969,0.055894,0.0097738
-0.99997,1.4318,-0.23536,7.2765,-0.027489,0.12217,0.02138
-0.99997,1.2945,-0.52956,6.2959,-0.051924,0.14844,0.042455
-0.99997,1.1768,-0.78453,5.7271,-0.1237,0.13592,0.058948
-0.99997,0.039227,-1.5691,9.3752,-0.26817,-0.54214,0.033903
-0.99997,0.23536,-0.39227,11.709,0.15394,-0.46334,-0.0051924
-0.99997,0.56879,1.0983,12.023,0.42608,-0.27061,-0.16982
-0.99997,0.54917,0.94144,11.219,0.48411,-0.030543,-0.21869
-0.99997,1.3337,-0.25497,9.3359,0.34483,0.1463,-0.16707
-0.99997,1.824,-1.3337,7.8649,0.078191,0.22205,-0.067501
-0.99997,1.9809,-2.0006,7.9434,-0.87323,0.20861,0.0079412
-0.99997,1.9221,-1.9809,8.4141,-0.66371,0.11606,0.040928
-0.99997,1.5298,-1.3729,9.2771,-0.70341,-0.020769,-0.034819
-0.99997,1.1768,-0.96105,9.787,-0.70463,-0.14997,-0.017715
-0.99997,1.118,-0.78453,9.8851,-0.56077,-0.24099,-0.062614
-0.9986,1.1964,-0.72569,9.6694,-0.34636,-0.26542,-0.10629
-0.88837,1.5495,-1.0395,9.8263,-0.13225,-0.21502,-0.12462
-0.76538,1.6475,-0.78453,9.6694,0.03207,-0.12584,-0.12614
-0.73599,1.9613,-0.25497,6.2174,-0.23274,-0.030849,-0.10354
-0.7518,0.25497,-0.84337,9.7478,-0.52382,0.047342,-0.063835
-0.77798,-0.05884,-0.86299,12.631,-0.063225,-0.029627,0.10629
-0.76593,1.6083,0.31381,11.297,-0.090713,-0.061392,0.10263
-0.763,1.2356,1.1572,9.0417,-0.13897,-0.0956,-0.072082
-0.75113,0.56879,0.078453,7.5511,-0.14478,-0.12278,-0.078191
-0.68384,1.4906,-1.9809,7.4531,-0.10507,-0.13806,-0.090408
-0.54257,1.6475,-2.0594,8.5514,-0.067501,-0.14142,-0.049786
-0.34741,1.0787,-1.0395,9.6694,0.027184,-0.11148,0.025351
-0.15662,0.35304,0,9.6301,0.28802,0.068722,0.072693
-0.0015564,0.17652,0.21575,9.3359,0.48686,0.20586,0.05284
0.11472,0.74531,-0.68647,8.7083,0.58215,0.14661,-0.06353
0.23297,1.3729,-1.5691,8.5514,0.58368,-0.0045815,-0.025351
0.34561,1.6867,-1.5102,8.7083,0.39248,-0.20006,-0.13592
0.4299,1.5102,-0.74531,9.0025,0.17623,-0.27214,-0.12828
0.51535,1.7456,-0.39227,9.2575,-0.086132,-0.26756,-0.087965
0.57867,1.8437,-0.39227,9.3163,-0.49786,-0.36408,0.018937
0.61301,1.5495,-0.80415,9.4928,-0.82864,-0.49694,0.11087
0.64545,1.5298,-1.4318,9.2575,0.088881,0.13622,-0.011301
0.68732,1.4318,-1.471,9.5125,-0.016188,0.10629,0.021991
0.71664,1.6083,-0.86299,9.6301,-0.074526,0.069333,-0.058948
0.7077,1.7456,-0.64724,9.434,-0.051313,0.039401,-0.083383
0.69464,1.6083,-0.80415,9.2183,0.043066,0.028405,-0.1014
0.68701,1.6083,-1.0395,9.0025,0.15547,0.045204,-0.1014
0.64621,0.98067,-1.4318,10.101,0.22052,0.073304,-0.085521
0.60883,1.3925,-1.1964,9.9636,0.20464,0.082161,-0.051618
0.5166,1.7456,-0.72569,9.0025,0.12401,0.055894,-0.01741
0.32788,1.9221,-1.2749,6.5312,0.035125,0.0076358,0.00030543
0.11929,0.5884,-1.5102,9.9636,-0.016799,-0.040928,0.032376
-0.078796,0.5884,-0.5884,12.337,-0.023824,-0.062919,0.023213
-0.24921,1.7456,0.31381,10.258,-0.00061087,-0.057116,0.0088575
-0.40225,1.1964,0.45111,8.316,0.038485,-0.034514,-0.0039706
-0.48199,0.74531,-0.31381,8.0022,0.079718,0.011301,-0.018326
-0.50369,1.5298,-1.118,8.3357,0.11332,0.062308,-0.024435
-0.45786,1.5495,-1.4318,9.1594,-0.43219,-0.25443,0.053451
-0.34464,1.0199,-0.62763,9.7478,-0.37018,-0.24251,0.047953
-0.22052,1.0395,-0.31381,9.7282,-0.24068,-0.19242,-0.020159
-0.091919,1.1376,-0.74531,9.1594,-0.050396,-0.098655,-0.069333
0.014832,1.5298,-1.5691,8.5514,0.14325,0.027184,-0.08827
0.13077,1.9221,-1.6279,8.7279,0.24343,0.11942,-0.058032
0.23013,2.0594,-1.1768,9.0613,0.21197,0.1405,-0.0054978
0.30646,1.7064,-0.94144,9.179,0.05681,0.095295,0.036652
0.36853,1.7064,-1.1964,9.1202,-0.34697,0.0039706,-0.051924
0.40359,1.8437,-1.3533,9.179,-0.5003,-0.099266,-0.048869
0.43863,1.6867,-1.0395,9.5125,-0.51343,-0.16402,0.020769
0.47345,1.3337,-0.8826,9.9439,-0.39126,-0.17471,-0.01405
0.49359,1.5887,-0.86299,9.6301,-0.17562,-0.13011,-0.036041
0.48587,1.7456,-1.0199,9.179,0.044593,-0.047953,-0.048564
0.46066,1.5495,-1.0591,9.0613,0.16677,0.046731,-0.06017
0.42206,1.6083,-0.78453,9.0417,0.17074,0.11759,-0.059254
0.35416,1.2945,-0.49033,9.2575,0.29871,0.13867,-0.046731
0.27298,1.0787,-0.52956,9.1202,0.15363,0.13806,-0.052534
0.20264,1.3533,-1.0199,9.2575,-0.051007,0.10018,-0.042455
0.13748,1.3337,-1.1768,8.9437,-0.24923,0.043066,-0.027184
0.048737,1.3533,-1.1964,9.0221,-0.33231,-0.014966,-0.018326
0.021118,1.2356,-0.72569,9.3163,-0.25687,-0.058643,-0.013439
-0.020203,1.2945,-0.27459,9.3752,0.28039,-0.075747,-0.016493
-0.05957,1.2356,-0.098066,9.3555,0.34697,-0.041539,-0.027794
-0.085693,1.118,-0.39227,9.3359,0.087965,0.14294,0.00030543
-0.092468,1.6083,-0.62763,9.3163,0.13317,0.12706,-0.0036652
-0.082764,1.5102,-0.90221,9.0613,0.13897,0.093768,-0.040623
-0.056305,1.6671,-1.118,8.9633,0.10049,0.045509,-0.022297
-0.02002,1.4514,-0.94144,9.2183,0.036652,-0.0079412,-0.009163
-0.0011597,1.3337,-0.86299,9.6694,-0.031154,-0.054367,0.0018326
0.020996,1.118,-0.54917,9.8851,-0.086743,-0.079412,0.0039706
0.045288,1.1964,-0.52956,9.689,-0.13103,-0.069944,0.0033598
0.056763,1.2945,-0.56879,9.3359,-0.12278,-0.04612,-0.030238
0.069977,1.5298,-0.62763,8.7279,-0.064752,-0.026267,-0.020464
0.078125,1.6475,-1.0983,8.8064,0.01069,-0.0042761,-0.0048869
0.079468,1.6475,-1.1768,9.3359,0.09499,0.01405,-0.016799
0.081757,1.5298,-1.0395,9.4144,0.15638,0.034514,-0.036346
0.063354,1.5298,-0.5884,9.3752,0.16249,0.057727,-0.041844
0.053131,1.4318,-0.31381,8.5318,-0.16585,0.078191,-0.046426
0.015625,1.3533,-0.54917,8.218,-0.1631,0.085521,-0.043982
-0.030945,1.0395,-1.3141,8.9437,-0.1011,0.078191,-0.055589
-0.062988,1.0199,-2.0986,9.8066,-0.20769,0.079718,-0.05681
-0.092316,1.118,-1.4906,10.199,-0.25412,0.087659,-0.015577
-0.10919,1.0591,-0.37265,10.062,-0.20464,0.10751,-0.009163
-0.14911,1.0591,0,9.179,-0.07422,0.11362,-0.009163
-0.17294,1.2945,-0.39227,8.3945,0.11576,0.1014,-0.019242
-0.1875,1.4318,-0.90221,8.8652,0.10629,0.097433,-0.024129
-0.18707,1.3729,-0.78453,9.434,0.0088575,0.11637,-0.037874
-0.17517,1.3925,-0.49033,9.7478,-0.0067195,0.048258,-0.022907
-0.15375,1.216,-0.39227,9.6694,-0.22358,-0.016493,0.072388
-0.13242,1.3729,-0.62763,8.4926,-0.33842,-0.023824,0.099876
-0.1246,1.3533,-1.118,7.9042,-0.44379,-0.078496,0.14997
-0.12323,0.8826,-1.6867,9.0417,-0.36621,-0.1347,0.13531
-0.11975,0.72569,-1.471,10.375,-0.11973,-0.13256,0.015272
-0.14966,0.80415,-0.90221,10.454,0.080023,-0.099571,-0.076358
-0.19534,1.0787,-0.90221,9.4928,0.18326,-0.076358,-0.093157
-0.25696,1.216,-0.68647,8.6887,0.17196,-0.10293,0.20708
-0.3136,0.90221,-0.23536,9.1202,0.045509,-0.17623,0.23121
-0.35535,0.76492,0,10.12,-0.11668,-0.25779,0.10324
-0.4281,1.0591,-0.37265,10.454,-0.21991,-0.29322,0.066584
-0.48172,1.2945,-0.098066,7.963,-0.14111,-0.21991,0.043066
-0.53082,0.60801,-1.471,9.7478,0.074831,-0.10721,0.039401
-0.5481,0.80415,-2.6282,11.003,0.25381,-0.050396,0.059559
-0.55338,1.6083,-0.39227,10.356,0.30543,-0.040317,0.13744
-0.60217,0.56879,0.54917,9.6694,0.083383,-0.085521,-0.0009163
-0.67377,1.1376,-0.17652,8.8064,-0.12156,-0.17898,-0.045204
-0.7861,1.9221,-0.25497,8.0807,-0.31826,-0.26359,0.24709
-0.90613,1.1768,0,9.6694,-0.51649,-0.3149,0.22327
-0.99149,1.2356,0.078453,10.513,-0.68875,-0.35003,0.17471
-0.99997,0.98067,-0.54917,9.9439,-0.7816,-0.37507,0.13011
-0.99997,0.90221,-0.72569,9.1986,-0.77336,-0.37324,0.087048
-0.99997,1.118,-1.471,8.2376,-0.6353,-0.32651,0.044899
-0.99997,1.1768,-2.3732,7.4531,-0.38393,-0.23976,-0.072998
-0.99997,1.6475,-2.8243,7.7865,-0.068722,-0.146,-0.10721
-0.99997,1.3533,-2.3732,9.0221,0.20372,-0.036652,-0.074526
-0.99997,1.3729,-1.3729,9.6694,0.33475,0.06353,-0.08827
-0.99698,1.5298,-0.80415,9.8066,0.31093,0.092546,-0.077885
-0.88315,1.6475,-0.80415,9.2575,0.18295,0.061392,-0.052534
-0.73434,1.7456,-0.80415,8.9044,0.0009163,-0.0048869,-0.045815
-0.59024,1.6867,-0.52956,8.8064,-0.17807,-0.086132,-0.058032
-0.439,1.4318,-0.39227,8.9437,-0.020464,0.025351,-0.054672
-0.25275,1.6671,-0.49033,8.8652,-0.0024435,0.039095,-0.069333
-0.038879,1.3533,-0.37265,9.179,0.037263,0.041539,-0.0048869
0.13519,1.0199,-0.80415,9.8263,0.068111,0.039401,-0.013744
0.30164,0.86299,-0.8826,9.787,0.070555,0.035736,-0.025351
0.45145,1.2945,-0.90221,9.5909,0.035736,0.022297,-0.032987
0.5719,1.216,-0.8826,9.4732,-0.020159,-0.012828,-0.029932
0.67111,1.5298,-0.96105,9.4732,-0.029932,-0.032987,-0.032987
0.75568,1.5298,-1.118,9.0417,0.071777,-0.01741,-0.029322
0.84232,1.5298,-1.3533,9.0221,0.019548,0.018021,-0.021075
0.91727,1.6083,-1.5102,8.8064,-0.074526,0.044288,-0.060476
0.97162,1.5298,-1.5691,9.0221,-0.15424,0.051924,-0.039706
1,1.5102,-1.7456,9.179,-0.17501,0.032376,-0.018631
1,1.3925,-1.8829,9.0417,-0.1292,-0.0009163,-0.0064141
1,1.7064,-1.8829,8.7083,0.013134,-0.016188,-0.0051924
1,1.3729,-1.8437,8.8652,0.061392,-0.0076358,-0.020159
1,1.118,-1.6475,9.179,0.079718,0.018326,-0.061392
1,1.4906,-1.5102,9.179,0.08827,0.046426,-0.081856
1,1.5298,-1.6279,9.0613,0.078802,0.059559,-0.0076358
1,1.6867,-1.3533,8.7475,0.04948,0.055283,-0.0082467
1,1.6671,-0.94144,9.0417,-0.018326,0.051618,-0.019548
1,1.5298,-0.74531,9.179,-0.11942,0.059254,-0.029322
1,1.4318,-1.118,9.0221,-0.042761,0.07758,-0.042455
1,1.5298,-1.2553,8.9437,0.040928,0.080329,-0.054062
1,1.5102,-1.118,9.1986,0.21838,0.082161,0.066279
1,1.2945,-1.1572,9.434,-0.20159,0.10263,0.049175
0.97443,1.4906,-1.0983,9.2771,-0.16096,0.14722,-0.12034
0.91168,1.6475,-1.1572,9.0221,-0.0033598,0.20953,-0.15241
0.83121,1.7456,-1.726,8.4926,0.21961,0.25259,-0.14508
0.75174,1.824,-1.8829,8.6299,0.41111,0.24038,-0.087659
0.68655,1.1376,-0.94144,9.8066,0.49114,0.17349,-0.010996
0.63962,0.76492,-0.39227,10.454,0.41936,0.058643,0.04948
0.56552,1.0395,-0.49033,9.8851,-0.31032,-0.080023,-0.044593
0.50327,1.2356,-1.471,9.179,-0.31276,-0.076053,-0.036652
0.44711,1.6475,-1.471,8.6887,-0.32132,-0.064446,-0.059559
0.38586,1.3533,-1.1572,9.787,-0.32345,-0.045509,-0.041539
0.33466,1.2356,-1.0003,10.434,-0.2642,-0.020159,-0.030543
0.25803,1.8437,-0.47072,9.434,-0.15272,0.027489,-0.032376
0.13751,2.1771,-1.216,7.0216,-0.059254,0.096822,-0.042455
0.018219,1.3925,-2.687,8.8064,-0.019548,0.1518,-0.051618
-0.07843,1.6867,-1.5691,10.532,-0.022297,0.16585,-0.044899
-0.15359,1.8044,0.31381,10.415,-0.049175,0.14478,-0.040012
-0.2319,1.2356,1.3337,9.0221,-0.086743,0.1069,-0.042455
-0.2991,1.1964,0.45111,8.218,-0.12584,0.064446,-0.048564
-0.33316,1.6475,-1.4122,7.8453,-0.15027,0.030238,-0.051007
-0.31812,2.0202,-2.4124,7.963,-0.14508,0.015577,-0.055589
-0.24051,1.6671,-1.9809,9.0417,-0.11576,0.021991,-0.058032
-0.14984,1.1964,-1.4318,9.6694,-0.087354,0.039706,-0.053451
-0.057343,1.4318,-1.2553,9.9636,-0.073304,0.048564,-0.078802
0.032745,1.7456,-1.118,9.5125,-0.076969,0.041844,-0.086437
0.12238,1.8437,-1.0395,9.1202,-0.093157,0.022907,-0.041539
0.19467,1.9221,-1.118,8.6299,-0.1066,-0.0036652,-0.047647
0.25369,1.9809,-1.3533,8.218,-0.10201,-0.024435,-0.058948
0.29626,1.9613,-1.2553,8.8652,-0.085521,-0.032681,-0.06689
0.32187,1.3925,-1.2553,9.434,-0.069639,-0.027794,-0.071166
0.34628,1.2945,-1.1964,9.5125,-0.058948,-0.013439,-0.075136
0.33856,1.1964,-1.216,9.2771,-0.16768,0.012523,-0.085521
0.32294,1.4906,-1.3141,9.0417,0.10782,0.1744,-0.079107
0.28824,1.2945,-1.4318,9.1202,0.28405,0.26756,-0.0079412
0.25604,1.118,-1.4906,9.5713,0.30788,0.26878,0.050091
0.22406,1.216,-1.2553,9.5125,0.20678,0.197,0.075442
0.18076,1.1964,-1.3533,9.2771,0.037568,0.088881,0.03879
0.13684,1.3533,-1.471,9.1594,-0.12675,-0.0082467,-0.017715
0.085052,1.8044,-1.3533,8.9437,-0.23579,-0.062308,-0.06353
0.037567,1.4318,-1.118,9.0221,0.32773,-0.19975,-0.083689
-0.0067444,1.3533,-1.216,9.1986,0.39065,-0.058643,-0.061697
-0.035339,1.4318,-1.1768,9.5125,0.45326,0.10171,-0.03146
-0.080902,1.5495,-0.94144,9.2575,0.54,0.22877,-0.0562
-0.13623,1.6083,-1.118,9.179,0.62094,0.30299,-0.085521
-0.19336,1.5298,-1.6475,8.7083,0.6185,0.33781,-0.095906
-0.23944,1.5298,-1.6475,8.8652,0.097128,0.32162,-0.083383
-0.27637,1.3337,-1.4318,9.1986,0.21777,0.23976,-0.080329
-0.31192,1.0395,-1.1572,9.434,-0.24496,0.14569,0.042455
-0.38113,0.8826,-0.94144,9.1202,-0.80115,0.0048869,0.087659
-0.43787,1.118,-1.118,8.6299,-1.2562,-0.23824,0.019548
-0.48688,1.5102,-1.216,8.7475,-1.4664,-0.54031,0.080329
-0.52548,1.216,-1.2553,9.1202,-1.3812,-0.8207,0.10232
-0.58212,0.80415,-0.96105,9.1986,-1.0733,-0.96364,0.10446
-0.6232,1.216,-0.72569,9.0613,0.50671,-0.96089,0.0562
-0.66113,1.3337,-1.0199,8.8652,0.23579,-0.8491,0.017715
-0.71445,1.216,-1.5691,9.3752,0.0024435,0.11362,0.11393
-0.746,0.98067,-2.0594,10.062,0.022602,0.12645,0.16982
-0.78125,0.49033,-2.3144,11.14,0.014661,0.12828,0.002138
-0.79114,0.8826,-1.3533,10.925,-0.018631,0.12126,0.027794
-0.81891,0.98067,-1.216,9.1594,-0.078496,0.12431,0.048869
-0.82224,1.4318,-1.1572,7.4531,-0.16982,0.13134,0.0562
-0.83383,1.4906,-1.0199,7.5511,-0.24984,0.12217,0.067195
-0.80997,0.70608,-0.86299,8.7475,-0.20953,0.15455,0.087048
-0.77216,-0.078453,-0.80415,9.689,0.13378,0.16585,0.073304
-0.67657,-0.05884,-0.49033,11.258,0.20342,0.12798,0.011912
-0.56378,-0.17652,1.0787,12.199,0.20342,0.089797,0.16738
-0.40991,0.35304,0.25497,11.317,0.14142,0.020159,0.15333
-0.24994,1.5102,-1.8044,8.7279,0.069944,-0.061697,0.17562
-0.065674,1.9221,-3.0793,7.4727,0.043371,-0.15302,0.13531
0.099945,2.0594,-2.9224,7.3158,-0.12126,-0.23427,0.12339
0.27103,2.2359,-2.1182,7.963,-0.020464,-0.26328,0.11668
0.42599,1.824,-1.5691,8.7279,0.10507,0.11454,0.029322
0.57858,1.6083,-1.6475,9.179,0.041844,0.063835,0.013134
0.71487,2.1575,-1.3533,8.7083,-0.010079,-0.0073304,0.073915
0.8125,2.3732,-1.3337,8.5514,0.036957,-0.051924,0.074526
0.88657,2.5301,-1.6475,8.4141,0.015882,-0.09499,0.013134
0.95535,2.0006,-1.7456,8.4337,-0.094684,-0.14142,0.0051924
0.99741,2.0202,-1.9613,8.7083,-0.20861,-0.18051,0.021991
1,1.824,-2.0986,8.8848,-0.25259,-0.20403,0.027489
0.99573,1.6867,-1.7456,9.0221,0.15241,0.033292,0.016188
0.94675,1.7456,-1.824,9.0417,0.27184,0.098349,-0.0039706
0.86307,2.0006,-2.2751,8.4926,0.36652,0.14233,-0.095906
0.7655,2.2948,-1.9613,8.8064,0.39095,0.15882,-0.065668
0.6492,2.0006,-1.2553,9.2575,0.33262,0.14386,-0.03146
0.51691,2.0594,-0.72569,9.5125,0.21533,0.097433,-0.002138
0.38089,2.0594,-0.74531,9.4732,0.081245,0.032376,0.019548
0.26315,2.1378,-1.0591,8.8848,-0.020159,-0.009163,0.029932
0.13837,2.432,-1.4318,8.5906,-0.062919,-0.014661,0.042761
0.040192,2.0594,-1.5691,8.5318,-0.063225,0.0045815,0.048258
-0.052277,2.0006,-1.1572,8.6887,-0.025962,0.052229,-0.009163
-0.12851,1.3925,-1.118,9.179,0.043371,0.11301,-0.012217
-0.18079,1.7456,-1.5691,9.179,0.11057,0.17898,-0.012828
-0.23233,1.6083,-1.6475,9.179,0.15027,0.23824,-0.007025
-0.26517,1.6671,-1.7848,8.9437,0.15669,0.25809,0.0082467
-0.27982,1.8437,-1.9417,10.277,0.12126,0.23549,0.026878
-0.31921,1.7456,-1.4906,9.4732,0.039401,0.19609,0.025962
-0.38165,1.824,-1.471,10.062,0.019853,0.16982,0.03543
-0.44907,1.5495,-0.90221,10.062,0.017715,0.1576,0.038179
-0.51254,1.9221,-0.80415,9.4928,0.026878,0.16341,0.025351
-0.55554,2.1575,-1.118,8.0611,0.058948,0.17257,0.028711
-0.56635,2.0006,-1.3533,8.2376,0.10537,0.17715,0.043982
-0.53217,2.2948,-1.3337,8.4337,0.12553,0.16738,0.054978
-0.45792,2.0006,-1.3337,8.8652,0.10079,0.1463,0.045509
-0.35803,1.8437,-1.6475,9.2183,0.051313,0.04612,-0.18387
-0.2345,1.6867,-1.7456,9.5125,0.12217,0.049175,-0.2025
-0.079132,1.7064,-1.5887,9.2575,0.16554,0.074526,-0.057421
0.052704,1.6867,-1.2749,9.0417,0.15608,0.10385,-0.088575
0.16971,1.7456,-1.3141,8.6887,0.11454,0.12828,-0.10965
0.24591,1.6083,-1.5102,8.8064,0.079412,0.13286,-0.12492
0.31177,1.5298,-1.7456,8.8848,-0.073609,0.11637,-0.13867
0.3627,1.8044,-1.8044,8.7083,-0.03146,0.10201,-0.16127
0.40396,1.7064,-1.8044,8.4337,-0.007025,0.028405,0.016188
0.42746,1.7456,-1.6475,8.8652,0.0036652,0.02138,0.018021
0.43448,1.6867,-1.5298,9.179,0.0042761,0.012217,-0.018937
0.4317,1.5495,-1.6671,9.2575,0.00061087,0.0061087,-0.011301
0.42035,1.6867,-1.6671,9.3359,-0.0045815,0.0058032,-0.0015272
0.41379,1.7456,-1.5887,9.179,-0.0094684,0.0064141,0.0039706
0.4054,1.4906,-1.5102,9.2575,-0.012828,0.0067195,0.0085521
0.39883,1.6083,-1.471,9.179,-0.013439,0.01405,0.012217
0.39658,1.7064,-1.4318,9.1202,0.0088575,0.024435,0.037874
0.38272,1.5298,-1.4318,9.0417,0.031765,0.029016,0.043371
0.35663,1.6867,-1.6475,8.9437,0.041539,0.033903,0.01741
0.35666,1.5298,-1.5102,9.0221,0.026878,0.047037,0.010996
0.35764,1.7456,-1.5102,9.1202,0.0076358,0.057421,0.009163
0.34641,1.5495,-1.4906,9.3555,0.00030543,0.051313,0.02474
0.34955,1.7652,-1.471,9.0417,-0.015272,0.03879,0.038179
0.34952,1.7456,-1.6475,8.8652,-0.0076358,0.03146,0.03879
0.32101,1.9221,-1.5102,8.9437,0.020769,0.026267,-0.0076358
0.30151,2.1378,-1.5298,9.0417,0.027184,0.025045,-0.029016
0.28769,2.1771,-1.6671,9.0417,0.0064141,0.029932,0.044288
0.27768,2.334,-2.1182,8.8848,-0.023213,0.039401,0.039401
0.26465,2.3732,-2.1967,8.9437,-0.050702,0.048564,0.037568
0.25153,2.432,-2.0398,9.0417,-0.072082,0.052534,0.026878
0.23718,2.2751,-1.824,9.0417,0.00061087,0.054367,0.016493
0.21097,2.2359,-1.6671,8.8848,0.0054978,0.055589,0.0076358
0.20392,2.0006,-1.4318,8.7279,0.2135,0.13836,0.07758
0.18857,1.6475,-1.4318,8.7279,0.16035,0.13408,0.10354
0.19568,1.7456,-1.0199,8.4926,0.029322,0.072082,0.032376
0.17297,1.7456,-1.1768,9.3359,-0.1124,-0.0012217,0.050702
0.16284,2.0594,-1.0591,8.8652,-0.20036,-0.072082,0.063225
0.11435,2.2948,-0.94144,7.9434,-0.20433,-0.11393,0.07422
-0.0061035,1.5298,-1.0199,6.1782,-0.12675,-0.10354,0.079107
-0.17175,-1.5495,-1.824,11.866,0.0048869,-0.050091,0.073304
-0.36279,-1.1376,-2.2751,13.886,0.12004,0.012217,-0.10537
-0.53226,1.5298,-1.9809,9.8263,0.080634,0.053145,-0.097738
-0.66473,1.3533,-1.8829,7.2373,0.031765,0.068722,0.10721
-0.77417,1.0395,-1.118,7.1196,0.015577,0.096211,0.074831
-0.83435,1.4318,-0.31381,8.2572,0.014966,0.14416,0.037874
-0.85831,1.0395,-0.49033,9.787,0.034514,0.17715,0.00061087
-0.85315,1.118,-0.80415,10.16,0.10385,0.19181,-0.041844
-0.83392,1.4906,-1.0591,9.8066,0.2022,0.2135,-0.079718
-0.78979,2.1378,-1.0199,9.3359,0.26176,0.24282,-0.077885
-0.72559,2.687,-1.0395,9.2771,0.24771,0.2419,-0.063225
-0.64294,2.687,-1.2749,9.179,0.16829,0.19548,-0.06353
-0.55875,2.2948,-1.6671,8.4926,0.04948,0.12462,-0.036957
-0.44736,2.0006,-2.3732,8.4141,-0.065973,0.048564,-0.02474
-0.31815,1.7064,-2.2751,8.8064,-0.13897,-0.011912,-0.03146
-0.17392,0.92183,-1.7456,9.3359,-0.15974,-0.038485,-0.0562
-0.040771,0.80415,-1.4318,9.3163,-0.15302,-0.031154,-0.076358
0.069519,0.96105,-1.5691,9.0417,-0.14111,-0.0061087,0.04215
0.16721,1.1768,-1.5298,8.8064,-0.14416,0.024129,0.040317
0.26126,1.118,-1.4318,8.7083,-0.16035,0.047953,-0.047647
0.34137,1.1964,-1.3729,8.5906,-0.17807,0.054978,-0.036041
0.40814,1.1768,-1.1964,8.5514,-0.18051,0.066584,-0.023824
0.47018,1.2945,-1.5102,8.9044,-0.15272,0.072693,-0.0058032
0.54443,1.4318,-1.824,9.434,-0.10751,0.065668,0.014966
0.61063,1.3729,-1.471,9.5713,-0.065057,0.061392,0.033598
0.66083,1.5102,-1.3337,9.434,-0.03146,-0.17746,-0.10873
0.71292,1.6083,-1.5102,9.5125,0.19303,-0.25137,-0.19212
0.76144,2.0006,-1.7848,9.0417,0.34819,-0.24648,-0.15272
0.77588,1.8044,-2.0006,9.0417,0.43402,-0.2248,-0.1686
0.76254,1.3533,-1.7456,9.3359,0.45051,-0.19426,-0.13408
0.70181,1.3925,-1.3141,10.12,0.40287,-0.14264,-0.11698
0.61655,1.5298,-1.0983,9.6694,-0.35094,-0.10599,-0.10599
0.50958,1.5495,-1.1964,8.8652,-0.25565,-0.10537,-0.082467
0.3931,1.4318,-1.5102,8.7279,0.4609,-0.10263,-0.03146
0.30472,1.3533,-1.3729,8.8064,0.37232,-0.073915,0.048258
0.19534,0.70608,-1.3141,9.5713,0.24251,-0.018631,-0.22755
0.085297,0.70608,-1.1964,9.9636,0.065973,-0.00030543,-0.21289
-0.050079,1.6671,-1.118,8.0807,-0.18143,-0.027794,-0.22907
-0.21954,1.7064,-0.80415,7.0608,-0.40164,-0.094073,-0.2193
-0.41534,0.80415,-0.49033,8.8848,0.3879,-0.19609,-0.1689
-0.57394,0.17652,-1.6671,12.023,0.45387,-0.28802,-0.10904
-0.6962,1.4318,-2.8243,11.317,-0.65851,-0.34728,0.18479
-0.75586,2.0006,-2.5105,10.16,-0.6744,-0.36774,0.18906
-0.7822,1.6867,-1.5691,9.6497,-0.65149,-0.35736,0.097738
-0.80276,1.1964,-0.72569,9.0025,-0.58735,-0.33353,0.14019
-0.82904,0.60801,-0.80415,8.8652,-0.48503,-0.29535,0.17685
-0.81564,0.70608,-1.0199,8.5318,-0.35247,-0.2587,0.20556
-0.76291,0.74531,-0.37265,8.8652,-0.55008,-0.22419,0.22297
-0.65268,0.54917,0.37265,10.14,-0.62308,-0.135,0.21441
-0.50067,0.98067,0.50995,9.434,0.17196,0.058948,0.0045815
-0.36652,0.98067,-0.21575,8.7083,0.05681,0.069639,-0.072998
-0.23444,1.0395,-0.94144,8.1003,0.029322,0.12706,0.018937
-0.125,1.3533,-1.824,7.6296,0.10537,0.22938,0.026573
-0.018158,1.3337,-2.4517,8.0807,0.25443,0.38271,0.033903
0.10315,1.824,-1.9809,9.0417,0.26298,0.41997,0.037263
0.20074,1.4906,-2.0594,9.3359,0.0012217,0.2474,0.089186
0.31082,1.8633,-2.0006,9.3359,-0.24496,0.01405,0.094684
0.40308,1.8633,-2.0594,9.1986,-0.04612,0.036346,-0.050396
0.50766,2.0594,-2.1967,9.2183,0.0094684,0.046426,-0.057116
0.58203,2.0006,-1.8829,9.179,0.050702,0.064141,-0.02138
0.61893,2.0594,-2.0006,8.9633,0.059254,0.08094,-0.030238
0.62915,2.0006,-2.0986,8.7083,0.032376,0.086437,-0.03146
0.61871,2.2751,-1.6671,8.5514,-0.020464,0.074831,-0.029932
0.58994,2.1771,-1.4906,8.8848,-0.070555,0.0562,-0.034208
0.55151,1.824,-1.5691,9.179,-0.086743,0.04215,-0.043371
0.52045,2.0006,-1.8829,9.434,-0.053145,0.036346,-0.012828
0.48956,2.1182,-1.471,9.6301,0.026878,0.035125,-0.014966
0.45636,1.9809,-1.0395,9.6694,0.13347,0.057727,-0.061697
0.39413,1.6083,-0.72569,9.2183,0.19761,0.099571,-0.074526
0.3223,1.3729,-1.0199,8.9437,0.20464,0.11912,-0.063225
0.25278,1.824,-1.3533,8.7279,0.15088,0.11332,-0.025962
0.18567,1.824,-1.5298,8.8064,0.058032,0.074831,-0.0076358
0.14951,1.8437,-1.7456,8.8064,-0.01069,0.041233,-0.0018326
0.1286,1.824,-1.7456,8.8064,0.072082,0.034208,0.014966
0.10883,1.9221,-1.7456,8.9044,-0.03879,0.022602,0.025656
0.098114,1.824,-1.8829,8.5514,-0.0956,0.020464,0.0039706
0.09137,1.6083,-2.0006,8.5514,-0.1405,0.022297,0.0051924
0.088654,1.6867,-1.9025,8.8652,-0.14355,0.016188,0.0085521
0.089355,1.6083,-1.8829,9.0417,-0.10354,0.017104,0.020159
0.087372,1.2945,-1.6475,9.2575,-0.041844,0.032987,0.016188
0.090637,1.5298,-1.6867,9.0417,0.022907,0.051618,0.01069
0.080841,1.5298,-1.9613,9.0417,-0.081856,-0.030543,0.0036652
0.1004,1.7456,-1.7456,9.3359,-0.072998,-0.018631,-0.0079412
0.10065,1.4906,-1.1964,9.4928,-0.051007,-0.0009163,0.023518
0.099701,1.4906,-1.1572,9.2575,-0.025351,0.016188,0.030543
0.10281,1.5887,-1.1768,9.2575,-0.023213,0.020159,0.04215
0.094238,1.6671,-1.3337,9.0613,-0.048258,0.017715,0.048869
0.095856,1.6475,-1.824,8.9633,-0.077885,0.020464,0.037568
0.096558,1.5298,-1.8044,9.1594,-0.094379,0.029016,0.018631
0.10144,2.0594,-1.5887,9.179,-0.054978,-0.24221,-0.057727
0.10779,1.7652,-1.3729,9.1594,-0.18051,-0.3372,-0.10537
0.10635,1.9809,-1.5102,9.0417,-0.31246,-0.37446,0.043982
0.11255,1.6867,-1.8829,8.7279,-0.41692,-0.38149,0.050396
0.11844,1.6867,-2.2751,8.7868,-0.44776,-0.3821,0.070555
0.13031,1.6867,-2.2751,8.8848,-0.39828,-0.37232,0.048869
0.15524,1.3533,-1.5691,9.2183,0.15547,-0.3598,0.0036652
0.1893,1.118,-0.96105,9.5125,0.062919,-0.32803,-0.0281
0.20444,0.92183,-1.0199,9.3163,0.027184,-0.24587,-0.10873
0.22073,1.118,-1.6475,8.7279,0.046426,-0.12675,-0.076969
0.22528,1.3925,-1.824,8.3749,-0.029322,-0.027794,-0.11912
0.20587,1.3533,-0.94144,9.6694,-0.12981,0.0048869,-0.083689
0.15338,1.4318,-0.86299,10.12,-0.19884,-0.021991,-0.076358
0.067383,2.0594,-0.72569,9.1006,-0.22571,-0.063225,-0.090713
-0.012299,2.3732,-0.27459,8.2572,-0.2813,-0.09499,-0.10599
-0.086914,2.0594,-0.23536,7.963,-0.10354,-0.092546,-0.11668
-0.14124,2.1182,-0.84337,7.963,0.2978,0.051618,0.080634
-0.13678,1.9809,-1.471,8.5318,0.16463,0.080329,0.1011
-0.11829,1.6083,-2.0594,10.454,0.07758,0.12339,-0.0079412
-0.082581,1.6475,-1.0983,10.454,0.018937,0.16005,-0.0024435
-0.05484,-0.05884,-1.6671,9.5909,-0.0061087,0.1912,0.0051924
-0.0055542,-0.37265,-1.471,10.572,0.035736,0.23854,0.018631
0.029205,0.35304,-1.5691,11.552,0.13347,0.31673,0.026878
0.032654,1.1964,-1.0199,9.9439,0.25595,0.40195,0.047647
-0.02356,1.1768,-0.78453,8.4926,0.36682,0.42638,0.060476
-0.11157,1.2356,-1.118,7.7865,0.2416,0.40806,0.090408
-0.18024,1.3925,-1.7848,8.0807,0.11606,0.3937,0.076053
-0.24298,2.0006,-1.8829,8.3749,0.054978,0.31979,0.075136
-0.25568,2.0202,-1.6475,9.1986,0.13775,0.16738,0.16066
-0.25525,1.6867,-1.0199,9.5321,0.19884,0.074526,0.22419
-0.24231,1.9809,-0.68647,9.179,0.3427,0.0079412,0.15852
-0.20676,2.0202,-0.47072,8.7279,0.38362,-0.11148,0.03207
-0.14944,1.6867,-0.39227,8.9437,-0.24099,-0.087965,0.036652
-0.079651,1.4906,-1.118,9.3163,-0.2193,-0.11973,0.036041
-0.020569,1.8633,-1.216,8.9437,-0.11729,-0.12309,-0.021686
0.023804,1.824,-1.2553,8.6299,0.021686,-0.091324,-0.03543
0.034576,1.5102,-1.0003,8.7475,0.14264,-0.043371,-0.037874
0.011353,1.4318,-1.0199,9.6301,0.2025,-0.010996,-0.017715
-0.014587,1.7456,-1.1768,10.513,0.20892,-0.002138,0.013134
-0.10037,1.824,-1.6475,8.7083,0.18509,-0.0009163,0.033292
-0.22073,1.7064,-3.2558,9.434,-0.35003,-0.3372,0.0079412
-0.35852,0.8826,-2.1182,11.67,-0.40348,-0.33262,-0.011606
-0.50287,1.4318,-0.31381,12.239,-0.35216,-0.29474,0.020464
-0.65347,2.0006,0.68647,9.1202,-0.21136,-0.21258,-0.043982
-0.75604,1.4906,0.52956,7.5511,-0.037874,-0.10446,-0.080023
-0.80219,1.0199,-0.62763,7.5903,0.10263,0.0024435,-0.062614
-0.78665,1.6671,-1.4906,8.0022,0.16646,0.065668,-0.025962
-0.69577,1.4906,-1.6867,8.6495,0.1518,0.08094,0.0051924
-0.57324,1.3533,-1.5102,9.1986,-0.013134,0.067806,0.015577
-0.44638,1.8437,-1.3729,9.3163,-0.12553,0.029932,-0.011606
-0.31607,2.1378,-1.216,9.2183,-0.22419,-0.018937,-0.030238
-0.22266,2.1575,-1.216,8.7868,-0.30788,-0.044899,-0.035736
-0.13379,2.1771,-1.6279,8.4141,-0.3656,-0.047953,-0.026878
-0.064362,2.0594,-1.9809,8.316,-0.39554,-0.038485,-0.0067195
0.010925,2.0594,-1.8829,9.0417,-0.3937,-0.018326,0.010385
0.069794,1.8437,-1.8044,9.6694,-0.32681,0.0079412,0.021686
0.12006,1.6083,-1.3533,10.003,-0.2193,0.040623,-0.0030543
0.15591,1.5495,-1.2553,9.5713,-0.10843,0.085216,-0.0076358
0.16422,1.824,-1.5691,9.1202,-0.013134,0.12645,-0.04948
0.17896,1.6867,-1.5298,8.9437,0.051007,0.14722,-0.065973
0.16879,1.4318,-1.1964,9.3359,0.064141,0.13928,-0.049786
0.15323,1.5495,-0.80415,9.5125,0.02138,0.10476,-0.035125
0.12561,1.6475,-0.86299,9.5125,-0.067501,0.048564,-0.025045
0.07724,1.7652,-1.0003,9.3359,-0.17013,-0.023824,-0.012217
0.028015,1.6867,-0.90221,9.1202,0.3094,0.28986,-0.016188
-0.021606,1.4514,-0.41188,9.179,0.22633,0.22755,0.06017
-0.038177,1.3729,-0.098066,9.2183,0.10324,0.1405,0.020159
-0.11261,1.6475,-0.25497,9.0417,0.098349,0.135,0.048564
-0.15485,1.7456,-0.94144,8.8456,0.16463,0.16646,0.064446
-0.17996,1.8633,-1.3533,9.0025,0.25198,0.19639,0.060781
-0.18542,1.7456,-1.3337,9.2575,0.43524,0.25809,0.0097738
-0.17523,1.1768,-0.80415,9.3359,0.5962,0.29871,-0.047647
-0.17059,1.2945,-0.84337,8.8652,0.68417,0.30604,0.010996
-0.15857,1.1964,-0.90221,9.0221,0.65332,0.25381,-0.0030543
-0.12714,1.3533,-0.86299,9.2575,0.46334,0.1408,0.13347
-0.1123,1.1964,-0.49033,10.003,0.17837,0.01069,0.16799
-0.11804,1.1964,-0.39227,9.2575,-0.083689,-0.13378,0.17043
-0.16098,1.0395,-0.84337,8.8652,-0.27672,-0.2645,0.18112
-0.21567,1.2749,-0.49033,9.3359,-0.30818,-0.32773,0.16341
-0.29749,1.5298,0.76492,10.415,-0.19212,-0.33262,0.077885
-0.38657,0.98067,1.0199,10.689,0.12584,-0.2981,-0.0039706
-0.49094,1.0591,0.68647,10.591,0.023518,-0.24801,-0.054062
-0.58478,0.70608,-0.86299,10.375,-0.15424,-0.19242,-0.0076358
-0.67715,1.2945,-1.6671,9.7478,-0.35736,-0.17074,0.011301
-0.71078,0.98067,-0.94144,9.5713,-0.55894,-0.19517,0.051618
-0.72153,1.1964,-0.098066,8.3749,-0.67745,-0.22785,0.078191
-0.70868,0.56879,0.098066,7.8649,-0.019548,-0.27978,0.074526
-0.66867,0.56879,-1.1572,7.2961,0.11484,-0.29505,0.047953
-0.5744,0.56879,-2.3732,7.3354,-0.49358,-0.24282,-0.051313
-0.43518,1.0395,-1.8829,8.218,-0.36774,-0.1518,-0.0094684
-0.2793,0.80415,-0.96105,9.179,-0.26756,-0.057421,-0.11729
-0.14774,0.74531,-0.019613,10.199,-0.19456,0.0061087,-0.15516
-0.082092,1.3337,0.52956,10.611,-0.15424,0.0079412,-0.13958
-0.069153,1.8633,0.70608,9.8851,-0.17287,-0.022297,-0.093157
-0.098541,1.9809,0.56879,8.8652,-0.68631,-0.055894,-0.075442
-0.14941,2.0594,0.31381,8.1591,-0.61239,-0.11301,-0.075136
-0.20734,2.0594,-0.52956,8.2376,-0.22969,-0.19181,-0.016188
-0.24484,1.9221,-1.5102,10.689,-0.20097,-0.16371,-0.040928
-0.28262,2.0006,-1.1572,10.513,-0.14203,-0.096211,0.0045815
-0.32535,1.3925,-0.23536,11.709,-0.07422,-0.0015272,0.028405
-0.40634,1.1964,0.72569,11.631,-0.040317,0.06689,0.05681
-0.48813,1.5298,0.98067,10.375,-0.055589,0.07758,0.075747
-0.55096,1.7064,0.45111,9.0025,-0.10568,0.060476,0.071777
-0.58316,1.824,-0.56879,8.1787,-0.15485,0.04612,0.036957
-0.53085,2.0006,-1.824,8.2768,-0.09896,0.045509,0.050396
-0.41971,2.1575,-1.824,8.2768,0.007025,0.061087,0.058948
-0.24826,2.0594,-1.3533,9.1594,0.085827,0.075747,-0.034208
-0.052795,1.8044,-0.62763,9.3359,0.1014,0.07758,-0.025351
0.11331,2.1378,-0.43149,9.2575,0.059865,0.063225,-0.013134
0.24423,1.8633,-0.39227,9.179,-0.0018326,0.036346,0.0064141
0.33264,1.824,-0.49033,8.8848,-0.044899,0.013439,0.020769
0.3768,2.0006,-0.56879,8.4337,-0.062003,0.010385,0.033598
0.39322,1.3729,-0.17652,8.5514,-0.054978,0.015882,0.11606
0.38818,0.98067,-0.68647,9.1202,-0.022602,0.033292,0.13989
0.36218,0.86299,-1.3141,9.3163,0.020159,0.057116,0.05284
0.33194,0.8826,-1.6279,9.4732,0.057116,0.076358,0.050091
0.31097,0.90221,-1.0395,9.6694,0.061392,0.095906,0.050702
0.29214,1.1964,-0.52956,9.5713,0.029322,0.12339,0.051007
0.25861,1.0395,-0.27459,8.8064,-0.00061087,0.13164,0.055283
0.21533,1.2356,-0.5884,8.7475,-0.010385,0.15974,0.076664
0.19009,1.1768,-0.90221,9.5125,-0.040012,0.19303,0.060781
0.14481,1.1964,-0.86299,9.8066,-0.03146,0.16066,0.042455
0.064606,1.9221,-0.80415,8.7279,0.034819,0.10201,0.082161
-0.032379,2.079,-0.78453,8.0611,0.012828,0.041844,-0.035736
-0.1351,1.0395,-1.4318,10.297,-0.12248,-0.052229,-0.065668
-0.22668,1.6867,-1.0591,11.356,-0.29658,-0.13439,-0.0024435
-0.32092,2.0594,-0.33343,10.12,-0.43707,-0.1857,0.036652
-0.37762,1.7652,-0.23536,8.3945,-0.51435,-0.2138,0.048564
-0.39783,1.5102,-0.84337,7.6296,-0.36011,-0.14966,0.053451
-0.36813,1.6475,-1.824,8.3749,-0.28008,-0.15272,0.089797
-0.28226,1.5298,-1.6671,9.179,-0.24709,-0.12492,-0.00030543
-0.17126,0.98067,-1.3141,9.5713,-0.23824,-0.082772,0.0064141
-0.089752,1.0395,-1.0199,9.8066,-0.22724,-0.049175,0.026267
-0.0084534,1.3925,-1.118,9.3555,-0.15974,-0.029932,0.034208
0.06189,1.6867,-1.118,9.1986,-0.53512,-0.0079412,0.036041
0.12781,1.824,-1.0199,9.0613,-0.46059,0.027794,0.042455
0.15314,1.8633,-0.90221,8.8848,0.17165,0.1066,0.064141
0.16641,2.432,-1.118,8.7083,0.11179,0.19945,0.030238
0.15552,2.8047,-1.0199,8.7083,-0.050396,0.26328,0.15272
0.15805,2.3732,-0.70608,9.0417,-0.23182,0.25962,0.20159
0.16058,1.9221,-0.56879,9.3359,-0.28619,0.20739,0.23305
0.15659,2.1575,-0.80415,9.179,-0.16371,0.14142,0.23182
0.15701,1.6867,-1.1964,8.9437,-0.0039706,0.072998,0.18082
0.18408,1.5887,-1.8829,9.6301,0.13286,0.07025,0.11851
0.24847,1.6671,-2.2948,9.7478,0.55375,0.13989,0.12156
0.27527,1.5298,-2.1182,9.2575,0.63805,0.24099,0.14722
0.33826,1.6867,-1.9809,8.8848,0.62186,0.32223,0.021686
0.38049,1.6083,-1.6475,8.7083,0.5339,0.35216,0.031765
0.41733,1.9025,-1.5102,8.5906,0.41264,0.34575,0.054978
0.4176,2.0202,-1.4318,8.4141,0.32406,0.33231,0.078496
0.40372,2.0006,-1.1572,8.5318,0.082467,0.31001,0.091324
0.37094,1.6671,-0.70608,8.8848,0.35155,0.29108,0.10415
0.33328,1.2356,-1.216,9.1202,-0.26848,0.093157,-0.0281
0.26422,1.2945,-2.5301,8.4141,-0.44318,0.067501,-0.0061087
0.2001,1.5102,-3.3146,8.4141,-0.57879,0.029016,-0.05681
0.15253,1.6083,-2.6086,9.179,-0.64752,-0.0097738,-0.059865
0.12689,1.2945,-1.4906,9.3163,-0.66951,-0.04215,-0.053756
0.075714,1.2945,-0.70608,9.0417,-0.66065,-0.074831,-0.050396
0.019623,1.0395,-0.68647,8.8652,-0.63194,-0.10599,-0.049786
-0.070465,1.0591,-1.4318,8.2768,-0.58796,-0.1292,-0.043371
-0.15417,0.80415,-2.2751,9.2575,-0.13195,-0.013744,0.088575
-0.19672,-0.2942,-1.4906,11.846,-0.01405,0.03879,0.075747
-0.25797,-0.35304,-0.62763,11.454,0.038179,0.069333,0.052534
-0.34076,0.098066,-1.2553,9.6301,0.032681,0.07025,0.071471
-0.38083,1.1768,-2.432,8.7868,-0.0094684,0.054367,0.085521
-0.3858,2.5497,-2.7459,8.316,-0.07758,0.033903,0.079107
-0.33298,2.1575,-1.4318,9.3752,-0.17959,0.013134,0.072998
-0.25464,0.74531,0.37265,11.003,-0.2978,-0.01069,0.080634
-0.18747,0.76492,0.98067,11.14,-0.39676,-0.045815,-0.0058032
-0.14737,1.118,-0.94144,9.7478,-0.45204,-0.078802,0.013439
-0.13641,1.6083,-1.8829,8.1003,-0.45143,-0.092546,0.053451
-0.12961,1.824,-0.86299,7.5511,-0.39218,-0.083994,0.041233
-0.14313,1.8044,-1.8437,7.3942,-0.26725,-0.066279,0.027489
-0.14105,1.9809,-2.2751,7.6296,-0.098655,-0.038485,0.016493
-0.12564,1.8437,-1.5691,8.7083,0.046426,0.017715,0.0097738
-0.10837,1.7456,-0.41188,9.179,0.12278,0.083383,-0.0015272
-0.089569,1.3337,0.56879,9.6694,0.086743,-0.17715,-0.039706
-0.072479,1.2945,0.19613,9.7478,-0.027794,-0.18876,-0.0024435
-0.028473,1.6867,-0.72569,9.0613,0.043066,-0.11698,-0.022297
0.074677,1.9221,-1.3337,8.8652,0.22938,-0.0033598,-0.13317
0.20279,1.4318,-1.5298,9.0417,0.43371,0.13256,-0.1857
0.35019,1.7456,-1.1768,9.3359,0.5455,0.22846,-0.16921
0.46686,1.2945,-0.84337,9.6694,0.52565,0.25565,-0.11393
0.56152,1.5102,-0.70608,9.6497,0.37599,0.22266,-0.074831
0.61823,1.6867,-0.56879,9.4928,-0.12737,0.13531,0.023518
0.66367,1.6083,-1.0003,9.179,-0.43219,0.0048869,0.041233
0.68716,1.6475,-1.4906,9.1202,-0.66309,-0.12889,0.022602
0.72678,1.9221,-2.1378,8.8456,-0.76358,-0.21838,0.022907
0.74817,1.9221,-2.0986,9.0025,-0.72693,-0.24465,-0.0033598
0.75906,1.9025,-1.5691,9.3359,-0.60995,-0.208,-0.025656
0.73514,1.5298,-1.0199,9.5125,-0.45723,-0.13806,-0.018937
0.69916,1.118,-1.0199,9.4144,-0.28924,-0.07025,0.0018326
0.64053,1.7456,-1.471,8.8652,-0.16646,0.09896,0.050091
0.60129,1.824,-1.6671,8.8652,-0.18326,0.065668,0.062308
0.58401,2.1575,-1.6475,9.1594,-0.16554,0.023518,-0.047647
0.5578,1.9221,-1.7848,9.2183,-0.14172,-0.0085521,-0.023824
0.52231,2.0006,-1.4318,9.1202,-0.14997,-0.010996,-0.0067195
0.48819,1.8044,-1.2553,9.0417,-0.19884,0.013439,-0.00030543
0.46255,1.6083,-1.1964,9.0417,-0.07025,0.055283,0.014966
0.37683,2.0006,-1.8044,8.8064,-0.11759,0.085827,0.037263
0.32254,2.1771,-1.8829,8.7083,0.21472,0.074831,0.083689
0.27417,1.824,-1.2553,9.179,0.019853,-0.0015272,0.11209
0.21082,1.6083,-0.39227,9.3752,-0.14661,-0.055589,0.0018326
0.16766,1.6083,-0.25497,9.3163,-0.25717,-0.076969,-0.010996
0.13019,1.5298,-0.74531,9.8066,-0.31398,-0.089186,-0.014355
0.085022,2.1378,-1.9025,9.7282,0.012217,0.14722,-0.0085521
0.0057678,2.6478,-2.3732,7.2177,0.053756,0.18265,0.011606
-0.11621,1.5102,-2.5301,9.5125,-0.00030543,0.18173,0.029932
-0.25528,0.43149,-0.94144,11.611,0.21502,0.2138,-0.12309
-0.36832,1.6475,-1.0003,11.219,0.33964,0.28955,-0.071471
-0.48349,2.6478,-0.90221,7.9042,0.34239,0.21533,0.054672
-0.55426,1.5298,-0.86299,7.1392,0.15424,-0.013134,-0.093768
-0.55902,1.824,-0.70608,7.8453,-0.20892,-0.30116,-0.084299
-0.53323,1.9809,-1.1768,8.0807,-0.49541,-0.45754,-0.055589
-0.46484,1.9221,-1.8829,8.8064,-0.56383,-0.4441,-0.14019
-0.37122,1.8633,-1.6475,9.434,-0.44379,-0.33384,-0.18662
-0.24573,1.8633,-1.6475,9.5713,-0.1014,-0.21228,-0.061392
-0.11325,1.8437,-1.5691,9.3359,-0.11179,-0.1124,-0.060781
0.015869,2.1378,-1.5102,8.9633,-0.094379,-0.042761,-0.073915
0.14206,2.1771,-1.216,8.6887,-0.068111,-0.0054978,-0.064446
0.2327,1.7456,-1.1768,8.6887,-0.050091,0.043066,-0.042455
0.30267,1.8044,-2.0398,9.0025,-0.048258,0.086437,-0.045815
0.35022,2.1378,-2.2555,9.3359,-0.25931,0.10629,-0.054367
0.38596,2.1575,-1.6867,9.3555,-0.12645,0.11179,-0.055589
0.40701,2.0006,-0.90221,9.1986,0.10446,0.03879,0.029627
0.43286,1.8437,-1.5102,8.8848,0.09499,0.038485,0.027184
0.44922,2.5497,-1.824,8.4141,0.096822,0.015272,0.086743
0.45779,2.3732,-2.0986,8.8848,0.11423,-0.0073304,0.080329
0.45248,1.9025,-1.6867,9.3752,0.135,-0.0033598,0.06017
0.41266,1.3533,-1.5102,9.2575,0.12065,0.018631,0.039401
0.39157,1.2945,-1.726,8.8064,0.060781,0.026878,0.031765
0.37659,1.5298,-1.9809,8.4337,-0.012523,0.0048869,0.032987
0.36636,1.1964,-1.7456,8.8652,0.22571,0.10293,-0.1347
0.36401,1.1964,-1.471,8.9437,0.44166,0.25229,-0.12737
0.36481,1.2356,-1.3337,8.8848,0.49175,0.34575,0.20372
0.36682,1.2945,-1.5298,9.2575,0.36377,0.25076,0.1799
0.33435,1.2356,-2.2751,10.748,0.20128,0.035736,0.11026
0.27588,1.118,-2.4124,9.3752,-0.11668,-0.2587,0.034819
0.14407,1.5495,-1.9417,6.747,-0.40012,-0.45998,0.0030543
0.014679,-0.84337,-1.4906,10.375,-0.50946,-0.50946,-0.078496
-0.11722,-0.50995,-1.6475,12.18,-0.31032,-0.44563,-0.10751
-0.25696,1.8437,-2.0594,8.9437,-0.095906,-0.32834,-0.1011
-0.38193,1.6867,-2.4124,7.2765,0.10354,-0.21258,-0.13317
-0.46741,1.9221,-1.9613,7.3158,0.2416,-0.1124,-0.16066
-0.50305,2.589,-1.5691,7.9434,0.33353,-0.017715,-0.1744
-0.51495,2.687,-1.1768,9.1202,0.33475,0.066279,-0.17623
-0.48657,2.3732,-1.1768,9.434,0.23213,0.098044,-0.15485
-0.43942,2.1378,-1.1768,9.0417,0.063835,0.094684,-0.11912
-0.35413,1.7456,-1.118,8.8652,-0.093768,0.066584,0.054672
-0.24896,1.6867,-1.4318,8.8652,-0.1631,0.023213,0.07758
-0.13403,1.824,-1.5691,9.0613,-0.17349,-0.0064141,-0.094379
-0.0071411,1.3925,-1.824,9.3752,-0.15394,-0.018021,-0.076053
0.090057,1.1964,-2.2751,9.434,-0.093768,-0.019548,-0.045815
0.16348,1.2356,-2.2751,9.2771,-0.015577,-0.013439,-0.010996
0.21274,1.4514,-1.6475,9.2575,0.053756,0.0054978,0.019853
0.25531,1.2945,-1.3533,9.179,0.095295,0.025962,0.036346
0.26483,1.5887,-1.7456,9.179,0.031765,0.11545,-0.051313
0.29584,1.8633,-1.9613,9.0613,0.1463,0.082772,-0.10873
0.28867,1.9221,-1.8829,8.8064,0.30696,0.033292,0.02474
0.30774,1.824,-1.5102,8.7475,0.25748,-0.093157,-0.07758
0.30701,1.6083,-1.3337,9.0221,0.021991,-0.2248,-0.0281
0.29797,1.9221,-1.5102,9.179,-0.19548,-0.28772,-0.0079412
0.28094,1.8437,-1.824,8.5318,-0.31612,-0.29596,-0.030238
0.28485,2.2359,-1.5691,8.6299,-0.34483,-0.28863,-0.03146
0.28845,1.9221,-1.0199,8.8456,-0.020159,-0.25748,-0.080329
0.27167,1.5495,-1.0003,9.5125,0.11209,-0.18265,-0.091324
0.23877,1.7456,-1.5102,10.12,0.17746,-0.071471,-0.14539
0.1662,1.7456,-1.8437,9.4732,0.16585,0.029016,-0.13042
0.047943,2.0202,-2.1575,8.0807,0.082467,0.093768,-0.11148
-0.065369,0.74531,-1.9809,10.199,-0.032376,0.11209,-0.096517
-0.17712,1.3729,-1.5102,11.376,-0.31185,0.087354,-0.071471
-0.28516,2.4517,-0.74531,8.7083,-0.1912,0.040317,-0.066584
-0.36221,1.824,-1.0983,7.9042,-0.22449,-0.007025,0.020159
-0.39157,2.1575,-1.5102,7.61,-0.17287,-0.032681,0.024435
-0.39297,2.3732,-1.8044,8.316,-0.089797,-0.033292,-0.097128
-0.34982,2.0006,-1.6475,8.8848,0.0009163,-0.018937,-0.085521
-0.27805,1.824,-1.1964,9.2183,0.059559,0.0085521,-0.054367
-0.202,1.9613,-1.216,9.1594,0.057727,0.048564,-0.027184
-0.12109,1.9613,-1.5102,8.9437,-0.14264,0.084605,-0.01741
-0.029968,1.9221,-1.6671,8.8652,-0.21716,0.10354,0.00061087
0.067413,1.8044,-1.5298,8.8456,-0.070555,0.099571,0.0076358
0.15634,1.7064,-1.4122,9.0221,-0.086437,0.081245,0.010996
0.22485,1.4906,-1.3729,9.2183,-0.071777,0.065668,0.018021
0.2861,1.5298,-1.4318,9.1006,-0.04948,0.055283,0.0064141
0.35233,1.7456,-1.5298,9.0025,-0.050091,0.058338,0.00061087
0.40924,1.7456,-1.471,9.1202,-0.063225,0.072082,0.0030543
0.45786,1.7456,-1.6671,9.0221,0.015272,0.075747,0.0051924
0.4931,1.7456,-1.4906,9.0417,-0.031154,0.068722,0.0058032
0.53116,1.6867,-1.2553,9.179,-0.1854,0.15608,-0.073915
0.54865,1.7456,-1.6867,9.3359,-0.28619,0.099266,-0.12614
0.55338,1.8633,-1.7456,9.1006,-0.15577,0.081245,0.07086
0.5347,1.6475,-1.9417,8.9437,0.13317,0.15882,0.023824
0.52051,1.7456,-1.4906,9.179,0.41936,0.23671,-0.030849
0.48914,1.824,-1.3533,9.1986,0.51099,0.21166,-0.085216
0.46875,1.6867,-1.3533,9.0417,0.26909,0.063225,-0.033598
0.44348,1.6671,-1.3533,8.9044,-0.11668,-0.13439,-0.0042761
0.42905,1.4318,-1.6671,9.0025,-0.59407,-0.30604,0.061697
0.42484,1.6083,-1.8044,8.6299,-0.52901,-0.35155,0.040317
0.43481,1.6867,-1.6867,8.6887,-0.29016,-0.25137,-0.1854
0.45291,2.0006,-1.6867,8.9633,-0.02474,-0.11515,-0.21258
0.47665,1.6475,-1.5298,9.1986,0.17074,0.016493,-0.16982
0.49011,1.7456,-1.4906,9.179,0.27642,0.1295,-0.12401
0.50629,1.5495,-1.3141,9.5713,0.29199,0.18418,-0.072388
0.49878,1.5495,-1.1768,9.434,0.21075,0.1799,0.0033598
0.47845,1.2945,-1.3729,8.7868,0.083994,0.13408,-0.064446
0.4679,1.3925,-2.3732,8.8064,-0.11026,0.089797,0.033292
0.47336,0.76492,-1.9417,11.14,-0.27489,0.12523,-0.0061087
0.43878,1.118,-1.1572,11.14,-0.21625,0.14691,0.013744
0.33371,1.7064,-1.3533,8.4337,0.059254,0.12126,0.097433
0.2424,2.0594,-1.2553,6.8254,0.33567,0.1573,0.11484
0.17435,2.0594,-1.3533,7.2765,0.50121,0.22358,0.0018326
0.12213,1.9809,-1.0199,8.7475,0.39218,0.19242,-0.12645
0.077271,1.6083,-1.824,10.944,0.089797,0.12462,0.019853
0.053619,1.9221,-1.6475,9.689,0.1014,0.14416,0.071471
0.032745,1.8437,-0.37265,6.9823,0.090103,0.15333,-0.054672
0.028259,1.1768,-2.2948,8.9437,0.065668,0.1518,-0.05284
0.027588,1.2356,-2.1967,12.082,0.040623,0.1463,-0.047037
0.020508,1.824,-1.0199,11.827,0.0085521,0.13683,-0.039095
-0.026001,2.3732,-0.49033,9.1986,-0.025045,0.14355,-0.023824
-0.092163,2.1575,-1.1768,7.4531,-0.069944,0.16646,-0.014966
-0.13342,2.6282,-2.1182,7.7473,0.16188,0.073609,0.11729
-0.13358,3.0793,-2.0594,8.4926,0.22907,0.14569,0.14508
-0.10373,2.432,-1.5298,9.179,0.24557,0.20831,0.029932
-0.064514,1.7456,-0.72569,9.3555,0.1628,0.2529,0.020769
-0.041077,1.1768,-0.8826,9.0417,-0.0058032,0.26634,0.024129
-0.022095,1.118,-1.471,8.7475,-0.17959,0.23976,0.054672
-0.019135,0.80415,-1.824,9.0025,-0.051618,0.18357,0.081245
-0.01297,0.56879,-2.1967,9.1202,0.065057,0.1295,0.095295
-0.0098877,0.41188,-2.2163,8.9437,-0.41447,0.081856,-0.073915
-0.010071,0.80415,-1.8829,9.0025,-0.36438,0.050091,-0.069028
-0.035492,1.0787,-1.4318,9.0417,-0.22174,0.051618,0.13958
-0.05896,1.2945,-1.1572,9.0417,-0.04215,0.042455,0.085521
-0.082611,1.1768,-1.3533,8.8652,0.14416,0.036652,0.017104
-0.091064,1.6475,-1.6475,8.8848,0.28069,0.043371,-0.042761
-0.10541,2.0006,-1.471,9.179,-0.30727,0.039706,-0.081551
-0.098999,2.1575,-0.86299,9.5125,-0.3824,-0.013744,-0.094379
-0.083893,2.1575,-0.62763,9.4144,0.63805,-0.10721,-0.19395
-0.07608,2.3732,-0.86299,9.0221,0.24557,-0.17471,-0.11026
-0.052887,2.4909,-1.118,8.4926,0.11393,-0.18937,-0.11118
-0.029785,2.687,-1.8437,8.4337,-0.071166,-0.13989,-0.12675
0.01062,2.2751,-1.8829,9.1202,-0.23579,-0.049786,-0.1292
0.044647,1.9221,-1.4122,9.9636,-0.26206,0.026573,-0.15882
0.071472,1.6083,-0.86299,9.5125,-0.057421,0.13928,-0.17471
0.071045,1.1768,-1.3533,8.8652,0.31734,0.26695,-0.19242
0.081787,0.45111,-2.7655,8.1199,0.02138,0.036652,0.02474
0.099152,0.098066,-3.6285,8.2768,0.076358,0.058643,0.025351
0.13455,-0.05884,-3.3735,9.0025,0.094073,0.065363,-0.014355
0.17203,-0.21575,-2.687,11.003,0.05284,0.046731,0.020464
0.17395,1.3925,-1.8829,9.8066,-0.047342,0.0082467,0.052229
0.15054,2.5497,-0.80415,7.4531,-0.15699,-0.023824,0.058643
0.1163,2.3732,-0.72569,7.1196,-0.20281,-0.029932,0.048869
0.1087,2.2359,-1.1768,8.5514,-0.15638,0.0085521,0.035736
0.13596,2.7655,-0.41188,10.885,-0.62827,-0.2303,-0.0009163
0.16858,2.4517,0.37265,12.082,-0.98685,-0.33231,0.092852
0.17612,3.0008,0.25497,10.12,-1.1197,-0.416,0.057116
0.13678,2.687,-0.86299,8.2572,-0.96761,-0.47189,0.05284
0.091156,2.3732,-0.80415,7.3354,-0.56658,-0.3882,-0.010996
0.038361,1.824,-0.8826,7.708,-0.083383,-0.20708,-0.13256
-0.021423,1.9221,-2.1182,8.7083,0.28191,-0.0073304,-0.18082
-0.090851,1.2356,-2.8243,9.8851,0.40928,0.13806,-0.1066
-0.21262,0.17652,-2.6282,8.0022,0.29749,0.1628,-0.10079
-0.35388,-2.0986,-3.295,11.356,0.032681,0.068722,-0.091324
-0.51166,-1.9417,-3.197,13.415,-0.29169,-0.080023,0.16066
-0.63943,0.039227,-1.824,9.3163,-0.59407,-0.2193,0.17287
-0.78958,-0.13729,-0.86299,6.3547,-0.77641,-0.29383,0.12431
-0.85071,0.25497,-1.8829,4.6484,-0.76725,-0.30085,0.041844
-0.83646,2.432,-2.3144,6.237,-0.58246,-0.24832,-0.029322
-0.72903,2.9224,-1.7456,9.2575,-0.28558,-0.13195,-0.075136
-0.60263,2.0594,0.098066,9.5909,-0.57513,-0.44868,0.21838
-0.51636,2.5497,1.0199,6.5116,-0.35858,-0.32193,0.20617
-0.48645,1.3925,-3.6285,11.062,0.04215,-0.089797,-0.2193
-0.47888,2.3732,-4.7072,13.612,0.44776,0.21258,-0.30879
-0.48053,2.7459,-1.1572,11.944,0.63499,0.45845,-0.31918
-0.53394,1.9025,1.6083,10.003,0.54153,0.59284,-0.22571
-0.60922,1.5298,1.8829,8.0218,0.15638,0.5681,-0.050702
-0.66415,1.5298,-0.96105,7.0019,-0.23396,0.45387,0.12523
-0.66504,2.2948,-3.3931,7.1785,-0.058032,0.35003,0.10018
-0.5824,2.3732,-3.6873,8.7083,0.19792,0.19761,0.07086
-0.44287,1.7456,-2.0594,9.9636,0.57024,0.13225,0.10904
-0.28168,1.1964,-0.90221,9.8851,0.83536,0.15088,-0.07758
-0.13965,1.6867,-1.0199,8.8652,0.91477,0.1686,-0.16799
-0.018066,2.1378,-1.824,7.6296,0.74159,0.13256,-0.098044
0.11813,2.2359,-2.7262,7.61,0.36408,0.03146,0.026573
0.23721,2.1771,-2.7262,8.316,-0.13653,-0.10049,0.10446
0.34494,1.6475,-2.1378,9.1202,0.23274,0.0097738,0.038179
0.42184,1.6083,-1.6279,9.434,0.18357,0.065363,0.050396
0.48117,1.2945,-1.3533,9.2771,0.10721,0.090408,-0.08094
0.48834,1.3533,-1.5691,9.1986,0.037263,0.087048,-0.058338
0.45728,1.1964,-1.5298,9.1594,-0.011606,0.071777,-0.035125
0.43698,1.1768,-1.4906,9.3359,-0.04215,0.051924,-0.010996
0.39539,1.1964,-2.0986,9.2183,0.1686,0.036041,0.012828
0.38513,1.1768,-2.6086,9.2575,0.22846,0.051313,0.030238
0.38159,1.4906,-2.432,9.1594,-0.081245,-0.075136,-0.050396
0.39355,1.3925,-1.5102,9.5125,-0.098349,-0.078191,-0.050091
0.38388,1.4906,-1.3337,9.3359,-0.069944,-0.064446,-0.033292
0.37976,1.5298,-1.3337,9.0613,0.036346,-0.019242,-0.085827
0.37247,1.8044,-2.1378,8.9044,0.20189,0.059559,-0.12584
0.35056,1.9221,-2.6086,8.7868,0.34697,0.13317,-0.1295
0.32401,2.0006,-2.4124,8.7083,0.41294,0.1631,-0.10049
0.28104,1.6867,-1.2749,9.0025,0.37843,0.1463,-0.068722
0.21957,1.2945,-0.94144,9.2183,0.25443,0.085827,-0.09499
0.15591,1.3925,-1.5887,9.3359,0.10782,-0.0027489,-0.057727
0.10782,1.7456,-2.432,9.2575,0.014661,-0.078191,-0.069028
0.07016,1.6867,-2.2948,9.3359,0.009163,-0.10568,-0.10354
0.016418,1.1964,-1.3141,9.1594,0.079107,-0.082772,-0.14264
-0.037842,0.98067,-0.68647,8.9437,0.18967,-0.041844,-0.16157
-0.10245,0.98067,-0.80415,9.3163,0.29383,-0.0015272,-0.15272
-0.18588,1.118,-1.3533,8.8652,0.36591,0.045204,-0.12645
-0.25833,1.3729,-1.7456,8.5318,0.30268,0.051924,-0.13011
-0.3324,1.6671,-1.2553,8.5318,0.19975,0.012523,-0.11118
-0.44333,1.7456,-0.78453,8.8456,0.1069,-0.041233,-0.035736
-0.56265,1.5887,-0.31381,9.1006,0.043982,-0.08491,-0.041539
-0.66299,1.6083,-0.47072,9.0417,0.03207,-0.10934,-0.058643
-0.75931,1.9221,-0.8826,8.6299,0.085827,-0.11668,-0.064446
-0.84192,1.7456,-0.86299,8.4141,0.39706,-0.10782,-0.078496
-0.89932,1.216,-0.74531,9.1594,0.38026,-0.060781,-0.10965
-0.94797,1.3729,-1.0199,9.689,0.061392,0.11026,-0.089492
-0.96579,1.3337,-1.5691,9.9047,0.12401,0.09896,-0.090103
-0.95016,1.6867,-1.0199,9.5125,0.20647,0.07758,-0.074526
-0.91895,1.6083,-1.118,8.8456,0.25198,0.035736,-0.039401
-0.86017,1.6867,-1.6279,9.0613,0.17501,-0.063225,0.0088575
-0.76807,1.9221,-1.7848,9.3359,0.15302,-0.15241,-0.0030543
-0.6828,1.7456,-1.5102,9.3163,0.19181,-0.22724,-0.078802
-0.58585,1.824,-1.0591,9.4732,0.060476,-0.34941,-0.12401
-0.49387,1.7064,-1.0199,9.0025,-0.18601,-0.46517,-0.083689
-0.43726,1.8044,-1.4318,8.6299,-0.41203,-0.50855,-0.053451
-0.42294,1.824,-1.6867,9.1202,-0.51282,-0.47006,-0.11851
-0.42618,1.4318,-1.824,10.062,-0.47831,-0.37507,-0.1069
-0.49664,1.8633,-1.5298,9.8066,-0.39523,-0.29016,-0.072998
-0.58981,1.118,-1.5102,10.846,-0.32651,-0.20983,-0.057727
-0.70923,1.4514,-0.86299,11.376,-0.23427,-0.087659,-0.083383
-0.80981,2.2751,-0.23536,9.5125,-0.10415,0.041844,-0.10996
-0.87393,2.2359,0.13729,7.1589,0.072998,0.16066,0.034514
-0.90482,1.6867,-0.43149,6.8254,0.075747,0.24862,0.04948
-0.87085,2.3732,-1.0199,7.1589,0.022602,0.28497,-0.043066
-0.79193,1.9613,-1.3729,7.7865,-0.059865,0.26725,-0.041844
-0.66455,1.6083,-1.471,8.9044,-0.14752,0.22388,-0.041539
-0.51227,1.5298,-1.4906,9.6301,-0.22999,0.17226,-0.036041
-0.34741,1.2945,-1.1964,9.9636,-0.3091,0.12034,-0.019242
-0.18869,1.1964,-1.1768,9.6694,-0.36896,0.068722,0.0094684
-0.038422,1.118,-1.3729,9.2183,-0.39828,0.018021,0.1011
0.083954,1.3925,-1.5102,9.0417,-0.3882,-0.020159,0.07422
0.17859,1.1964,-1.5102,9.3359,-0.34178,-0.026267,0.047647
0.24466,1.0395,-1.216,9.6497,-0.27489,-0.0061087,0.03879
0.29456,1.2356,-1.3729,9.3752,-0.21197,0.027184,0.046731
0.32788,1.5495,-1.7848,9.0417,-0.17593,0.045509,0.068722
0.35587,1.6475,-1.7456,9.0417,-0.1799,0.029322,0.092241
0.38531,1.824,-1.6279,8.8652,-0.21472,-0.009163,0.10629
0.42557,1.824,-1.6475,8.8652,0.15852,-0.025962,0.018631
0.47003,2.0594,-1.9809,8.7475,0.18876,-0.027489,-0.0064141
0.48032,2.2359,-2.0986,8.6495,0.10812,-0.064141,0.06353
0.50281,2.1182,-1.8829,8.7279,-0.027794,-0.11668,0.082161
0.51804,1.9221,-1.6475,8.8064,-0.15974,-0.16707,0.087048
0.53223,1.8437,-1.5298,8.8652,-0.24709,-0.19945,0.080023
0.53549,1.6083,-2.1575,8.9437,-0.29871,-0.20586,0.069028
0.53568,1.9025,-2.9028,8.6299,-0.30727,-0.17715,0.04948
0.53152,2.0006,-2.2948,8.8652,-0.057727,-0.12431,-0.015272
0.52734,1.4514,-1.471,9.3359,0.009163,-0.057116,-0.023824
0.50821,1.0395,-1.2553,9.5713,0.021991,0.022297,-0.014661
0.47415,1.1768,-1.3533,9.3752,0.018021,0.083689,-0.017104
0.43469,0.90221,-2.0594,9.0613,0.032681,0.10629,-0.009163
0.39658,0.98067,-2.0986,9.0221,0.069944,0.10293,0.0051924
0.37839,1.3533,-1.4318,9.3359,-0.2587,0.085216,0.0082467
0.35574,1.4906,-0.94144,9.3359,-0.16096,0.075442,-0.0012217
0.34848,1.6867,-1.1768,9.2183,0.071166,0.079412,-0.091935
0.34592,2.1378,-2.0594,8.7868,0.081551,0.073304,-0.071471
0.34109,2.9224,-2.432,8.3357,0.13225,0.080329,-0.040623
0.3327,3.2362,-2.5105,8.5318,0.18998,0.10476,-0.067501
0.32263,2.8635,-2.0986,8.8064,0.22174,0.15485,-0.090408
0.30301,2.7851,-2.2555,8.8064,0.22816,0.22052,-0.10812
0.28113,2.2751,-2.5105,8.7083,0.097128,0.26756,-0.11423
0.24527,2.3732,-2.687,8.9437,0.088575,0.29169,-0.10537
0.19897,2.1771,-2.687,8.4337,0.1295,0.29291,0.09896
0.14948,2.0202,-2.1575,8.0807,0.1405,0.25504,0.12614
0.098633,1.5298,-1.4906,8.0218,0.17135,0.19731,-0.050702
0.043854,1.216,-0.94144,8.4141,0.20739,0.1631,-0.037874
-0.012115,0.92183,-1.471,9.3163,0.20311,0.16157,-0.046731
-0.073608,0.86299,-2.1378,9.8851,0.18937,0.19273,-0.046731
-0.13947,1.2945,-2.5105,9.0221,0.20006,0.22999,-0.0054978
-0.2699,1.0591,-2.0594,8.4141,0.14997,0.26084,0.051924
-0.44461,-0.80415,-1.824,10.14,-0.058948,0.10385,-0.020159
-0.60782,-1.3141,-2.1967,12.945,-0.051924,0.089186,-0.017104
-0.77438,0.66685,-1.9809,10.513,-0.032376,0.081551,0.047953
-0.90805,0.50995,-2.2163,7.8649,-0.01741,0.076664,0.02138
-0.99857,1.0395,-1.471,7.8649,-0.012523,0.071471,-0.0018326
-0.99997,1.5298,-1.0199,7.9434,-0.01741,0.058032,-0.014661
-0.99997,1.9025,-1.3533,8.9437,-0.021991,0.041233,-0.01741
-0.99509,2.4517,-1.1768,9.5125,-0.027489,0.02474,-0.018631
-0.90799,2.3732,-0.84337,9.3359,-0.037568,0.0051924,-0.010079
-0.81262,2.0594,-0.72569,8.6299,-0.048564,-0.015272,-0.0045815
-0.70395,2.334,-1.1964,8.2768,-0.05284,-0.032376,-0.01405
-0.57376,2.8635,-1.6671,8.0022,-0.048258,-0.029016,-0.020464
-0.44958,2.7655,-1.8829,8.0807,-0.047037,-0.010079,-0.030238
-0.31833,2.4517,-2.1967,8.5514,-0.046731,0.0033598,-0.032376
-0.20877,2.2359,-2.4124,9.1202,-0.044899,0.0097738,-0.026267
-0.090698,2.0202,-2.5301,9.1202,-0.051007,0.012217,-0.020159
0.0007019,2.1378,-2.2948,9.1006,-0.064141,0.0039706,-0.0067195
0.06546,1.7456,-2.2555,8.7083,-0.068417,-0.012523,-0.00061087
0.12939,1.9221,-2.1967,8.8848,-0.049786,-0.030238,-0.0067195
0.16418,1.7456,-2.1182,9.2575,-0.022297,-0.039706,-0.012828
0.20844,1.7456,-2.0594,9.2183,-0.0094684,-0.043371,-0.017104
0.21802,1.7064,-1.9809,9.2575,-0.018937,-0.051007,-0.01741
0.25378,1.6671,-2.0006,9.1202,-0.046426,-0.06017,-0.014966
0.27567,2.0006,-1.8437,8.7475,-0.079718,-0.065668,-0.010996
0.28793,1.9221,-1.8437,8.7868,-0.20983,0.083383,0.081245
0.29419,1.6083,-1.9417,9.0417,-0.14997,0.12859,0.071777
0.28046,1.6475,-2.0594,9.0417,-0.1124,0.14416,0.1405
0.28424,1.3337,-2.1967,9.0221,-0.088575,0.13134,0.14294
0.29095,1.2945,-2.1967,9.1202,-0.062919,0.11179,0.13286
0.30865,1.824,-2.0006,8.9044,-0.032681,0.10415,0.11209
0.31644,2.0202,-1.9025,8.7868,-0.016188,0.11209,0.089797
0.31973,1.8633,-2.0986,8.8652,-0.027489,0.11484,0.080634
0.32635,2.2948,-2.2751,8.7083,-0.099876,-0.12706,-0.10843
0.36249,2.4713,-2.2751,8.5514,-0.16707,-0.12095,-0.10751
0.3927,2.3928,-2.0986,8.316,-0.22969,-0.1066,0.014355
0.40189,2.334,-2.1771,8.218,-0.24312,-0.091324,0.010079
0.40851,2.4713,-2.2948,8.5318,-0.18937,-0.083078,-0.0073304
0.39328,2.2359,-1.8829,9.1594,-0.083994,-0.072082,-0.03543
0.37479,1.7456,-1.8829,9.3359,-0.07086,-0.034208,-0.06689
0.37308,1.5298,-2.1575,9.3163,-0.068417,0.027794,-0.093157
0.35776,1.7456,-2.0594,8.9044,0.20403,0.091935,-0.047342
0.36392,1.2749,-1.7456,9.179,0.18937,0.14539,-0.054062
0.3645,1.2945,-1.471,9.3359,0.11454,0.17226,-0.095295
0.37799,1.2945,-1.6279,9.3359,0.0015272,0.17287,-0.079107
0.37283,1.5298,-1.8829,9.179,-0.10812,0.14813,-0.062614
0.3671,1.3925,-2.1378,9.0417,-0.17715,0.10782,-0.051618
0.39005,1.216,-2.1575,9.0417,0.041233,0.060476,-0.045815
0.39627,1.4514,-1.8437,8.9437,0.14783,0.017104,-0.043982
0.41281,1.7064,-1.824,8.8652,-0.076969,-0.03879,0.026573
0.41403,1.9613,-1.8829,8.7083,-0.12401,-0.072082,0.030238
0.41766,2.0594,-1.8829,9.0025,-0.14111,-0.082467,0.023518
0.42288,1.9221,-2.2555,9.0025,-0.12553,-0.087659,0.02474
0.43915,2.1575,-2.4124,8.8456,-0.081551,-0.084605,0.026573
0.46042,2.4517,-2.432,8.4337,-0.0281,-0.072082,0.023824
0.47833,2.5497,-2.1967,8.0807,0.024435,-0.053756,0.018937
0.49374,2.7655,-2.6282,8.1199,0.045815,-0.039706,0.020464
0.51498,2.8047,-2.7262,8.4141,0.03207,-0.039401,0.0067195
0.53564,2.3732,-2.4124,8.8064,-0.0094684,-0.050396,0.01069
0.53732,1.9025,-1.9809,9.2183,-0.065973,-0.065363,0.025656
0.51855,1.7456,-1.6475,9.179,-0.11179,-0.087354,0.018937
0.49377,1.6867,-1.6475,9.179,-0.13134,-0.10629,0.016188
0.46069,1.6867,-2.0594,9.1594,-0.12859,-0.1182,0.013134
0.45938,1.5102,-2.2555,9.179,-0.11454,-0.1292,0.0088575
0.46323,1.6671,-1.9809,9.179,-0.091019,-0.13134,0.0073304
0.47131,1.6867,-1.7456,9.179,0.020159,0.072998,-0.023824
0.49289,1.7456,-1.9809,9.0417,-0.02138,0.051618,-0.018021
0.52231,1.8633,-1.8437,8.6887,-0.043677,0.027489,-0.026878
0.54785,2.0202,-2.0594,8.6887,-0.035125,0.0079412,-0.031154
0.56573,2.0594,-2.2555,8.6299,0.0036652,0.0036652,-0.036957
0.58899,2.1378,-2.3732,8.6299,0.054978,0.011301,-0.043066
0.60333,2.2948,-2.2948,8.7083,0.096517,0.020464,-0.040623
0.621,2.0202,-2.1967,8.8652,0.11942,0.0281,-0.032376
0.63699,2.1771,-2.1182,8.6495,0.037874,0.031154,-0.00030543
0.64148,1.8437,-2.2555,8.7868,0.12309,0.033598,-0.0061087
0.63654,1.8437,-2.3732,8.8652,0.11179,0.036346,-0.011912
0.6293,1.6867,-2.2751,8.9437,0.083078,0.036957,-0.0076358
0.6297,1.5298,-1.9417,9.0417,0.050702,0.034819,-0.0061087
0.61008,1.8633,-1.6475,9.0417,0.018631,0.025656,-0.0018326
0.61511,1.9221,-1.824,8.9437,-0.00030543,0.015882,0.0045815
0.60397,1.8633,-1.9417,8.8652,0.0067195,0.019853,0.0064141
0.60596,2.0594,-2.1967,8.7083,-0.12217,-0.040928,-0.0024435
0.61667,1.8633,-2.0594,8.7083,-0.15119,-0.060781,-0.010996
0.62946,2.0594,-1.9809,8.7868,-0.14569,-0.06017,-0.011912
0.68268,1.7064,-1.9025,8.9437,-0.10843,-0.039401,-0.012217
0.673,1.9221,-2.2163,8.7868,-0.058032,-0.010996,-0.0079412
0.68066,1.9221,-2.3144,8.8064,-0.010996,0.02138,-0.0051924
0.68997,1.824,-2.2555,8.8652,0.019242,0.051618,0.0027489
0.69553,1.6867,-2.0986,8.9437,0.019853,0.06689,0.0058032
0.68787,1.7456,-1.9809,9.0025,-0.030849,0.063835,-0.022297
0.68759,1.9221,-2.1378,9.0221,-0.05284,0.050702,-0.022907
0.68832,1.9221,-2.1182,9.0025,-0.048869,0.038485,-0.019242
0.66678,1.6475,-1.9809,9.0613,-0.018326,0.038179,-0.027794
0.6561,1.5495,-1.824,9.0417,0.02138,0.049175,-0.030849
0.62012,1.7652,-1.8044,8.9437,0.054062,0.06353,-0.027489
0.58334,1.6083,-1.6867,8.9437,0.070555,0.075747,-0.022602
0.55875,1.6083,-1.9809,8.9437,0.060476,0.080634,-0.020464
0.52612,2.1182,-2.1378,8.6887,-0.12431,-0.1408,0.043982
0.50235,2.1575,-2.2751,8.5318,-0.011606,-0.14508,0.040012
0.45889,2.1575,-2.0594,8.5514,0.050702,-0.11209,0.026878
0.41141,1.9025,-1.9809,8.8456,0.057116,-0.066584,0.016493
0.34811,2.0594,-2.2751,8.8064,0.0088575,-0.041539,0.021075
0.28488,2.3732,-2.432,8.5318,-0.068111,-0.037568,0.034514
0.22705,1.9809,-2.1575,8.7279,-0.30696,-0.044899,0.047342
0.17532,1.9221,-1.824,8.8848,-0.24832,-0.057727,0.04948
0.10312,1.6867,-1.6475,8.8064,0.0058032,0.05284,-0.0079412
0.04892,1.5298,-1.9809,8.7475,0.020464,0.039401,-0.00030543
-0.061523,1.3533,-1.7848,9.5125,0.054978,0.016493,-0.060476
-0.16891,1.4318,-1.8829,9.5321,0.11423,0.0012217,-0.054367
-0.29022,1.1768,-1.9025,9.3163,0.17623,-0.0082467,-0.062003
-0.40988,1.3533,-1.6475,9.0025,0.21044,-0.019853,-0.066279
