-0.090729,2.1771,8.2964,5.8644,-0.076969,0.040928,-0.027794
-0.07373,2.2359,8.2964,5.9821,-0.067195,0.045204,-0.028711
-0.065216,2.3928,8.4729,6.237,-0.049786,0.047953,0.0033598
-0.060822,2.2948,8.5514,6.2959,-0.023518,0.049175,-0.014355
-0.065369,2.2948,8.3553,6.0409,0.0061087,0.047037,-0.020159
-0.057343,2.1575,8.2964,6.1193,0.019548,0.04215,-0.012828
-0.068085,2.1771,8.2964,5.9821,0.0085521,0.037874,-0.0088575
-0.069336,2.1182,8.4533,6.1193,-0.01069,0.034514,-0.016188
-0.072571,2.1378,8.5122,5.9036,-0.018021,0.032681,-0.0045815
-0.08139,2.0202,8.4729,6.0801,-0.0073304,0.028711,-0.0045815
-0.080566,2.1575,8.3945,6.0213,0.0030543,0.029932,-0.018326
-0.081787,2.0594,8.2572,6.0409,0.0018326,0.032376,-0.0076358
-0.085022,2.3732,8.1591,6.0605,-0.0064141,0.03207,-0.002138
-0.091278,2.4517,8.3553,6.1193,-0.016188,0.030849,-0.0051924
-0.10388,2.687,8.4141,6.0605,-0.013439,0.027489,-0.0097738
-0.10788,2.2948,8.5318,6.0213,-0.0042761,0.024435,-0.0097738
-0.11069,2.432,8.5318,5.8055,0.031765,-0.032987,0.007025
-0.11655,2.2948,8.5318,5.9821,0.060476,-0.036041,0.018021
-0.095734,2.2948,8.4729,6.0213,0.081245,-0.036652,-0.0076358
-0.11728,2.2359,8.5318,6.1782,0.090713,-0.036957,-0.0051924
-0.12442,2.1771,8.4141,6.0801,0.08094,-0.035125,-0.002138
-0.12628,1.8437,8.3553,6.0801,0.057421,-0.032376,-0.0042761
-0.12619,2.1575,8.2572,5.9232,0.034208,-0.029322,-0.0036652
-0.13531,2.0594,8.3945,5.9821,0.012217,-0.022602,0.0051924
-0.13242,2.432,8.4141,6.0409,-0.010079,-0.014355,0.0281
-0.12103,2.2948,8.3945,5.9821,-0.033903,-0.0033598,0.016188
-0.12576,2.6282,8.3553,5.9036,-0.045204,0.0042761,0.026267
-0.1297,2.5497,8.4141,6.0213,-0.047037,0.012217,0.026267
-0.12015,2.4517,8.4729,5.9624,-0.052534,0.023213,0.033292
-0.11963,2.3928,8.5318,5.9821,-0.061392,0.030849,0.041233
-0.10803,2.3732,8.3749,5.8644,-0.07422,0.036346,0.040012
-0.11703,2.0006,8.5318,5.9821,-0.080634,0.040317,0.036041
-0.10846,2.2948,8.3945,5.9821,-0.043066,0.022297,0.016493
-0.087006,2.1575,8.3945,5.9821,-0.041233,0.019853,0.014355
-0.079407,2.5497,8.2964,6.0409,-0.033598,0.022602,0.0061087
-0.078857,2.5497,8.3945,6.0409,-0.023824,0.020769,0.0097738
-0.065948,2.2948,8.5122,5.9821,-0.01405,0.01405,0.011301
-0.06369,2.1575,8.5514,6.0605,-0.00030543,0.011301,0.01069
-0.063477,2.3732,8.4729,6.0409,0.0082467,0.0094684,0.013744
-0.064514,2.2751,8.3945,5.8644,0.0042761,0.0054978,0.015882
-0.066925,2.0594,8.4141,5.9624,-0.0058032,0.025962,-0.0088575
-0.057037,2.1575,8.4729,5.9036,-0.010996,0.029932,-0.0082467
-0.071869,2.0594,8.5318,6.1193,-0.010996,0.031765,0.0012217
-0.067291,2.1771,8.4729,5.9821,-0.0067195,0.031765,-0.0045815
-0.072662,2.2948,8.4141,6.0801,0.0039706,0.032681,-0.0082467
-0.071442,2.2948,8.3945,5.9036,0.018021,0.032681,-0.011912
-0.079926,2.1771,8.4141,5.9232,0.031154,0.030543,-0.012217
-0.0755,2.1771,8.5318,5.8252,0.038485,0.028711,-0.0097738
-0.063049,2.1575,8.571,5.9036,0.040317,0.027489,-0.037874
-0.075897,2.4517,8.4533,5.884,0.033292,0.022297,-0.032987
-0.069305,2.2359,8.4141,5.9232,0.01741,0.021075,-0.011301
-0.07843,2.1575,8.3945,5.884,0.0036652,0.02138,-0.020769
-0.082062,2.1378,8.4729,5.9821,-0.0067195,0.018937,-0.0281
-0.062622,2.3732,8.4141,5.884,-0.009163,0.018326,-0.033292
-0.078064,2.1575,8.5318,5.9036,-0.0039706,0.016799,-0.03879
-0.066193,2.2163,8.4533,5.9036,0.0045815,0.014966,-0.041233
-0.075104,2.2359,8.4729,5.9821,0.011606,0.014661,-0.00030543
-0.094666,2.1575,8.3945,5.884,0.017104,0.017104,0.0039706
-0.079803,2.0594,8.4141,5.9232,0.014661,0.016493,-0.029016
-0.077759,2.1771,8.5122,5.8055,0.0058032,0.016188,-0.023518
-0.080627,2.1575,8.571,5.884,-0.0076358,0.016799,-0.016799
-0.074402,2.3732,8.5318,5.8644,-0.022602,0.017104,-0.012828
-0.076111,2.2359,8.4729,5.9036,-0.036652,0.020159,-0.0097738
-0.079987,2.2948,8.4729,5.884,-0.043371,0.02138,-0.0058032
-0.078888,2.1771,8.3945,5.9036,-0.022907,0.018631,0.0048869
-0.063568,2.4517,8.3945,5.9036,-0.011606,0.016799,0.00030543
-0.045715,2.2359,8.4729,5.9624,-0.0042761,0.016799,-0.0018326
-0.047791,2.1378,8.5318,5.884,-0.0051924,0.018937,0.00061087
-0.041168,2.079,8.5122,5.9821,-0.0094684,0.020769,0.0051924
-0.042572,2.2948,8.3945,5.9232,-0.016188,0.020464,0.01069
-0.046936,2.1575,8.5122,5.9821,-0.03879,0.019853,0.012523
-0.039124,2.2359,8.5122,5.9232,-0.032681,0.020464,0.010996
-0.035095,2.2751,8.5122,5.9036,-0.02138,0.01741,0.0042761
-0.033142,2.3928,8.4533,5.8252,-0.026878,0.013744,0.0076358
-0.039276,2.1378,8.5318,6.0409,-0.026573,0.01405,-0.00061087
-0.037964,2.1575,8.6102,5.884,-0.023518,0.015272,-0.00061087
-0.02948,2.1182,8.4729,5.9232,-0.016799,0.014355,-0.002138
-0.046448,2.1771,8.4729,5.8055,-0.010385,0.015577,-0.0045815
-0.035248,2.1378,8.4729,5.9624,-0.016188,0.014966,-0.0036652
-0.041107,2.1771,8.4729,5.9232,-0.016188,0.014661,0.00061087
-0.031464,2.1182,8.5122,5.9821,-0.015577,0.013439,-0.0024435
-0.030914,2.1771,8.4533,5.8644,-0.019242,0.013134,-0.0030543
-0.039154,2.0594,8.5318,5.9821,-0.026267,0.016188,0.0094684
-0.041504,2.334,8.4141,5.9036,-0.031154,0.018631,0.010385
-0.051422,2.1182,8.5318,5.9821,-0.033903,0.019548,0.010996
-0.049622,2.432,8.4533,5.9036,-0.033292,0.019548,0.0097738
-0.048645,2.1182,8.5122,5.9232,-0.0085521,0.019853,0.0051924
-0.050201,2.1575,8.3945,5.8252,-0.011301,0.018631,0.0027489
-0.061707,2.2359,8.4729,5.9036,-0.0097738,0.018631,0.0009163
-0.055817,2.1771,8.5318,5.884,0.0015272,0.020159,-0.0009163
-0.055542,2.1182,8.571,6.0409,0.0039706,0.015882,-0.0042761
-0.062256,2.2359,8.5318,5.8644,-0.0045815,0.012523,-0.0027489
-0.057739,2.1575,8.3945,5.8252,-0.018937,0.013134,0.0009163
-0.057068,2.2163,8.4141,5.884,-0.033598,0.015577,0.0018326
-0.054199,2.1575,8.5318,5.9821,-0.029016,0.017715,0.0018326
-0.063507,2.2751,8.5318,5.884,-0.022602,0.018937,0.002138
-0.056274,2.1575,8.5318,5.9036,-0.010079,0.01069,0.0042761
-0.051086,2.0594,8.4729,6.0213,-0.0051924,0.013744,0.0058032
-0.030182,2.2751,8.4729,5.9036,-0.0027489,0.013134,-0.0085521
-0.030762,2.2359,8.6102,5.9036,-0.0036652,0.013439,-0.0061087
-0.032715,2.3732,8.3945,5.884,-0.010996,0.014661,-0.0024435
-0.017487,2.0594,8.5122,5.9232,-0.020464,0.015577,-0.00030543
-0.021057,2.4517,8.4729,5.9036,-0.028405,0.016188,0.002138
-0.019318,2.2359,8.6102,5.9036,-0.034514,0.019242,0.0042761
-0.025909,2.2948,8.5122,5.9036,-0.036652,0.02138,0.0009163
-0.023682,2.3732,8.3945,5.8644,-0.029322,0.02138,-0.0012217
-0.0092773,2.2948,8.3945,5.884,-0.022297,0.022297,0.0088575
-0.028473,2.0006,8.5318,5.9821,-0.018631,0.020464,0.012523
-0.029602,2.2751,8.4729,5.9036,-0.016799,0.018021,0.012828
-0.015106,2.3928,8.3945,5.8252,-0.012828,0.016493,0.0061087
-0.024536,2.4517,8.4141,5.8252,-0.0036652,0.014661,0.00030543
-0.023132,2.2948,8.6102,5.9036,0.0058032,0.014355,0.0009163
-0.016479,2.3732,8.5318,5.8644,0.0088575,0.015577,-0.011912
-0.019226,2.2948,8.4141,5.884,0.0015272,0.014966,-0.013744
-0.013916,2.3732,8.3945,5.9036,-0.0085521,0.010996,-0.0042761
-0.020172,2.0594,8.4729,6.0409,-0.018326,0.0079412,-0.0082467
-0.018616,2.2948,8.5122,5.8644,-0.025962,0.007025,-0.013744
-0.021667,2.2359,8.5318,5.8055,-0.026573,0.0076358,-0.018021
-0.029846,2.432,8.571,5.9036,-0.023213,0.0088575,-0.018937
-0.02832,2.334,8.5318,5.7467,-0.018326,0.009163,-0.014661
-0.046875,2.2948,8.4141,5.8055,-0.010996,0.0079412,-0.032987
-0.037445,2.0594,8.5318,5.9232,-0.0064141,0.0045815,-0.021991
-0.035034,2.2359,8.4729,5.9036,-0.00030543,0.0027489,-0.018631
-0.036774,2.1378,8.5318,5.8644,0.0067195,-0.0015272,-0.025045
-0.040222,2.3928,8.4729,5.8055,0.0085521,-0.0067195,-0.0281
-0.048157,2.3732,8.3945,5.7467,0.01405,-0.010385,-0.03146
-0.035522,2.432,8.5122,5.7663,0.024129,-0.014355,-0.036957
-0.045685,2.2948,8.6887,5.9821,0.036346,-0.015577,-0.036957
-0.046997,2.2359,8.6102,5.9036,-0.021686,0.013439,-0.0097738
-0.022949,2.2359,8.4729,5.884,-0.029322,0.010079,-0.0079412
-0.024628,2.2948,8.3945,5.8252,-0.021991,0.0082467,0.0030543
-0.020081,2.1378,8.4141,5.7467,-0.015882,0.009163,0.0079412
-0.0087585,2.1575,8.5318,5.9036,-0.018021,0.0061087,-0.016493
-0.0078125,2.2948,8.6102,5.8252,-0.026573,0.0030543,-0.0088575
-0.011963,2.3732,8.5318,5.8055,-0.046426,0.0033598,0.0027489
-0.015381,2.0594,8.5514,5.9036,-0.018631,0.0064141,-0.0067195
-0.013031,2.1771,8.5318,5.8252,-0.023213,0.0079412,0.0094684
-0.015991,2.2359,8.5318,5.8252,-0.019853,0.009163,0.012217
-0.019196,2.1575,8.4729,5.9232,-0.019242,0.012828,-0.01069
-0.015625,2.2359,8.5318,5.8055,-0.0281,0.016799,-0.0094684
-0.018036,2.3732,8.571,5.884,-0.039095,0.018631,-0.00061087
-0.027832,2.0594,8.571,5.8055,-0.044288,0.019548,0.0061087
-0.025696,2.2359,8.5318,5.8644,-0.031765,0.018937,0.011606
-0.035828,2.2359,8.3749,5.7663,-0.027489,0.016493,0.014966
-0.030731,2.3732,8.4533,5.7271,-0.030543,0.018631,0.0042761
-0.034668,2.1182,8.6102,6.0213,-0.029322,0.021686,0.0045815
-0.025513,2.2948,8.5514,5.9232,-0.026573,0.019548,0.013439
-0.0087585,2.4517,8.5318,5.9624,-0.02474,0.017715,0.015272
-0.01239,2.2359,8.5318,5.8252,-0.025351,0.016188,0.014355
-0.0074463,2.2948,8.5122,5.8252,-0.0281,0.014966,0.0088575
-0.0080872,2.2948,8.5122,5.884,-0.041233,0.012523,0.0079412
-0.022186,2.2751,8.5318,5.8644,-0.035125,0.011606,0.0048869
-0.016785,2.2751,8.4729,5.8644,-0.030238,0.013744,-0.0094684
-0.028442,2.1771,8.5122,5.884,-0.032987,0.017715,-0.01741
-0.028229,2.2948,8.5318,5.9232,-0.033598,0.015882,-0.0030543
-0.022583,2.1378,8.5318,5.8644,-0.034208,0.014661,0.0009163
-0.034058,2.3732,8.5318,5.9036,-0.038179,0.014966,0.0045815
-0.034332,2.3732,8.4729,5.7663,-0.044899,0.012523,0.0033598
-0.034546,2.2948,8.5318,5.7663,-0.054367,0.010996,-0.0018326
-0.052582,2.2359,8.4729,5.8644,-0.064752,0.012217,-0.0048869
-0.045532,2.432,8.4729,5.9821,-0.035125,0.026573,0.0039706
-0.037811,2.2359,8.571,5.9821,-0.026267,0.023213,0.0033598
-0.019775,2.1182,8.4729,5.9821,-0.011606,0.020769,-0.00061087
-0.014435,2.2163,8.5318,5.884,0.0027489,0.019853,0.00030543
-0.02301,2.1378,8.5318,5.884,0.011912,0.018021,-0.00030543
-0.025696,2.1182,8.5318,5.884,0.013134,0.016799,0.0024435
-0.024628,2.2359,8.5514,5.9036,0.0061087,0.017715,0.0054978
-0.035034,2.3732,8.5318,5.884,-0.0048869,0.015882,0.0048869
-0.028015,2.2359,8.5318,5.9036,-0.014355,0.015577,0.0036652
-0.025452,2.1575,8.5318,5.8055,-0.027794,0.018631,-0.009163
-0.031555,2.079,8.5318,5.9821,-0.036346,0.019853,0.0030543
-0.031982,2.2163,8.571,5.9036,-0.032987,0.02138,-0.010385
-0.043274,2.0594,8.5318,5.9036,-0.010996,0.020769,-0.017104
-0.032166,2.1182,8.4729,5.8252,0.018631,0.019853,-0.01069
-0.035461,2.1575,8.5122,5.8055,0.02474,0.016799,0.0051924
-0.029846,2.1771,8.5318,5.8055,0.0045815,0.013744,0.012828
-0.024994,2.2359,8.6102,5.8644,0.057421,0.012217,-0.023518
-0.022888,2.2359,8.6887,5.884,-0.018631,0.0085521,-0.0079412
-0.015503,2.1575,8.5318,5.884,-0.011301,0.0088575,-0.020464
-0.014954,2.1575,8.4729,5.8644,0.01405,0.0094684,-0.016799
-0.012146,2.0594,8.4729,5.9624,0.029932,0.0064141,-0.0054978
-0.016632,2.2163,8.5318,5.8252,0.025656,0.0024435,-0.0030543
-0.013916,2.2359,8.6102,5.8644,0.022297,-0.0036652,-0.0097738
-0.018219,2.2948,8.6887,5.9036,0.037568,-0.007025,-0.020464
-0.0097046,2.1575,8.5514,5.8644,0.0012217,0.020769,0.0012217
-0.0060425,2.1378,8.4729,5.7467,0.0027489,0.023213,0
-0.019501,2.1575,8.5318,5.884,0.0009163,0.022297,0.00030543
-0.018372,2.0594,8.6102,5.9036,-0.0015272,0.021686,0.00061087
-0.018494,2.1575,8.5318,5.7467,-0.0085521,0.023213,0.0018326
-0.0069275,2.2359,8.5318,5.7467,-0.020159,0.025045,0.0042761
-0.0073547,2.1575,8.6102,5.8055,-0.03146,0.026878,0.0045815
-0.0062561,2.1575,8.5318,5.7663,-0.036957,0.028405,0.0039706
0.0021057,2.0594,8.5318,5.9821,0.01405,0.02474,-0.0076358
0.01001,2.1575,8.7279,5.9036,0.026878,0.022602,-0.0076358
0.033081,2.0006,8.6887,5.9036,0.03879,0.020769,-0.025656
0.051483,2.2751,8.5514,5.7467,0.043066,0.020159,-0.026573
0.048645,2.1182,8.5318,5.7663,0.036041,0.019853,-0.025351
0.061035,2.1771,8.5318,5.8055,0.017715,0.021686,-0.018021
0.071594,2.0202,8.6887,6.0213,-0.010079,0.022602,-0.0073304
0.055389,2.1378,8.6102,5.8055,0.00061087,0.0281,-0.0048869
0.055817,2.0594,8.5318,5.7663,-0.029016,0.034208,0.0024435
0.049469,2.2359,8.6102,5.7467,-0.025656,0.035736,0.0073304
0.05188,2.1182,8.6887,5.9036,-0.0085521,0.036346,-0.007025
0.050659,2.079,8.6102,5.8055,0.017104,0.036041,-0.010996
0.040894,2.1575,8.571,5.7859,0.037568,0.033598,-0.015882
0.04892,2.1378,8.5318,5.6682,0.04612,0.032376,-0.014355
0.033844,2.0006,8.6691,5.8055,-0.0048869,0.033292,-0.010079
0.043457,2.2948,8.6887,5.7663,-0.021686,0.033903,-0.0033598
0.04483,2.1771,8.7671,5.8055,0.025656,0.027184,-0.013439
0.037842,2.1182,8.571,5.6682,0.017104,0.033903,-0.0088575
0.029022,2.0006,8.5318,5.7663,0.0024435,0.034514,0.0012217
0.032959,2.0594,8.6102,5.7467,-0.016799,0.033598,0.0030543
0.0289,2.0594,8.7868,5.884,-0.030238,0.034208,0.007025
0.02182,2.1378,8.6887,5.7467,-0.031765,0.03146,0.007025
0.010498,2.1182,8.571,5.7271,0.024129,0.029627,-0.0015272
0.00042725,2.0202,8.5514,5.7075,0.027184,0.029016,-0.012217
-0.0027161,2.0594,8.6102,5.7075,0.022907,0.025045,-0.023518
-0.0048523,2.0594,8.7083,5.6682,0.033903,0.022602,-0.026267
-0.01059,2.0594,8.7868,5.9036,0.036041,0.02474,-0.0045815
-0.012573,2.0006,8.6887,5.7467,0.024435,0.025962,-0.0027489
-0.017578,2.0006,8.571,5.8055,0.0018326,0.025045,0
-0.015045,2.0006,8.5122,5.6682,-0.011912,0.023213,0.0061087
-0.025452,2.1182,8.6102,5.7467,-0.015882,0.022602,0.0009163
-0.010437,2.1378,8.7868,5.7467,0.0061087,0.02474,-0.012523
-0.0095215,2.0006,8.826,5.884,-0.040928,0.022602,0.002138
0.0025024,1.9809,8.6299,5.8055,-0.047647,0.020159,-0.009163
0.011017,2.1771,8.5318,5.5898,-0.044899,0.01741,0.0027489
0.027954,2.0202,8.6102,5.4917,-0.027794,0.01741,-0.00030543
0.027618,2.0594,8.7868,5.7467,-0.0085521,0.017104,-0.0018326
0.019257,2.1378,8.7083,5.7271,0.0048869,0.015882,0.00061087
0.020905,2.1378,8.7279,5.7467,0.0085521,0.01405,0.0051924
0.025848,2.0594,8.6102,5.7075,0.0009163,0.013744,0.0064141
0.031525,2.2751,8.571,5.7467,-0.022602,0.017715,0.0024435
0.018311,2.2359,8.571,5.6094,-0.033292,0.021686,0.0018326
0.017456,2.079,8.7083,5.6682,-0.041233,0.025351,0.0051924
0.016327,2.2359,8.7279,5.7075,-0.043371,0.02138,0.0036652
0.023804,2.1771,8.7868,5.6486,-0.031154,0.016493,0.0042761
0.020691,2.1771,8.6887,5.6682,-0.020769,0.015272,0.0039706
0.029297,2.0594,8.5514,5.7663,-0.019853,0.013744,0.002138
0.038666,2.0202,8.6691,5.7467,-0.019853,0.011912,0.0015272
0.026367,2.1182,8.6887,5.7467,-0.019548,0.011606,0.0027489
0.033997,2.2359,8.6691,5.7271,-0.024435,0.017104,0.0027489
0.02002,2.2359,8.6102,5.7467,-0.026267,0.020769,0.0009163
0.025543,1.9221,8.7279,5.8644,-0.027794,0.021075,0.0033598
0.030029,2.0202,8.6102,5.7663,-0.03146,0.021686,0.0088575
0.014008,2.1771,8.5318,5.6682,-0.036652,0.021991,0.010385
0.01712,2.0202,8.6102,5.6682,-0.04215,0.022602,0.0073304
0.014801,2.1182,8.6691,5.7271,-0.044593,0.022602,0.0045815
0.0081177,2.1182,8.6887,5.7271,-0.043066,0.020464,0.012217
0.011688,2.0202,8.6887,5.8055,-0.039401,0.018021,0.0088575
0.0036316,2.1182,8.6102,5.7467,-0.034208,0.017104,0.0012217
0.0040283,2.0202,8.5318,5.7663,-0.031765,0.017104,0.0036652
-0.0011902,2.1378,8.6691,5.7271,-0.027489,0.017715,0.0064141
-0.0038147,2.0202,8.7671,5.7663,-0.021075,0.018631,0.007025
0.0043945,2.0006,8.7083,5.7271,-0.021075,0.020464,0.01069
0.0064392,2.0006,8.6102,5.6486,-0.029932,0.022602,0.012828
0.00054932,2.0006,8.5514,5.6682,-0.036957,0.03207,0.016493
0.017242,2.1378,8.571,5.8055,-0.035736,0.029627,0.012523
0.021118,2.2359,8.6691,5.7467,-0.039706,0.028711,0.043371
0.033508,2.0202,8.7868,5.884,-0.041539,0.028711,0.039095
0.036987,2.1575,8.7083,5.7467,-0.044899,0.026573,0.034514
0.022308,2.1378,8.6102,5.7075,-0.044288,0.025351,0.03207
0.027863,2.1182,8.5318,5.6682,-0.041844,0.02474,0.024435
0.034424,2.0006,8.6887,5.8644,-0.037874,0.021991,0.018326
0.027863,1.9809,8.7083,5.7271,-0.026573,0.020159,-0.029932
0.038116,1.9809,8.6691,5.8055,-0.027794,0.019242,-0.029322
0.0336,2.1378,8.6691,5.7467,-0.028711,0.012523,0.0064141
0.032898,2.1575,8.6887,5.7271,-0.026267,0.0027489,0.0024435
0.034271,2.334,8.6102,5.7467,-0.022297,-0.0054978,-0.0061087
0.027679,2.1771,8.6887,5.7467,-0.020464,-0.010385,-0.020159
0.039978,2.2359,8.7083,5.7075,-0.031154,-0.014966,-0.027794
0.028992,2.2359,8.6887,5.7271,-0.025351,-0.015577,-0.028405
0.02594,2.1575,8.6887,5.7075,-0.040928,-0.014355,-0.011301
0.027802,2.1182,8.6691,5.7467,-0.045509,-0.01405,-0.0009163
0.024933,2.0594,8.7279,5.6486,-0.04612,-0.0097738,-0.029322
0.026611,2.0006,8.6887,5.7663,-0.03879,-0.007025,-0.030238
0.026184,2.0594,8.7279,5.7075,-0.024435,-0.0088575,-0.030849
0.023315,2.0594,8.6102,5.8055,-0.010996,-0.0088575,-0.031154
0.019592,2.0594,8.5318,5.8055,-0.022297,-0.0067195,-0.030543
0.0080872,2.079,8.4729,5.8055,-0.032376,-0.0036652,-0.022602
-0.0034485,2.2359,8.4729,5.8055,-0.013134,0.0015272,0.017715
-0.0061646,2.1575,8.6691,5.8252,-0.025656,0.0045815,0.021075
-0.010986,2.1182,8.6691,5.7467,-0.038485,0.0094684,0.0073304
-0.013672,2.0594,8.6102,5.7663,-0.047342,0.015272,0.0085521
-0.011139,2.0594,8.571,5.7663,-0.047342,0.020159,0.011606
-0.024048,2.0594,8.571,5.8644,-0.04612,0.025351,0.013134
-0.019867,2.1575,8.6691,5.8055,-0.0045815,0.029627,0.013744
-0.019409,2.0594,8.571,5.7467,-0.0058032,0.03207,0.014661
-0.026184,2.079,8.6887,5.5898,-0.042761,0.016493,-0.0064141
-0.01413,2.1575,8.6887,5.7467,-0.041539,0.012828,-0.009163
0.0062866,2.0006,8.6887,5.8644,-0.034514,0.01069,0.013744
0.012543,1.9613,8.6691,5.9036,-0.022297,0.0082467,0.0027489
0.016602,2.1575,8.4729,5.7467,-0.01741,0.0088575,0.00061087
0.005188,2.1575,8.571,5.7271,-0.019548,0.0073304,0.0079412
0.011047,2.0006,8.6887,5.8055,-0.0281,0.0061087,0.0030543
0.0079651,2.1575,8.6887,5.7663,-0.03146,0.0058032,-0.0033598
0.0018311,2.0594,8.571,5.8055,-0.028405,0.0064141,-0.0024435
0.0011902,2.0594,8.6102,5.8055,-0.025351,0.0088575,0.0015272
-0.0055237,2.0202,8.5318,5.8055,-0.022602,0.0054978,-0.010996
-0.00091553,2.079,8.6102,5.7467,-0.019548,0.0030543,-0.011606
-0.0094604,2.1182,8.6102,5.7663,-0.015577,0.0027489,-0.011912
-0.015686,2.1575,8.6102,5.7467,-0.014966,0.0033598,-0.011912
0.00054932,2.079,8.6102,5.8644,-0.014966,0.0051924,-0.0079412
-0.0073547,2.2359,8.6102,5.8055,-0.015882,0.0085521,-0.0048869
-0.017029,2.2359,8.6102,5.7663,-0.018937,0.009163,0.010996
-0.0087891,2.2359,8.6691,5.8055,-0.023518,0.0082467,0.018937
-0.005188,2.0594,8.571,5.884,-0.029016,0.011301,0.0033598
-0.0083008,2.1575,8.571,5.7467,-0.035125,0.014966,0.0048869
-0.00091553,2.0594,8.571,5.9036,-0.034819,0.013439,0.0054978
-0.003418,2.1575,8.6102,5.7467,-0.018326,0.011606,-0.0012217
-0.0033264,2.1182,8.5318,5.8055,0.0045815,0.014966,-0.0058032
-0.0019836,2.079,8.6102,5.8055,0.01741,0.01741,0.002138
-0.016296,2.079,8.5514,5.9036,0.010079,0.019242,0.0064141
-0.011932,2.1575,8.5318,5.7663,-0.0097738,0.018937,0.0051924
-0.018951,2.0594,8.5318,5.8644,-0.027489,0.017715,0.017104
-0.029114,2.1378,8.7083,5.7663,-0.036346,0.018021,0.010079
-0.020874,2.0202,8.6887,5.9036,-0.03207,0.018631,0.0045815
-0.028351,2.2163,8.6102,5.7467,-0.019853,0.019853,0.0012217
-0.028259,2.1575,8.6102,5.7467,-0.0085521,0.017715,0.0024435
-0.023926,2.079,8.6102,5.7663,-0.0036652,0.017104,0.0064141
-0.023254,2.0006,8.6102,5.9036,-0.025656,0.012217,-0.00030543
-0.02121,2.1182,8.6102,5.7467,-0.026573,0.01405,0.00030543
0.0053101,2.2359,8.6102,5.8055,-0.026573,0.01405,-0.011912
-0.0042419,2.1182,8.5318,5.7467,-0.028711,0.013744,-0.0076358
0.011688,2.0594,8.5318,5.884,-0.034208,0.013134,-0.002138
0.0099182,2.0594,8.5514,5.8055,-0.03543,0.012828,0.0024435
-6.1035e-05,2.1378,8.571,5.7663,-0.029932,0.010996,0.0042761
0.0075989,2.1575,8.6887,5.7271,-0.027489,0.012828,0.002138
0.010559,2.0202,8.6102,5.8055,-0.016493,0.014355,0.0073304
0.012054,2.079,8.571,5.7467,-0.012828,0.013134,0.0051924
0.010376,2.1378,8.571,5.8055,-0.017715,0.012828,0
0.01239,2.2359,8.571,5.8055,-0.025351,0.012828,0.00061087
0.0018005,2.1378,8.571,5.8055,-0.034514,0.011606,0.0058032
0.0075073,2.1182,8.6102,5.7467,-0.040317,0.012523,0.0094684
0.007843,2.1182,8.6691,5.7467,-0.033903,0.013744,0.0094684
0.0058594,2.2948,8.6102,5.7663,-0.025962,0.013439,0.009163
0.0068054,2.0202,8.6887,5.884,-0.027794,0.014661,0.00061087
0.0029602,2.079,8.6691,5.7467,-0.021075,0.01405,-0.00061087
0.0041504,2.0006,8.6299,5.8252,-0.015272,0.014355,0.0027489
0.0030212,2.1575,8.571,5.7467,-0.01405,0.013134,-0.00030543
0.00061035,2.1771,8.6102,5.884,-0.017715,0.011606,-0.00061087
0.00097656,2.2948,8.5318,5.8055,-0.024129,0.009163,-0.0018326
-0.017365,2.0594,8.5318,5.8644,-0.039095,0.0085521,-0.0027489
-0.01236,2.334,8.5122,5.7467,-0.032987,0.007025,-0.0009163
-0.0066223,2.1575,8.6887,5.8252,-0.0061087,0.017715,-0.0054978
-0.0095215,2.079,8.6887,5.7467,-0.0064141,0.013744,-0.010996
-0.017639,2.0594,8.6691,5.9036,-0.0051924,0.013134,0.0039706
-0.015411,2.2359,8.5514,5.7663,-0.0036652,0.015272,0.0018326
-0.019257,2.2359,8.6102,5.7467,-0.0054978,0.017715,0.00061087
-0.016815,2.1771,8.571,5.8055,-0.011606,0.018326,0.002138
-0.015228,2.1378,8.6299,5.7467,-0.018021,0.016188,0.00030543
-0.019592,2.1182,8.6887,5.7467,-0.025351,0.013134,-0.002138
-0.0039673,2.1575,8.5514,5.8055,-0.032987,0.015882,-0.0054978
0.0044556,2.1575,8.6102,5.9036,-0.03879,0.019242,-0.0079412
0.0095825,2.334,8.5318,5.8252,-0.041233,0.019853,0.0033598
0.019806,2.2948,8.5318,5.7467,-0.037874,0.019548,0.0036652
0.03479,2.334,8.6102,5.8055,-0.031154,0.018326,0.0048869
0.026947,2.1182,8.6691,5.7663,-0.024435,0.015272,0.002138
0.031647,2.334,8.571,5.8055,-0.015577,0.011301,0.0009163
0.019531,2.2948,8.4729,5.7663,-0.0082467,0.0088575,0
0.01413,2.2948,8.5318,5.8055,-0.0030543,0.0067195,-0.014355
0.022797,2.0594,8.6299,5.884,-0.0024435,0.0054978,-0.017104
0.028168,2.2948,8.5122,5.7467,-0.009163,0.010385,-0.0064141
0.032166,2.334,8.5122,5.8055,-0.023518,0.016799,-0.0039706
0.025177,2.2948,8.5514,5.8055,-0.040012,0.019242,-0.0012217
0.022644,2.1575,8.6102,5.7663,-0.04948,0.020159,-0.0024435
0.014374,2.2948,8.5318,5.8644,-0.04948,0.022602,-0.0079412
0.015076,2.1378,8.6102,5.8055,-0.037874,0.023213,-0.011301
0.013824,2.2948,8.5318,5.8644,-0.024435,0.0048869,-0.0039706
0.028137,2.1182,8.5318,5.6682,-0.02138,0.0030543,-0.0048869
0.014221,2.2948,8.5122,5.7663,-0.019242,0.0051924,-0.0076358
0.0068359,2.1575,8.6102,5.8644,-0.014355,0.0076358,-0.0064141
0.014526,2.2163,8.6691,5.7663,-0.012828,0.0085521,-0.0042761
0.021729,2.2948,8.5318,5.7467,-0.017715,0.0085521,-0.0024435
0.015503,2.2751,8.6102,5.884,-0.023824,0.010385,-0.002138
0.0046387,2.2948,8.4729,5.7663,-0.025962,0.01069,-0.0027489
0.0084839,2.2751,8.5318,5.7271,-0.025351,0.0094684,0.0015272
-0.0036316,2.1771,8.6102,5.7271,-0.021991,0.011606,0.002138
-0.0015259,2.2359,8.6887,5.7663,-0.015882,0.011606,-0.0054978
-0.0094604,2.2948,8.6102,5.8252,-0.010996,0.009163,-0.002138
-0.016571,2.2359,8.6102,5.884,-0.0088575,0.01069,0.0027489
-0.00048828,2.0202,8.5318,5.8055,-0.012523,0.011301,0.0039706
-0.023529,2.0594,8.5318,5.7663,-0.019548,0.010996,0.0036652
-0.016632,2.0006,8.5514,5.7663,-0.026267,0.012828,0.0030543
-0.013,1.9809,8.6102,5.9624,-0.026573,0.0030543,-0.010385
-0.010437,2.0594,8.6887,5.8055,-0.02474,0.0033598,-0.015882
0.0086975,2.0006,8.6102,5.9821,-0.02138,0.0039706,-0.015577
0.016235,2.2751,8.3945,5.8055,-0.019548,0.0045815,-0.020159
0.0067139,2.2359,8.3749,5.7467,-0.019853,0.0048869,-0.024435
0.023621,2.0594,8.5122,5.8252,-0.025351,0.0061087,-0.021686
0.018341,2.1182,8.6691,5.884,-0.022602,0.0088575,-0.015577
0.022522,2.2751,8.6691,5.7663,-0.024129,0.013744,-0.011912
0.027069,2.2359,8.6887,5.7467,-0.027794,-0.0058032,-0.010385
0.020447,2.0202,8.571,5.7467,-0.025962,-0.0045815,-0.0079412
0.020752,2.0594,8.571,5.6094,-0.025656,0.024435,-0.0094684
0.028564,2.1575,8.6691,5.7467,-0.018021,0.025351,-0.0058032
0.024536,2.2751,8.6102,5.8644,-0.023518,0.025962,-0.018021
0.03833,2.0006,8.571,5.9821,-0.0281,0.025962,-0.013744
0.039276,2.1182,8.3945,5.8252,-0.018326,0.023213,-0.0082467
0.0336,2.1575,8.3945,5.8644,-0.0024435,0.017715,-0.016493
0.035614,2.2163,8.4141,5.884,-0.0015272,0.0036652,0.013744
0.033142,2.1575,8.6299,5.9232,0.016799,0.0067195,0.0067195
0.025787,2.1575,8.6887,5.8644,0.018631,0.010079,0.00030543
0.03244,2.1182,8.6299,5.7467,0.0079412,0.011912,0.011912
0.039612,2.0594,8.5514,5.6682,-0.010996,0.015577,0.018937
0.024872,2.0006,8.571,5.8644,-0.029627,0.016493,0.023213
0.02713,2.079,8.6102,5.8644,-0.055589,0.017104,0.024435
0.029022,2.0594,8.6299,5.9036,-0.0281,0.016188,0.019853
0.021881,2.1575,8.571,5.8055,-0.026878,0.011912,-0.0058032
0.020569,2.1378,8.5514,5.7663,-0.017104,0.0088575,-0.013744
0.0078125,2.1182,8.571,5.7663,-0.013134,0.0067195,0.0030543
0.0076904,2.1378,8.5514,5.8644,-0.012523,0.0054978,0.0054978
0.0037537,2.1378,8.5514,5.8055,-0.014966,0.0051924,0.0094684
0.0090332,2.1182,8.6102,5.9232,-0.019548,0.0051924,0.0088575
0.014557,2.2359,8.5318,5.9624,-0.036346,0.0064141,0.0048869
0.022003,2.0202,8.4729,5.9036,-0.034514,0.0061087,0.00061087
0.026886,2.1575,8.5318,5.7467,-0.029627,0.0082467,-0.00030543
0.028748,2.0006,8.6102,5.9036,-0.024129,0.0064141,-0.007025
0.050934,2.1575,8.6102,5.8055,-0.0073304,0.0061087,0.0012217
0.062592,2.1771,8.6887,5.9036,0.0048869,0.0085521,-0.0030543
0.062195,2.1378,8.6102,5.8055,0.0094684,0.0082467,-0.0009163
0.069031,2.2948,8.4533,5.6682,0.007025,0.007025,-0.00030543
0.065277,2.1378,8.5514,5.8055,-0.0039706,0.0058032,0.0036652
0.075104,2.0594,8.571,5.8055,-0.020159,0.0036652,0.0048869
0.072266,2.0006,8.5514,5.9036,-0.03879,0.0039706,-0.002138
0.0672,2.079,8.5122,5.7467,-0.047037,0.0079412,-0.00030543
0.059967,2.1378,8.5122,5.8644,-0.050091,0.0079412,-0.0012217
0.066467,2.1378,8.571,5.8055,-0.047953,0.0076358,-0.002138
0.060242,2.0594,8.6887,5.9036,-0.037568,0.0088575,-0.0064141
0.050354,2.1378,8.6691,5.8644,-0.025351,0.0064141,-0.0097738
0.054199,2.0202,8.6102,5.9232,-0.014661,0.0048869,-0.0097738
0.045502,2.2948,8.4729,5.9036,-0.0073304,0.0054978,-0.0067195
0.040405,2.1182,8.4729,5.884,-0.0094684,0.007025,0.0067195
0.041077,2.1182,8.5318,5.8055,-0.013134,0.012523,0.010385
0.025513,2.1378,8.5514,5.8644,-0.014355,0.014966,0.0030543
0.020905,2.2751,8.5318,5.8252,-0.020159,0.013439,0.0067195
0.032898,2.0202,8.6102,5.9821,-0.0281,0.014661,0.0097738
0.025543,2.0594,8.571,5.7663,-0.035125,0.018021,0.0082467
0.030182,2.079,8.5318,5.8644,-0.040012,0.018631,0.0064141
0.010315,2.2359,8.571,5.8055,-0.036957,0.018021,0.0067195
0.012329,2.1182,8.6102,5.8644,-0.027489,0.019548,0.0058032
0.015656,2.2359,8.6299,5.9036,-0.020769,0.02138,0.0024435
0.010834,2.1182,8.571,5.9232,-0.015577,0.019242,0.018631
0.01001,2.1378,8.4729,5.7663,-0.013744,0.016799,0.019242
3.0518e-05,2.1575,8.5122,5.8055,-0.016799,0.013134,0.015272
0.0036011,2.079,8.6102,5.7663,-0.02138,0.010385,0.013439
-0.007782,2.0594,8.6691,5.7663,-0.025045,0.010385,0.013439
-0.010712,2.0594,8.6691,5.8055,-0.028405,0.0088575,0.011301
-0.0049438,2.1182,8.571,5.8644,-0.023213,0.0097738,0.0094684
0.0021973,2.0594,8.5318,5.8055,-0.017715,0.014661,0.0079412
0.021393,2.0594,8.5122,5.8055,-0.0088575,0.014355,0.002138
0.022644,2.1182,8.4729,5.7663,-0.0039706,0.013744,0.01069
0.016724,2.0594,8.5318,5.9036,-0.0030543,0.01405,0.01405
0.016937,2.1575,8.6102,5.8252,-0.0048869,0.01405,0.013439
0.022095,2.1182,8.571,5.9624,-0.0079412,0.01405,0.014355
0.012054,2.1378,8.5318,5.8055,-0.01069,0.016188,0.010079
0.014404,2.1575,8.5318,5.8055,-0.015882,0.01741,-0.00030543
0.028473,2.1575,8.5318,5.884,-0.01405,0.017104,-0.0015272
0.016174,2.1378,8.6102,5.8644,-0.012523,0.020769,0.0079412
0.017731,2.1771,8.6691,5.9036,-0.011912,0.025045,0.0094684
0.012817,2.1771,8.5318,5.8252,-0.011606,0.027794,0.010079
-0.0010376,2.079,8.5318,5.8055,-0.0061087,0.027794,0.0094684
0.0048828,2.2359,8.571,5.9036,-0.011301,0.026878,0.0061087
-0.010803,2.1182,8.5514,5.8252,-0.014661,0.0281,0.0012217
-0.022308,2.0006,8.6102,5.9232,0.0076358,0.029322,-0.02138
-0.017883,2.079,8.5318,5.7663,-0.0012217,0.029016,-0.017104
-0.025085,2.1575,8.5318,5.8252,-0.010996,0.027184,-0.0045815
-0.027313,2.1575,8.571,5.8055,-0.020769,0.024435,-0.0067195
-0.02301,2.1967,8.6102,5.884,-0.027794,0.020159,-0.0097738
-0.038269,2.2163,8.6102,5.8055,-0.026573,0.015882,-0.013744
-0.040466,2.0006,8.6299,5.8644,0.0018326,0.013134,-0.018631
-0.038086,2.0202,8.6299,5.7271,0.0094684,0.013134,-0.020464
-0.048248,2.0594,8.6102,5.7467,-0.026267,0.012217,-0.002138
-0.057495,2.1575,8.5318,5.7467,-0.02474,0.010385,0.0024435
-0.058014,2.1771,8.5514,5.9036,-0.021686,0.010385,-0.011912
-0.071228,2.2751,8.5514,5.884,-0.015272,0.01069,-0.011912
-0.066589,2.2359,8.5318,5.8055,-0.0085521,0.0088575,-0.013134
-0.070587,2.0594,8.5514,5.7663,-0.0067195,0.0073304,-0.014661
-0.071381,2.1182,8.6102,5.7663,-0.025045,0.0048869,-0.010385
-0.069763,2.0594,8.6102,5.7467,-0.025045,0.0036652,-0.0033598
-0.060394,2.1182,8.6102,5.9036,-0.01069,-0.03146,-0.030543
-0.062286,2.1771,8.6887,5.9232,0.022297,-0.038179,-0.018631
-0.039398,2.2751,8.571,5.8644,0.011606,-0.048869,-0.010385
-0.041412,2.2751,8.4729,5.7663,-0.024435,-0.048869,-0.042761
-0.04718,2.2751,8.4729,5.8055,-0.037263,-0.04215,-0.054672
-0.034729,2.1575,8.5318,5.7271,-0.016799,-0.032681,-0.043066
-0.024689,2.2751,8.6102,5.7467,0.007025,-0.027794,-0.041844
-0.031342,2.3732,8.6102,5.9232,0.012217,-0.025045,-0.040928
-0.039734,2.432,8.5318,5.9036,0.015272,-0.029322,-0.025656
-0.043152,2.1575,8.5122,5.7467,0.015272,-0.027489,-0.030543
-0.051392,2.334,8.5122,5.7467,0.0076358,-0.016188,-0.018631
-0.061859,2.1575,8.6102,5.7467,-0.01069,-0.0076358,-0.027794
-0.060211,2.1771,8.6691,5.8055,-0.036041,-0.0024435,-0.017715
-0.074371,2.4517,8.571,5.8644,-0.055589,-0.0018326,-0.009163
-0.058685,2.1182,8.2964,5.9036,-0.069028,0.0012217,-0.016799
-0.064667,2.2359,8.4729,5.7467,-0.085827,0.007025,-0.022297
-0.058502,1.9809,8.6887,5.9036,-0.094379,0.0051924,-0.027184
-0.048492,2.2555,8.571,5.9036,-0.076969,0.00061087,-0.028405
-0.041626,2.2359,8.4533,5.6486,-0.050702,-0.0024435,-0.025656
-0.026154,2.3732,8.5514,5.7467,-0.03543,-0.0085521,-0.015577
-0.011261,2.1378,8.5318,5.8252,-0.036346,-0.011912,-0.01741
-0.0033264,2.1771,8.6299,5.7663,-0.041233,-0.016799,-0.021991
0.0046082,2.1771,8.7671,5.8252,-0.043371,-0.020159,-0.020769
0.020416,2.1575,8.6102,5.7663,-0.044593,-0.017104,-0.025045
0.019501,2.0006,8.5318,5.8055,-0.036041,-0.012828,-0.077885
0.022797,2.2359,8.5318,5.9036,-0.034819,-0.015882,-0.038179
0.020782,2.2751,8.6102,5.9232,-0.043371,-0.019548,-0.0033598
0.022736,2.0006,8.5514,5.9821,-0.051618,-0.022297,-0.007025
0.016998,2.1575,8.4729,5.9036,-0.054672,-0.026573,-0.014355
0.024445,2.3732,8.4729,5.8644,-0.067806,-0.042761,-0.022602
0.016724,2.1771,8.4729,5.9624,-0.083078,-0.054367,-0.029322
0.01062,2.0594,8.5318,5.9821,-0.060476,-0.04215,-0.050396
0.012512,2.1182,8.5318,5.8252,0.052229,0.029627,-0.04215
0.02417,2.1575,8.5318,5.9624,0.030543,0.029016,-0.044899
0.031281,2.1182,8.5318,5.9036,0.010385,0.029627,-0.0079412
0.033905,2.0006,8.5318,6.0409,0.0033598,0.027489,-0.0097738
0.036438,2.079,8.5122,5.8644,0.0088575,0.024435,-0.015272
0.031006,2.1182,8.5318,5.8644,0.023518,0.021686,-0.028405
0.032166,2.0594,8.5514,5.7663,0.057727,0.019242,-0.040012
0.022034,2.1378,8.5514,5.7467,0.062003,0.014966,-0.042761
0.017456,2.2359,8.5514,5.8055,0.047342,0.011606,-0.070555
0.026917,2.2163,8.5514,5.8252,0.04612,0.0067195,-0.067195
0.020294,2.3732,8.6691,5.9036,0.041844,-0.0039706,-0.049175
0.031006,2.1575,8.6299,5.9232,0.037874,-0.012523,-0.055894
0.034058,2.1575,8.5318,5.8055,0.034208,-0.015577,-0.064141
0.019684,2.0594,8.4141,5.8644,0.033292,-0.020769,-0.069028
0.02063,2.1575,8.5514,5.9036,0.038485,-0.026878,-0.069333
0.025635,2.0594,8.5514,5.9232,0.045815,-0.03146,-0.070555
0.021881,2.1575,8.571,5.9036,0.0088575,-0.033292,-0.036957
0.011932,2.0594,8.4533,5.884,0.033598,-0.037568,-0.034514
0.018219,2.1771,8.5122,5.7467,0.036346,-0.038485,-0.061697
0.010468,2.1771,8.6887,5.884,0.034514,-0.040317,-0.056505
0.0096741,2.079,8.7083,5.7467,0.032681,-0.044288,-0.05284
0.0078125,2.1378,8.6102,5.7663,0.028711,-0.045509,-0.049786
0.014771,2.1182,8.571,5.6682,0.023213,-0.045509,-0.047647
0.01825,2.0006,8.6102,5.8252,0.016188,-0.048258,-0.040317
0.0072632,2.0006,8.6102,5.7271,0.021075,0.030238,-0.016188
0.0034485,2.0006,8.6691,5.8644,0.02138,0.031154,-0.01069
-0.005188,2.0202,8.6691,5.7271,0.015272,0.027489,-0.0018326
-0.0098877,2.1575,8.6102,5.7467,0.0051924,0.025962,-0.010079
-0.0040283,2.0594,8.571,5.6682,-0.00030543,0.025351,-0.019853
-0.017456,2.1575,8.6887,5.7467,0.007025,0.024129,-0.027489
-0.0090942,2.0594,8.6887,5.7075,0.023824,0.025656,-0.028711
-0.015686,2.0202,8.6691,5.7467,0.043371,0.028711,-0.023213
-0.022308,2.1182,8.6691,5.7467,0.0051924,-0.022297,-0.040012
-0.006897,2.079,8.6887,5.884,-0.0036652,-0.025656,-0.040623
-0.001709,2.0006,8.5318,5.9232,-0.0097738,-0.034208,-0.044899
0.0036011,2.0202,8.571,5.7075,-0.0088575,-0.041844,-0.049175
0.0023499,2.0006,8.6887,5.6682,-0.0076358,-0.048564,-0.049175
0.0070801,2.1771,8.7868,5.7271,-0.007025,-0.052229,-0.045815
0.011047,2.1182,8.7868,5.7271,-0.0079412,-0.053756,-0.045204
-0.00033569,2.1771,8.7868,5.7467,-0.012217,-0.054367,-0.043677
0.0095825,2.0202,8.6691,5.7467,-0.01741,-0.056505,-0.021991
0.01004,2.1575,8.6691,5.7075,-0.021075,-0.057116,-0.022297
0.0040283,2.1378,8.6887,5.6682,-0.023518,-0.058948,-0.04215
0.0078735,2.0202,8.6887,5.6682,-0.024435,-0.061697,-0.039706
0.0099792,2.0202,8.7083,5.7663,-0.0281,-0.065363,-0.033292
0.0049133,2.0594,8.7868,5.6682,-0.025351,-0.065668,-0.027794
0.0099792,2.0006,8.7279,5.7467,-0.022907,-0.071777,-0.026573
0.015533,2.1378,8.7279,5.6486,-0.015272,-0.076053,-0.023824
0.0010071,2.2163,8.7671,5.7075,-0.018631,-0.0064141,0.010996
0.008728,2.1182,8.6887,5.7467,-0.032681,-0.0045815,0.0027489
-0.0012512,2.0006,8.7671,5.7467,-0.037263,-0.0024435,0.012828
-0.0011292,2.0006,8.7868,5.6682,-0.037263,0.0012217,0.0097738
0.00015259,2.1575,8.6887,5.6094,-0.030849,0.0058032,0.015577
0.0029297,2.1575,8.7868,5.5898,-0.023518,0.0088575,0.016188
-0.0048828,2.1575,8.7279,5.6486,-0.024129,0.0082467,0.018937
0.0045166,2.2751,8.826,5.5702,-0.027489,0.0061087,0.017715
0.0019836,2.1771,8.6887,5.5702,-0.0281,0.0036652,-0.040317
0.0045471,2.0202,8.826,5.5702,-0.023518,0.0045815,-0.042761
0.014191,1.9221,8.7868,5.7467,-0.011912,0.0009163,-0.0058032
0.013672,2.2751,8.571,5.6486,-0.002138,-0.0033598,-0.010385
0.020233,2.1575,8.7279,5.6682,0.0024435,-0.0054978,-0.014661
0.02951,2.1182,8.6887,5.6486,0.0061087,-0.009163,-0.021991
0.031494,2.1378,8.6102,5.5702,0.0051924,-0.013134,-0.029016
0.03949,2.2948,8.6887,5.5506,0.0045815,-0.01741,-0.034514
0.047852,2.2948,8.571,5.5702,0.054367,-0.043677,-0.050396
0.069855,2.1182,8.6691,5.6682,0.044288,-0.043982,-0.043066
0.098694,2.1575,8.8652,5.7663,0.0082467,-0.040317,-0.083078
0.1214,2.0006,9.1006,5.7467,-0.019242,-0.032987,-0.077274
0.12683,2.1575,8.9241,5.4917,-0.026878,-0.035125,-0.069333
0.13727,2.2359,8.6887,5.4917,-0.019548,-0.03207,-0.059865
0.1445,2.1575,8.6691,5.5702,0.025351,-0.026878,-0.065973
0.15079,2.0202,8.5514,5.7075,0.045204,-0.021991,-0.064141
0.13568,2.2948,8.6691,5.7075,-0.048258,-0.029322,-0.0039706
0.13574,2.1575,8.6691,5.5702,-0.048869,-0.0281,-0.012523
0.13162,2.1182,8.7671,5.7075,-0.050091,-0.025045,0.023518
0.11401,2.1575,8.6887,5.5506,-0.05284,-0.022907,0.024129
0.096741,2.0006,8.7868,5.7467,-0.056505,-0.019853,0.023518
0.091492,2.0202,8.7868,5.7075,-0.057421,-0.016493,0.019548
0.069031,1.9809,8.7083,5.7467,-0.048258,-0.012217,0.0097738
0.059448,2.2163,8.7279,5.7271,-0.034819,-0.0067195,0.0009163
0.05072,2.1378,8.7083,5.7271,-0.026267,0.00030543,-0.069028
0.033203,2.2948,8.8456,5.7075,-0.030543,0.0082467,-0.070555
0.033813,1.9809,8.7868,5.7075,-0.033598,0.012217,-0.021991
0.038239,2.0594,8.7083,5.5113,-0.029016,0.014661,-0.033598
0.02533,2.0006,8.7279,5.5702,-0.016188,0.012217,-0.045509
0.02652,2.0202,8.7868,5.5702,-0.0030543,0.0082467,-0.058338
0.034912,2.0202,8.7868,5.5702,-0.026573,0.0051924,-0.068417
0.019806,2.1182,8.7083,5.5702,-0.024129,0.00061087,-0.07086
0.020355,2.1378,8.6691,5.5702,0.0027489,-0.0048869,-0.090408
0.034149,2.1575,8.6102,5.6094,-0.007025,-0.009163,-0.086132
0.027924,2.0594,8.7868,5.7467,-0.015272,-0.011301,-0.069944
0.026031,2.0594,8.8652,5.7075,-0.017104,-0.01741,-0.071471
0.041992,2.0202,8.7868,5.5898,-0.010996,-0.026878,-0.078802
0.039124,2.0006,8.6887,5.5506,0.0039706,-0.033598,-0.088575
0.03949,1.9221,8.7868,5.7467,0.0085521,-0.037874,-0.093768
0.047791,2.0006,8.8456,5.6682,0.011606,-0.040623,-0.09499
0.035492,1.9221,8.826,5.7467,-0.022297,0.013134,0.010079
0.061554,1.9809,8.7279,5.6094,-0.032376,0.012828,0.016799
0.077362,1.9613,8.7475,5.6682,-0.043371,0.015272,0.0061087
0.077087,2.2359,8.7083,5.6094,-0.051924,0.016493,0.0094684
0.075653,2.2359,8.8456,5.5702,-0.057116,0.016188,0.0082467
0.088013,2.0006,8.8652,5.6682,-0.054672,0.016799,0.0051924
0.07489,2.0202,8.6887,5.5702,-0.041539,0.018937,0.0018326
0.071899,2.0594,8.6887,5.6486,-0.026267,0.020769,0.0036652
0.07196,2.0006,8.7083,5.5898,-0.017715,0.023213,0.029322
0.052551,1.8633,8.826,5.7075,-0.013744,0.027794,0.028711
0.052765,1.9809,8.7868,5.5506,-0.016188,0.032681,0.022297
0.046478,1.824,8.8456,5.6682,-0.026267,0.037263,0.027489
0.034485,1.9221,8.7671,5.6094,-0.037874,0.041539,0.029932
0.016235,1.9221,8.6887,5.7467,-0.047037,0.041539,0.033292
0.020508,2.1575,8.6887,5.6682,-0.048564,0.042455,0.033292
0.012665,1.9809,8.6887,5.7467,-0.044899,0.044288,0.029627
0.00064087,2.2359,8.6887,5.6682,-0.037263,0.042761,0.0027489
0.013947,1.9221,8.7868,5.7663,-0.031154,0.040317,-0.0027489
-0.004364,2.0006,8.6887,5.6094,-0.025045,0.039095,0.029016
0.020477,1.9809,8.7083,5.6682,-0.022297,0.038179,0.027794
0.01355,2.0006,8.6887,5.5702,-0.022907,0.035125,0.024129
-0.0022278,1.9613,8.7868,5.7075,-0.024435,0.032987,0.020159
-0.0077515,2.0594,8.7868,5.5702,-0.027489,0.032376,0.014661
0.0020142,2.0594,8.7083,5.4917,-0.031765,0.034208,0.0088575
-0.00094604,2.2751,8.7868,5.5702,-0.035125,0.038179,-0.024435
-0.0068054,2.0202,8.826,5.7467,-0.030238,0.027184,-0.025962
0.00094604,2.1575,8.7083,5.6682,-0.017104,0.022602,-0.0036652
-0.0056152,2.0202,8.6691,5.6682,-0.017104,0.023824,-0.00061087
-0.0096436,2.2163,8.6299,5.5702,-0.029322,0.020769,-0.0009163
-0.0050049,1.9809,8.7083,5.6094,-0.035125,0.016188,-0.011912
0.0040588,2.1575,8.7083,5.7075,-0.029627,0.011301,-0.016799
0.00088501,1.9221,8.7279,5.7075,-0.018937,0.0085521,-0.020159
-0.0040283,2.0006,8.7083,5.6094,-0.011912,0.023518,-0.009163
0.022034,1.9613,8.7279,5.7467,-0.007025,0.023518,-0.0076358
0.031067,2.0202,8.6887,5.6094,-0.00061087,0.026267,0.0018326
0.041138,1.9613,8.7868,5.7467,0.0073304,0.026878,-0.00061087
0.059418,2.1378,8.7868,5.6094,0.01069,0.025962,0.00030543
0.049438,2.0006,8.7868,5.6486,0.007025,0.025962,0.0027489
0.049774,2.0202,8.7083,5.5702,0.0027489,0.02474,-0.0012217
0.053314,2.0006,8.6691,5.6094,-0.0012217,0.024435,-0.0067195
0.059479,2.0006,8.6887,5.5702,-0.020464,0.027489,-0.0067195
0.047791,1.9221,8.7868,5.7075,-0.02474,0.03146,-0.0054978
0.052124,1.9809,8.7279,5.5702,-0.027489,0.029627,-0.0064141
0.054962,2.0006,8.7083,5.6682,-0.027489,0.025962,-0.0048869
0.047241,2.2948,8.6887,5.5702,-0.021686,0.025045,-0.0054978
0.047272,1.9809,8.7279,5.7271,-0.016188,0.023213,-0.0067195
0.049896,2.0006,8.6887,5.6094,-0.0067195,0.022297,-0.0082467
0.041565,1.9613,8.7279,5.7467,-0.013744,0.022907,-0.0082467
0.037903,1.9613,8.7868,5.6486,-0.0054978,0.021075,0.0064141
0.039001,1.8633,8.8652,5.6682,-0.01069,0.017104,0.0088575
0.031464,1.9417,8.7868,5.5702,-0.015577,0.019548,-0.0042761
0.02829,1.8437,8.7868,5.6682,-0.021075,0.021686,-0.0009163
0.044861,2.0006,8.7868,5.6094,-0.0281,0.020464,0.0009163
0.02655,1.9809,8.7279,5.6094,-0.031154,0.021686,0.0024435
0.01889,2.0202,8.7279,5.5702,-0.0094684,0.022602,0.0048869
0.010956,1.9025,8.7083,5.7075,-0.0054978,0.022602,0.0048869
0.006012,1.9221,8.7868,5.5702,-0.019242,0.024129,0.0097738
0.0014343,1.8633,8.826,5.6682,-0.011606,0.02474,0.0094684
0.0098572,1.9809,8.7279,5.6094,-0.0085521,0.02474,0.009163
-0.0026245,1.824,8.7083,5.7075,-0.010079,0.023213,0.0061087
-0.012726,1.9809,8.7083,5.5702,-0.014966,0.020159,0.0058032
-0.00036621,1.9613,8.8456,5.7271,-0.013744,0.021075,0.0088575
0.0043335,2.0006,8.7868,5.5702,-0.030849,0.022297,0.0094684
0.007843,2.0006,8.826,5.6094,-0.026573,0.021075,0.0085521
0.008728,2.0202,8.7671,5.5113,-0.0036652,0.02138,0.00030543
0.021393,2.0006,8.8848,5.6094,-0.0079412,0.025656,-0.0012217
0.037079,2.0202,8.7868,5.6682,-0.0094684,0.024129,-0.0094684
0.043365,1.9221,8.7868,5.6682,-0.01069,0.022297,-0.011912
0.044128,2.1575,8.6102,5.5702,-0.010079,0.024129,-0.011606
0.049835,1.824,8.826,5.6682,-0.009163,0.027489,-0.0079412
0.057434,2.1771,8.7279,5.5702,-0.0097738,0.0281,-0.0012217
0.056274,2.0594,8.7868,5.6682,-0.0082467,0.026573,0.0027489
0.050964,1.8633,8.8848,5.8055,-0.0076358,0.025962,-0.002138
0.049713,2.0006,8.7671,5.6682,-0.0088575,0.025962,-0.0039706
0.043823,2.0006,8.6102,5.6094,-0.0085521,0.024435,-0.0018326
0.053864,2.1575,8.6102,5.6486,-0.009163,0.025045,-0.0018326
0.057678,2.0006,8.7279,5.7271,-0.011912,0.025351,-0.0009163
0.057892,2.2359,8.6887,5.6682,-0.012523,0.02474,-0.002138
0.060638,1.9613,8.7868,5.7075,-0.014966,0.025962,-0.0030543
0.059143,2.0594,8.7279,5.6094,-0.018937,0.0281,-0.0018326
0.052704,2.1182,8.826,5.7271,-0.017715,0.029932,-0.0036652
0.058655,2.0006,8.7671,5.6682,-0.010079,0.030238,-0.0018326
0.057495,1.9613,8.6887,5.7075,-0.007025,0.026573,-0.0045815
0.056458,2.0006,8.6887,5.6094,-0.007025,0.022907,-0.0054978
0.046448,1.824,8.6887,5.7663,-0.0061087,0.020769,-0.0085521
0.042969,1.9221,8.6887,5.5702,0.0012217,0.017715,-0.0094684
0.053436,1.9221,8.7868,5.6682,0.013134,0.018021,-0.01069
0.0354,2.1575,8.6887,5.5702,0.019853,0.019242,-0.0076358
0.020996,2.0006,8.7279,5.6682,-0.013744,0.019242,-0.009163
0.026276,2.0006,8.7083,5.6682,-0.01069,0.014355,-0.0085521
0.033661,1.9221,8.7671,5.7467,-0.0076358,0.012523,0.0042761
0.025024,2.0594,8.7279,5.6094,-0.0067195,0.011606,-0.0030543
0.024963,1.824,8.6887,5.6682,-0.0067195,0.012217,-0.0073304
0.015076,2.0594,8.7083,5.5898,-0.0058032,0.014966,-0.011301
0.030823,2.0594,8.8456,5.7271,-0.0033598,0.01741,-0.012523
0.013947,2.1378,8.7279,5.6094,-0.0015272,0.018631,-0.012217
0.0088501,1.824,8.7868,5.6682,-0.0036652,0.015882,0.0045815
0.021118,1.9221,8.7279,5.5702,-0.01069,0.015272,0.0030543
0.028229,1.9221,8.7279,5.5898,-0.019242,0.014661,0.011301
0.045258,2.2359,8.7279,5.7075,-0.029322,0.016188,0.013744
0.041016,1.9221,8.7868,5.8055,-0.037263,0.016188,0.012523
0.046234,1.9809,8.7279,5.5702,-0.041539,0.015882,0.012828
0.054474,2.0006,8.7868,5.6682,-0.0024435,0.014661,0.012217
0.053162,2.0006,8.7868,5.6094,-0.0012217,0.014661,0.010079
0.047211,2.0006,8.8652,5.7075,-0.021991,0.015577,-0.00061087
0.050537,2.0594,8.7083,5.5898,-0.020159,0.015577,-0.0058032
0.055145,1.9221,8.7083,5.5702,-0.023213,0.016493,0.0061087
0.048889,2.0006,8.7868,5.5702,-0.029627,0.017715,0.0097738
0.060059,1.9613,8.7868,5.6094,-0.036346,0.019548,0.01069
0.071869,1.9613,8.7279,5.5898,-0.042761,0.021686,0.0094684
0.066864,1.9809,8.6299,5.5702,-0.039401,0.021686,0.0067195
0.061981,2.1771,8.6102,5.6486,-0.029627,0.020159,0.0018326
0.073395,2.0594,8.7868,5.7075,-0.015577,0.027184,-0.013744
0.07608,2.0202,8.7279,5.6682,-0.019548,0.019548,-0.0088575
0.069794,1.9221,8.7868,5.7467,-0.019548,0.015272,-0.015882
0.062073,2.0006,8.7279,5.5898,-0.020769,0.01405,-0.014966
0.062073,1.7456,8.7868,5.6094,-0.019853,0.0094684,-0.016799
0.056488,1.8633,8.7671,5.5702,-0.014355,0.0064141,-0.021686
0.057251,1.824,8.7868,5.6682,0.00061087,0.0073304,-0.020159
0.059875,1.9809,8.7868,5.5898,0.011606,0.0036652,-0.018937
0.04953,1.824,8.7083,5.6682,-0.0051924,-0.00061087,-0.0054978
0.043335,1.8633,8.6887,5.5702,-0.0067195,0.0082467,0.0018326
0.035339,1.9809,8.7868,5.6682,-0.0097738,0.011301,-0.010079
0.029938,2.0006,8.826,5.5898,-0.012828,0.012828,-0.0079412
0.03421,1.9221,8.8652,5.7467,-0.012523,0.015272,-0.0073304
0.034729,2.1575,8.6691,5.5702,-0.0082467,0.017715,-0.01069
0.033661,1.8437,8.7279,5.5702,0.0030543,0.018631,-0.0094684
0.026672,1.9809,8.8848,5.5702,-0.002138,0.01741,-0.0082467
0.033966,1.8437,8.8456,5.7271,-0.036041,0.0067195,-0.0079412
0.057037,2.0202,8.6887,5.6682,-0.038179,0.0051924,-0.0061087
0.053528,2.1575,8.6102,5.6486,-0.030849,0.0051924,-0.010996
0.055603,1.824,8.6887,5.7663,-0.018326,0.0061087,-0.010385
0.052246,2.0006,8.7868,5.6682,-0.0079412,0.0054978,-0.009163
0.054535,1.8633,8.7868,5.5702,-0.0067195,0.0048869,-0.0058032
0.055511,2.0006,8.6887,5.5702,-0.0088575,0.0058032,-0.0058032
0.047302,1.9613,8.6887,5.5702,-0.014966,0.0082467,-0.0079412
0.05661,2.1575,8.7671,5.7271,-0.0061087,0.011606,-0.00030543
0.052185,2.1182,8.7083,5.6094,-0.019242,0.01405,0.0024435
0.042175,2.1378,8.6102,5.6486,-0.022907,0.013439,-0.0051924
0.040527,2.0594,8.8456,5.7075,-0.027489,0.013134,-0.0076358
0.038086,2.1378,8.8456,5.6682,-0.027489,0.013744,-0.0085521
0.038605,1.9221,8.7279,5.5898,-0.021991,0.01405,-0.0054978
0.029449,2.1182,8.7671,5.6094,-0.016188,0.013439,-0.0024435
0.048004,2.0006,8.6887,5.5702,-0.01069,0.013134,0.00030543
0.047821,2.1771,8.7279,5.7467,-0.033598,0.0073304,0.0009163
0.043243,2.1575,8.7279,5.7075,-0.025656,0.0024435,-0.0030543
0.039948,2.1575,8.6691,5.7075,-0.019242,0.0045815,-0.007025
0.042786,2.0006,8.7671,5.6682,-0.016799,0.0076358,-0.0064141
0.028076,2.0594,8.7279,5.6682,-0.018937,0.010996,-0.0048869
0.034882,2.1182,8.7083,5.5898,-0.024435,0.012828,0
0.037231,1.9221,8.8652,5.6682,-0.028711,0.01405,0.0009163
0.030029,1.9221,8.7671,5.6682,-0.030849,0.013744,0.0027489
0.025208,1.9025,8.6887,5.7467,-0.029627,0.014966,-0.0027489
0.028717,2.1575,8.7671,5.6682,-0.023213,0.015882,-0.0076358
0.034271,2.0594,8.6887,5.6682,-0.01405,0.015272,-0.0024435
0.020416,2.1182,8.8456,5.6682,-0.0073304,0.015882,-0.00030543
0.023193,1.9613,8.6887,5.7271,-0.0039706,0.014355,0.0015272
0.026123,2.0006,8.6887,5.6094,-0.0064141,0.011912,0.0012217
0.020386,1.9613,8.571,5.6682,-0.015882,0.0097738,0
0.026215,2.1182,8.7279,5.7075,-0.026878,0.0085521,-0.0012217
0.028839,2.0594,8.826,5.6682,-0.029627,0.012828,-0.0018326
0.033325,2.0006,8.8456,5.7075,-0.037874,0.010079,0.0042761
0.053009,1.9221,8.6887,5.5702,-0.051313,0.014355,-0.00030543
0.062347,1.9025,8.6887,5.6682,-0.051924,0.021075,0.00061087
0.071686,2.0006,8.7279,5.5898,-0.041844,0.023213,0.0012217
0.063416,1.8633,8.7868,5.7663,-0.036346,0.020159,0.01069
0.056976,2.0006,8.6887,5.6094,-0.033598,0.019242,0.014355
0.05719,1.9221,8.7279,5.6682,-0.030849,0.021075,-0.0015272
0.056122,1.9221,8.7671,5.5898,-0.02474,0.018631,0.0048869
0.065491,1.9221,8.7868,5.7467,-0.026573,0.021075,0.0079412
0.073212,2.0006,8.7279,5.6682,-0.024129,0.019853,0.0061087
0.080688,1.824,8.7868,5.7075,-0.021991,0.017715,0.0079412
0.075775,1.9613,8.7279,5.5702,-0.02138,0.016493,0.0073304
0.052551,1.9613,8.7083,5.6682,-0.021075,0.016188,0.0064141
0.066711,1.9809,8.7083,5.6094,-0.019242,0.01741,0.0045815
0.07489,1.8437,8.7868,5.7467,-0.015577,0.01741,0.0024435
0.071655,1.9025,8.7083,5.6094,-0.026573,0.018326,0.0027489
0.081512,1.9221,8.7868,5.7467,-0.029627,0.017104,-0.0012217
0.074982,1.9809,8.7868,5.6094,-0.022297,0.018021,0.011301
0.070129,1.824,8.7279,5.7075,-0.011606,0.01741,0.0094684
0.084869,1.9613,8.6887,5.6682,-0.0097738,0.016188,0.0061087
0.071594,1.824,8.826,5.7467,-0.011912,0.014661,0.0061087
0.067078,1.9221,8.7868,5.5898,-0.015882,0.014661,0.007025
0.060822,1.824,8.7868,5.7075,-0.018937,0.014355,0.0051924
0.062164,2.0202,8.7083,5.6682,-0.021991,0.011912,-0.0045815
0.055847,1.9221,8.7671,5.7075,-0.025656,0.015577,-0.0027489
0.042603,2.0594,8.6887,5.6682,-0.027184,0.015272,-0.0067195
0.040955,1.9221,8.6691,5.7075,-0.028405,0.01405,-0.0082467
0.038269,2.0006,8.7868,5.5702,-0.029627,0.014966,-0.0058032
0.03299,1.824,8.7868,5.7467,-0.031765,0.014355,-0.0015272
0.028961,2.0594,8.6887,5.6682,-0.018021,0.012523,-0.0018326
0.013824,1.9613,8.6887,5.7271,-0.022297,0.012828,-0.0036652
0.033569,1.9613,8.7083,5.6682,-0.021991,0.018326,0.0054978
0.040192,1.7456,8.826,5.7271,-0.022297,0.016799,0.0030543
0.048523,2.1182,8.7279,5.6682,-0.016799,0.015577,0.0027489
0.05423,2.0594,8.6887,5.7075,-0.01069,0.012523,0
0.070129,1.9613,8.6887,5.7467,-0.0061087,0.011606,-0.0012217
0.063354,1.9809,8.6691,5.7271,-0.0054978,0.012217,0.00061087
0.0737,2.1378,8.6887,5.6682,-0.010079,0.013134,0.002138
0.069763,2.0006,8.6887,5.6094,-0.018021,0.013134,0.0045815
0.067169,1.9221,8.7868,5.7467,-0.02474,0.013744,-0.00030543
0.064667,1.9613,8.7279,5.6682,-0.031154,0.015272,-0.0015272
0.061188,1.9221,8.7083,5.6682,-0.034819,0.017104,0.0027489
0.05838,2.0006,8.7279,5.6094,-0.034514,0.01741,0.0009163
0.061646,1.8633,8.7083,5.7467,-0.03146,0.018631,-0.00030543
0.058807,2.0006,8.7671,5.6682,-0.025962,0.018021,-0.0042761
0.062469,1.824,8.6887,5.7467,-0.021991,0.015882,-0.0030543
0.058472,1.9221,8.6887,5.6682,-0.021991,0.014661,-0.0009163
0.053955,1.9025,8.826,5.7075,-0.022297,0.014355,-0.0054978
0.048523,2.0006,8.7279,5.6682,-0.022907,0.018021,-0.0076358
0.039673,1.824,8.6887,5.7467,-0.023518,0.014355,-0.00061087
0.039948,1.824,8.7671,5.6094,-0.022602,0.013439,-0.00061087
0.045746,1.9221,8.7083,5.6094,-0.022602,0.015272,0.0009163
0.041626,2.1378,8.6887,5.6682,-0.021075,0.013134,0.0015272
0.033539,1.9025,8.7868,5.7663,-0.020464,0.011301,0.0009163
0.030151,2.0202,8.7671,5.6682,-0.018937,0.0094684,-0.0018326
0.036133,1.9025,8.6887,5.6682,-0.016493,0.009163,-0.0064141
0.031738,1.9809,8.6887,5.5702,-0.015272,0.0061087,-0.0036652
0.017914,1.8633,8.7868,5.7467,-0.012523,0.0058032,-0.007025
0.028107,2.0006,8.7868,5.6486,-0.014966,0.0045815,-0.0058032
0.023468,1.8437,8.7083,5.7271,-0.018937,0.0036652,-0.0042761
0.0038757,1.9613,8.7083,5.6094,-0.019548,0.00061087,-0.0085521
0.020233,1.9221,8.7279,5.6682,-0.017104,-0.0012217,-0.0094684
0.017456,1.9809,8.7279,5.7271,-0.015577,-0.0015272,-0.0088575
0.0039368,1.8633,8.6887,5.7271,-0.0082467,0.012217,-0.01405
0.0056458,2.0006,8.6887,5.6682,-0.0094684,0.010996,-0.01405
0.028381,1.9613,8.7868,5.7467,-0.010996,0.011301,-0.0027489
0.029785,2.1378,8.826,5.6682,-0.0079412,0.012523,-0.0018326
0.03125,1.9221,8.7671,5.6094,-0.0024435,0.0097738,-0.0036652
0.02536,1.8633,8.6887,5.5702,0.010079,0.0073304,-0.0079412
0.029022,1.824,8.7279,5.7467,-0.012828,0.0073304,-0.011301
0.02298,2.0006,8.7279,5.7075,-0.010385,0.0076358,-0.013744
0.011017,2.0006,8.7083,5.7271,0.039706,0.0051924,-0.021686
0.02063,2.1575,8.6887,5.6682,0.035125,0.0048869,-0.018631
0.02356,1.9221,8.7083,5.7467,0.027184,0.0042761,-0.014661
0.0005188,1.9221,8.7083,5.6682,0.023518,0.0048869,-0.016799
0.0022278,1.8633,8.7868,5.7467,0.020769,0.0051924,-0.019242
0.020142,1.9221,8.6887,5.6094,0.013439,0.0058032,-0.020769
0.018738,1.9221,8.6887,5.6682,0.02474,0.0067195,-0.024435
0.0079651,2.1182,8.6887,5.5702,0.036652,0.0073304,-0.024435
0.020416,1.9809,8.7279,5.7075,-0.016188,0.0079412,0.021991
0.024536,2.0594,8.7279,5.6682,-0.018937,0.0082467,0.023213
0.028351,1.9809,8.6887,5.7467,-0.020159,0.01069,-0.015272
0.032349,2.0006,8.6887,5.6094,-0.019853,0.014661,-0.010996
0.037842,2.0006,8.7868,5.7075,-0.022907,0.018326,-0.0048869
0.026764,1.9613,8.7868,5.6094,-0.027184,0.022907,0.0015272
0.031464,1.8633,8.8456,5.6682,0.00030543,0.027794,0.0094684
0.025513,2.0006,8.7868,5.5702,-0.01069,0.032681,0.017104
0.02771,1.824,8.826,5.7075,-0.020464,0.014355,-0.0061087
0.017883,1.8633,8.7083,5.6486,-0.02474,0.018021,-0.0045815
0.0090332,1.9025,8.6887,5.7467,-0.029322,0.018937,0.009163
0.01358,1.9221,8.6887,5.7271,-0.029322,0.018326,0.009163
0.010498,1.9025,8.7868,5.7075,-0.028711,0.018326,0.0064141
0.004303,1.9221,8.6887,5.5702,-0.026573,0.01741,0.002138
0.010468,1.8633,8.7279,5.6682,-0.024129,0.014355,-0.0030543
0.0056763,1.9221,8.7868,5.5898,-0.018937,0.011606,-0.0061087
0.0021667,1.9613,8.8652,5.6682,-0.0082467,0.010079,-0.0085521
0.027283,2.0594,8.7868,5.6682,-0.016188,0.0051924,-0.0076358
0.045013,2.1575,8.7671,5.7075,-0.026878,0.0054978,-0.013439
0.041046,2.0006,8.7279,5.5702,-0.031154,0.0079412,-0.018937
0.05545,2.1378,8.6299,5.5702,-0.033292,0.010385,-0.018631
0.055634,2.0006,8.8652,5.6486,-0.033292,0.011301,-0.014355
0.052582,2.0202,8.7279,5.6682,-0.033292,0.01069,-0.0097738
0.062134,2.0594,8.826,5.7271,-0.03543,0.012217,-0.0073304
0.05719,2.0202,8.6887,5.5898,-0.031765,0.01405,0.0079412
0.058655,1.9221,8.7083,5.6094,-0.029016,0.01741,0.0085521
0.053955,2.1182,8.7868,5.6682,-0.025351,0.018021,-0.002138
0.054077,2.1378,8.7083,5.5702,-0.021075,0.019242,0.0018326
0.055084,2.0594,8.7083,5.5702,-0.014661,0.018937,0.0042761
0.043823,1.9221,8.7868,5.7467,-0.0079412,0.019548,0.0067195
0.044495,2.0594,8.7868,5.5702,-0.0094684,0.019242,0.010079
0.054291,2.0202,8.826,5.5898,-0.016188,0.018021,0.011301
0.045959,2.079,8.7671,5.5702,-0.020464,0.020464,-0.0045815
0.039307,2.0202,8.8652,5.6682,-0.025656,0.02138,-0.0058032
0.042542,2.0594,8.8652,5.6486,-0.026878,0.019548,0.011606
0.045654,1.8633,8.826,5.5506,-0.02474,0.014966,0.007025
0.037415,1.9809,8.7083,5.5702,-0.025351,0.012523,0.0009163
0.041107,1.9809,8.826,5.6682,-0.023518,0.011912,-0.00061087
0.037628,2.1575,8.6887,5.7467,-0.019548,0.011606,-0.0012217
0.031921,2.1575,8.6299,5.5898,-0.018937,0.010385,-0.0042761
0.015656,2.1575,8.6299,5.6094,-0.022602,0.018937,-0.0058032
0.01767,1.9809,8.7868,5.7271,-0.020159,0.018937,-0.0085521
0.011505,2.0006,8.826,5.6094,-0.015882,0.017104,0.0033598
0.01413,2.1182,8.826,5.5898,-0.0088575,0.014355,0.0027489
0.025696,2.0594,8.6887,5.5898,0.00030543,0.011301,-0.0018326
0.024261,1.7456,8.826,5.6682,0.0085521,0.010996,-0.0030543
0.019958,1.9025,8.6887,5.7271,0.010996,0.011606,-0.0036652
0.0049133,1.8633,8.826,5.7467,0.0030543,0.011606,-0.0058032
0.019562,1.9221,8.7671,5.5702,-0.026267,0.016188,0.00061087
0.027222,1.9613,8.6887,5.6486,-0.020769,0.013744,0.0033598
0.049194,2.1378,8.7279,5.5898,-0.010996,0.014661,-0.01405
0.042877,1.824,8.826,5.7467,-0.0094684,0.015272,-0.01405
0.059723,1.9221,8.7279,5.6682,-0.013744,0.015882,-0.010079
0.072906,1.9025,8.7083,5.6682,-0.018326,0.01741,-0.0088575
0.063599,2.1182,8.6887,5.5898,-0.019242,0.016188,-0.0033598
0.065979,1.9025,8.7279,5.6682,-0.023518,0.01405,0.00061087
0.06781,1.9221,8.7083,5.5506,-0.024129,0.015272,0.014355
0.058441,1.824,8.7868,5.7075,-0.02474,0.017715,0.016493
0.050812,1.9221,8.7868,5.6094,-0.024435,0.018631,0.0058032
0.051758,2.0006,8.7868,5.6682,-0.018937,0.018631,0.0082467
0.057953,2.1182,8.7083,5.6682,-0.01405,0.018326,0.0079412
0.056519,1.9809,8.6887,5.6682,-0.010079,0.016493,0.0073304
0.058289,1.9809,8.7083,5.5702,-0.023213,0.017104,0.011301
0.065979,1.9221,8.7868,5.6486,-0.025656,0.018631,0.013134
0.067566,2.1182,8.7671,5.5702,-0.027489,0.010385,-0.0048869
0.044739,1.9809,8.7868,5.5898,-0.022907,0.014355,-0.0061087
0.054016,2.0006,8.7868,5.5702,-0.018021,0.012523,-0.0009163
0.060425,1.9025,8.7279,5.6682,-0.016188,0.010079,-0.0012217
0.052063,1.9221,8.826,5.6094,-0.014661,0.010996,-0.0018326
0.060699,1.824,8.8456,5.7467,-0.01405,0.012217,-0.002138
0.060181,2.0006,8.7868,5.5898,-0.014355,0.014355,-0.0033598
0.05954,1.9809,8.7083,5.6094,-0.018631,0.014966,-0.0045815
0.058655,1.9221,8.7279,5.5506,-0.026878,0.014355,-0.0027489
0.059021,1.8633,8.826,5.6682,-0.025962,0.012828,-0.0045815
0.056213,2.0006,8.7083,5.5898,-0.01741,0.015882,-0.0064141
0.051941,1.9221,8.7671,5.6486,-0.013439,0.018631,-0.0058032
0.041351,2.1378,8.6887,5.5898,-0.0097738,0.019853,-0.0094684
0.048187,1.9221,8.7671,5.6682,-0.012217,0.020464,-0.010385
0.048157,1.9221,8.7868,5.6094,-0.023518,0.018937,-0.0073304
0.040009,1.8633,8.7868,5.6486,-0.023824,0.018937,-0.0064141
0.043976,2.079,8.6887,5.6094,-0.029322,0.015272,0.0082467
0.036987,1.9221,8.6887,5.7075,-0.023213,0.015882,0.0088575
0.056366,2.1182,8.7868,5.7467,-0.018937,0.016493,0.011301
0.055756,2.079,8.7868,5.6486,-0.018021,0.016799,0.0094684
0.054962,1.9613,8.7868,5.7075,-0.016188,0.018631,0.011912
0.054291,1.9809,8.7868,5.5702,-0.017104,0.018326,0.010385
0.061249,1.9221,8.7279,5.6094,-0.015882,0.018326,0.0073304
0.068268,2.1182,8.6691,5.6682,-0.016493,0.019548,0.0088575
0.063385,1.9221,8.7868,5.7271,-0.0061087,0.0085521,-0.01741
0.043396,2.0202,8.7868,5.6094,-0.00061087,0.0048869,-0.013439
0.056915,1.9613,8.7083,5.6094,-0.0082467,0.0045815,-0.014966
0.060883,2.1575,8.7279,5.6094,-0.019242,0.0027489,-0.014355
0.055084,1.9221,8.826,5.7075,-0.027794,-0.0015272,-0.017104
0.058807,1.9221,8.7868,5.5702,-0.032376,-0.0036652,-0.02138
0.06958,1.9613,8.7279,5.5898,-0.031154,-0.0018326,-0.025351
0.069122,1.9221,8.6887,5.5702,-0.025962,0.0009163,-0.023518
0.053436,1.824,8.7279,5.7467,-0.021075,0.0033598,0.0009163
0.05838,2.0594,8.7279,5.7271,-0.019242,0.0033598,0.0051924
0.069916,1.9613,8.7083,5.6682,-0.018326,0.0054978,-0.012217
0.055969,2.1575,8.6102,5.6094,-0.020769,0.009163,-0.01069
0.050415,1.9025,8.7868,5.6094,-0.022907,0.012523,-0.0082467
0.047363,1.9613,8.7868,5.5702,-0.019853,0.011912,-0.0064141
0.048767,1.824,8.8456,5.7271,-0.01405,0.011912,-0.0054978
0.036774,1.9221,8.7083,5.5702,-0.009163,0.013439,-0.0030543
0.042084,1.824,8.7279,5.7467,-0.0061087,0.015882,0.0085521
0.059875,2.1378,8.6887,5.6486,-0.0088575,0.016188,0.011606
0.029846,1.9809,8.6887,5.7075,-0.016799,0.01741,0.0088575
0.022125,2.1378,8.6887,5.6682,-0.023824,0.018021,0.009163
0.021454,1.824,8.7868,5.7467,-0.030543,0.017715,0.0079412
0.030396,2.0006,8.7279,5.6682,-0.034819,0.017715,0.0058032
0.018524,1.9025,8.7671,5.6486,-0.034514,0.016799,0.0039706
0.011902,1.9025,8.7279,5.5702,-0.032681,0.015577,0.0064141
0.014771,1.8633,8.7279,5.7271,-0.011301,0.02474,-0.0039706
0.023651,2.0202,8.7279,5.6682,0.0024435,0.026878,-0.0027489
0.039398,2.1378,8.7279,5.6682,0.0009163,0.026267,0.0024435
0.04129,2.1182,8.7671,5.6682,-0.002138,0.02474,0.0015272
0.038025,2.0006,8.8456,5.6094,-0.0067195,0.024129,0.0009163
0.036621,1.9613,8.826,5.4917,-0.012217,0.022297,-0.0036652
0.046997,1.7652,8.826,5.7467,-0.015882,0.020769,-0.0042761
0.052032,2.1378,8.7671,5.7075,-0.014355,0.020769,-0.0042761
0.042328,1.9613,8.6887,5.6682,-0.023824,0.015882,0.016188
0.047119,2.0202,8.7279,5.6682,-0.013744,0.017715,0.015882
0.043701,2.0006,8.7868,5.5702,-0.0045815,0.017715,-0.002138
0.047241,2.0594,8.7868,5.5113,-0.0042761,0.018021,-0.0009163
0.040894,2.0006,8.7868,5.6094,-0.009163,0.019853,0.0024435
0.039246,2.0006,8.7671,5.5898,-0.019853,0.020769,0.0085521
0.034454,1.9613,8.7279,5.6682,-0.036652,0.021991,0.01405
0.038788,2.1575,8.7279,5.7467,-0.032376,0.022602,0.01741
0.036041,1.9613,8.6691,5.5898,-0.037874,0.022907,0.011606
0.023834,2.0006,8.7279,5.5702,-0.031765,0.022297,0.013744
0.029236,2.0594,8.7868,5.5702,-0.022297,0.023213,0.017104
0.030426,2.1182,8.8456,5.6682,-0.014355,0.02138,0.015272
0.03006,2.079,8.6887,5.6094,-0.0094684,0.018021,0.014966
0.02774,2.1378,8.7868,5.6094,-0.0067195,0.016188,0.015577
0.021088,2.1378,8.6691,5.5898,-0.03207,0.016188,0.013439
0.022308,2.1575,8.7279,5.6682,-0.03879,0.016493,0.012828
0.012604,2.0594,8.7868,5.6682,-0.022907,0.017715,0.0073304
0.021088,2.1575,8.6887,5.6682,-0.033292,0.016799,0.0067195
0.017609,2.0006,8.6887,5.6682,-0.036041,0.018021,0.013134
0.018585,2.1378,8.6102,5.6682,-0.029932,0.021075,0.0097738
0.014618,1.9613,8.7083,5.6682,-0.016799,0.021991,0.010385
0.0066833,2.1378,8.826,5.7075,-0.0039706,0.021991,0.0097738
0.018341,2.1182,8.7083,5.5702,-0.0085521,0.022907,0.0088575
0.021271,2.0202,8.7279,5.5702,-0.011912,0.024129,0.0076358
0.019104,1.9613,8.7868,5.5702,-0.020464,0.014966,0.0033598
0.028687,1.9025,8.7279,5.7271,-0.014661,0.011606,0.0045815
0.049347,1.824,8.7671,5.7075,-0.017715,0.012828,-0.0024435
0.049683,1.9221,8.7083,5.5702,-0.019853,0.01405,-0.0009163
0.062195,2.1378,8.7868,5.5898,-0.021075,0.014355,0.0009163
0.049133,1.9221,8.7868,5.7075,-0.026573,0.016188,0.0024435
0.046509,1.9221,8.7083,5.5702,-0.028711,0.015882,0.0030543
0.066803,1.8633,8.7868,5.7075,-0.0281,0.015882,0.0024435
0.053528,2.0006,8.7868,5.6094,-0.027184,0.016188,0.012828
0.046661,2.1575,8.826,5.6486,-0.027184,0.01741,0.0097738
0.047943,1.824,8.7868,5.6682,-0.024129,0.015577,0.0018326
0.055603,1.9221,8.7868,5.6682,-0.019548,0.013439,0.0024435
0.048737,2.1575,8.6691,5.6094,-0.017715,0.012828,0.0024435
0.039917,1.9221,8.7083,5.6682,-0.019242,0.013744,0.002138
0.046082,1.9221,8.7279,5.5898,-0.019853,0.014966,0.0064141
0.047791,1.8437,8.826,5.7271,-0.023518,0.013744,0.011606
0.025177,1.9613,8.7083,5.5702,-0.031765,0.012828,-0.0009163
0.042145,1.9221,8.7868,5.7075,-0.037263,0.012828,-0.0048869
0.043213,2.1378,8.6887,5.5702,-0.035125,0.011912,0.0058032
0.04425,1.9221,8.7279,5.6094,-0.026573,0.011301,0.0033598
0.037598,2.0594,8.6887,5.5702,-0.014966,0.011301,0.0012217
0.031158,2.0006,8.8456,5.6682,-0.009163,0.010385,0.0024435
0.036041,1.9221,8.8064,5.5898,-0.0067195,0.009163,0.0018326
0.028381,1.9221,8.7868,5.7271,-0.0088575,0.0088575,0.0009163
0.017883,1.9613,8.6887,5.6094,-0.01741,0.0076358,-0.0012217
0.013214,1.8633,8.7868,5.7467,-0.028405,0.010079,0.0015272
0.010559,1.9613,8.7868,5.5506,-0.038485,0.0097738,-0.0085521
0.010437,1.9221,8.826,5.5898,-0.043371,0.0085521,-0.0097738
-0.0021362,2.0006,8.7868,5.6094,-0.043066,0.0088575,-0.0082467
0.0033264,1.9809,8.6887,5.7075,-0.041844,0.010079,-0.0027489
-0.0042725,2.0006,8.6691,5.6682,-0.040012,0.011301,-0.0024435
0.00024414,1.9025,8.6887,5.7467,-0.037874,0.010996,-0.0030543
-0.0086365,1.9809,8.7083,5.5702,-0.015272,0.012523,-0.010079
0.00097656,1.824,8.7868,5.7467,-0.018937,0.01405,-0.010079
0.01889,2.0006,8.7868,5.7271,-0.022297,0.0097738,-0.0061087
0.012115,1.9221,8.7083,5.7075,-0.026573,0.0067195,-0.007025
0.016449,2.079,8.6887,5.5702,-0.0281,0.0094684,-0.007025
0.020203,1.9613,8.7279,5.6682,-0.026267,0.0088575,-0.0058032
0.028137,2.1575,8.6887,5.6094,-0.011301,0.0079412,-0.0061087
0.022705,1.9613,8.7868,5.7075,-0.012217,0.0085521,-0.0097738
0.024445,1.9613,8.7279,5.5898,-0.0088575,0.0073304,-0.0048869
0.019836,1.9221,8.6887,5.6682,-0.0085521,0.007025,-0.0054978
0.024628,2.1182,8.6887,5.6094,-0.011606,0.0082467,-0.0064141
0.023254,1.9613,8.7868,5.7467,-0.015882,0.010996,-0.0036652
0.026398,2.1575,8.6887,5.7271,-0.022907,0.013439,-0.0030543
0.030701,1.9221,8.7868,5.7467,-0.025962,0.015272,-0.002138
0.028381,2.0594,8.7868,5.6682,-0.019548,0.016188,-0.002138
0.020874,1.9809,8.7671,5.6486,-0.013744,0.016188,-0.0033598
0.022461,2.1575,8.7083,5.5898,-0.017104,0.015882,-0.00030543
0.020782,1.9613,8.7671,5.6682,-0.014355,0.01405,-0.0027489
0.026581,2.1378,8.7083,5.6682,-0.011912,0.012828,-0.0058032
0.02301,1.8633,8.7868,5.7663,-0.011606,0.013134,-0.0051924
0.022491,1.9613,8.6887,5.5898,-0.014661,0.014966,-0.0027489
0.0177,1.9221,8.6887,5.7467,-0.020159,0.015272,0
0.015198,1.9613,8.7083,5.5898,-0.026267,0.015882,0
0.0038452,1.9221,8.7083,5.7271,-0.020769,0.015272,0.00030543
0.0096741,1.9809,8.7083,5.6682,-0.026878,0.017715,-0.0051924
0.010834,1.9221,8.7083,5.6094,-0.029932,0.018326,-0.0061087
0.0075378,2.0006,8.7279,5.5702,-0.029016,0.020464,0.0033598
-0.0011902,1.8437,8.6887,5.6682,-0.021686,0.018631,0.002138
0.0022583,2.0006,8.7868,5.7075,-0.015272,0.017104,0
0.0045471,1.9613,8.7279,5.7075,-0.012828,0.016493,-0.00061087
0.0036316,2.1575,8.6887,5.6486,-0.012217,0.016493,-0.002138
0.00067139,1.9613,8.6887,5.6094,-0.011301,0.014355,-0.0039706
0.0086365,2.1182,8.7671,5.7075,-0.019548,0.013439,-0.0015272
0.02121,2.0006,8.6887,5.6682,-0.017715,0.014661,-0.0024435
0.033173,2.1182,8.6887,5.6682,-0.013134,0.014966,0.0027489
0.044647,2.1575,8.6691,5.6094,-0.010079,0.013744,0.0027489
0.051758,1.9613,8.826,5.7075,-0.013439,0.01405,0.0048869
0.041779,2.1182,8.6887,5.6682,-0.019548,0.01405,0.0030543
0.041534,1.9613,8.6887,5.6682,-0.026267,0.014661,0.0015272
0.030243,1.9809,8.7868,5.6682,-0.029016,0.014355,0.00030543
0.036774,1.9809,8.7868,5.6682,-0.027184,0.012523,-0.0009163
0.045776,2.1182,8.8456,5.6682,-0.019548,0.0085521,-0.0009163
0.042542,1.8437,8.7868,5.6094,-0.016493,0.010996,0.00061087
0.024963,1.9221,8.7868,5.6094,-0.015882,0.014661,0.0033598
0.032196,1.824,8.7868,5.8055,-0.015577,0.016799,0.0039706
0.03125,1.9221,8.6887,5.6094,-0.018631,0.01741,0.0027489
0.022675,2.0006,8.6887,5.6486,-0.02138,0.017715,0.0012217
0.025024,2.1182,8.7083,5.5898,-0.021991,0.018326,0
0.017395,1.9221,8.7868,5.6682,-0.022907,0.012523,-0.0027489
0.023102,1.9613,8.7279,5.6682,-0.026878,0.010996,0.0015272
0.026794,1.9221,8.6887,5.6682,-0.031154,0.010996,-0.0045815
0.02066,2.1575,8.6691,5.6486,-0.032681,0.012523,-0.0039706
0.017944,1.9613,8.6887,5.6682,-0.032681,0.011301,-0.007025
0.032867,2.1575,8.7279,5.5702,-0.02474,0.0094684,-0.009163
0.026154,2.0006,8.8456,5.6094,-0.015272,0.0085521,-0.0073304
0.0039673,1.9221,8.7083,5.5898,-0.0054978,0.009163,-0.0039706
0.0054016,1.9221,8.7083,5.6682,-0.0045815,0.0094684,0.0018326
0.016998,1.9809,8.6887,5.6094,-0.013134,0.012523,0.0039706
0.012085,1.9221,8.826,5.8055,-0.024435,0.013134,0.0048869
0.011902,2.0594,8.7083,5.6682,-0.030543,0.010996,0.0042761
0.006897,1.824,8.7868,5.7075,-0.031154,0.011606,0.002138
-0.00085449,1.9613,8.7083,5.5702,-0.029016,0.014966,0.0009163
-0.0021057,1.824,8.7868,5.7467,-0.025351,0.014966,-0.00030543
-0.0033264,1.9221,8.826,5.5898,-0.022602,0.014661,-0.00061087
0.0015564,1.9221,8.7868,5.7271,-0.019853,0.012828,0.002138
0.017853,1.9613,8.6887,5.5702,-0.022907,0.012828,0.0030543
0.019226,1.8633,8.7279,5.7467,-0.022297,0.012523,-0.0058032
0.019073,1.9613,8.7083,5.6094,-0.02138,0.013744,-0.0058032
0.031311,1.824,8.826,5.7467,-0.019548,0.01741,-0.0048869
0.044434,1.9613,8.7279,5.6682,-0.016799,0.018326,-0.0036652
0.039734,1.9809,8.6887,5.7467,-0.018937,0.017104,-0.0012217
0.027252,2.1182,8.6691,5.6094,-0.018937,0.016799,0.0009163
0.032135,1.8633,8.7868,5.7271,-0.014661,0.018021,0.0030543
0.023773,2.0202,8.7868,5.6682,-0.017104,0.018631,0.0027489
0.023529,1.8044,8.7868,5.7271,-0.016799,0.018937,0.0067195
0.02951,1.9221,8.7279,5.5898,-0.016799,0.020769,0.010385
0.025757,2.0594,8.7868,5.6682,-0.01741,0.021075,0.012523
0.038544,2.0006,8.6887,5.7075,-0.015882,0.021686,0.011301
0.018158,1.9221,8.7279,5.5702,-0.014966,0.021686,0.0073304
0.026825,1.9613,8.826,5.5702,-0.013134,0.019548,0.0048869
0.034607,1.8044,8.826,5.7663,-0.017715,0.015577,0.0009163
0.031738,2.1378,8.7083,5.6682,-0.01741,0.012217,0.0015272
0.029694,1.9613,8.6887,5.6094,-0.022297,0.015882,0
0.02829,2.0202,8.7868,5.7075,-0.024129,0.020464,0.0015272
0.032837,2.1182,8.7279,5.5702,-0.018326,0.019242,0.0045815
0.035767,2.0594,8.7279,5.6682,-0.0097738,0.018631,0.0061087
0.024902,1.9221,8.7083,5.5702,-0.016188,0.018326,0.0030543
0.016144,2.1182,8.7868,5.6682,-0.017715,0.017104,0.00061087
0.01004,2.0594,8.7279,5.6682,0.0039706,0.018631,-0.0061087
0.0062866,2.1575,8.6299,5.6486,-0.0036652,0.022297,-0.0054978
0.0048828,2.0006,8.7868,5.6682,-0.0097738,0.021075,0.0042761
-0.0030518,2.0202,8.6887,5.6094,-0.015577,0.017715,0.0054978
0.0055542,2.079,8.7083,5.5702,-0.019242,0.016493,0.0012217
0.0083008,2.1378,8.826,5.6682,-0.019242,0.016188,-0.0039706
0.0112,2.1182,8.6887,5.5702,0.002138,0.015577,-0.0076358
0.0042114,2.1378,8.7868,5.6682,0.0082467,0.013744,-0.0079412
0.019958,2.0202,8.7671,5.5898,-0.011912,0.011912,0.0079412
0.029785,1.8437,8.7868,5.7663,-0.016799,0.0088575,0.012523
0.042633,1.9221,8.6887,5.7075,-0.027794,0.01069,0.0018326
0.046631,2.1378,8.7671,5.6094,-0.037263,0.011606,0.0024435
0.062958,1.9221,8.7868,5.6682,-0.041539,0.011606,0.0042761
0.074249,1.824,8.7868,5.8055,-0.043677,0.011912,0.0058032
0.061523,1.9613,8.7083,5.5898,-0.041233,0.012523,0.0045815
0.058136,1.8437,8.7279,5.7467,-0.033292,0.013134,0.0036652
0.066467,1.9221,8.6887,5.6486,-0.015577,0.013134,-0.0030543
0.055206,1.9613,8.8652,5.7075,-0.014966,0.0094684,0.00030543
0.044159,2.0006,8.8456,5.5898,-0.014661,0.0085521,0
0.053619,1.8633,8.7868,5.6682,-0.016493,0.0079412,-0.0018326
0.064545,1.9613,8.7083,5.5702,-0.020464,0.0088575,-0.0033598
0.057129,1.8633,8.7868,5.5898,-0.022297,0.0094684,-0.0039706
0.04071,2.079,8.7083,5.6094,-0.02474,0.0082467,-0.0048869
0.054077,1.9221,8.7868,5.6682,-0.023213,0.009163,-0.0054978
0.063538,1.9221,8.7279,5.5898,-0.020159,0.010385,0.0097738
0.056061,1.9221,8.7279,5.7075,-0.014966,0.012523,0.010996
0.052979,2.1182,8.7868,5.7075,-0.014355,0.010079,0.0015272
0.050751,1.9221,8.7083,5.6486,-0.012523,0.0082467,0.0024435
0.047485,2.1575,8.7083,5.5702,-0.011606,0.0085521,0.0042761
0.047119,1.9221,8.8456,5.7467,-0.012828,0.009163,0.0036652
0.034882,2.0006,8.7868,5.6682,-0.013134,0.01069,0.0058032
0.012238,1.9613,8.7868,5.7075,-0.016188,0.012523,0.0088575
0.031769,2.0006,8.7671,5.6094,-0.022907,0.014355,0.0027489
0.022308,2.0006,8.7083,5.5898,-0.0281,0.017715,0.0039706
0.0097046,1.9221,8.7868,5.5702,-0.030543,0.017104,0.0097738
0.011932,1.8633,8.8652,5.7467,-0.032681,0.016188,0.0094684
0.022614,1.9613,8.7868,5.5898,-0.030238,0.014966,0.0045815
0.013824,1.8633,8.6887,5.7467,-0.022297,0.015577,0.00061087
0.00039673,1.9221,8.6887,5.6682,-0.015272,0.01405,0
-0.0040283,1.824,8.7083,5.7467,-0.012217,0.013439,0
0.0098877,1.9613,8.7083,5.6094,-0.032376,0.01405,0.0039706
0.0054016,1.9613,8.7868,5.7075,-0.032376,0.016493,0.007025
0.0059509,2.1575,8.6887,5.6682,-0.031154,0.016493,0.0039706
0.014008,1.9809,8.7671,5.5702,-0.024129,0.016188,0.0051924
0.020447,2.1378,8.6887,5.5702,-0.018631,0.014355,0.0051924
0.013916,2.0594,8.826,5.7271,-0.015882,0.012828,0.0030543
0.0078735,2.1378,8.7868,5.6094,-0.013439,0.012217,0.0036652
0.0058594,2.0006,8.7083,5.5702,-0.012217,0.01405,0.0027489
0.015594,1.9809,8.6887,5.5506,-0.025045,0.013744,-0.0048869
0.017242,1.824,8.826,5.7467,-0.027489,0.010079,-0.0076358
0.0072937,2.1182,8.7279,5.6682,-0.025045,0.011606,0.0061087
0.004303,2.1575,8.6887,5.6682,-0.019853,0.015882,0.0048869
0.0084839,2.1575,8.7671,5.6682,-0.01741,0.017104,0.0027489
0.0036011,2.1378,8.6102,5.6682,-0.018326,0.01741,0.0033598
-0.0026855,2.1378,8.7868,5.6682,-0.015577,0.018021,0.0027489
-0.0055542,2.1182,8.6887,5.5898,-0.019853,0.017715,-0.0018326
-0.0021057,2.1378,8.826,5.6486,-0.010079,0.015882,-0.0027489
-0.0017395,2.0594,8.6887,5.6486,-0.0076358,0.016493,-0.0036652
-0.0112,2.1378,8.7868,5.7467,-0.0073304,0.016799,-0.0076358
0.0053101,2.1575,8.6691,5.7075,-0.010385,0.016188,-0.0051924
0.0058289,1.9613,8.7671,5.6682,-0.015882,0.017715,-0.0024435
0.0039978,1.8437,8.7083,5.7271,-0.020464,0.017715,0
-9.1553e-05,1.9809,8.7279,5.6682,-0.017104,0.018937,0.0009163
-0.0062561,2.1182,8.6691,5.6682,-0.012828,0.018631,-0.002138
-0.0075378,1.824,8.7868,5.7467,-0.020769,0.018021,0.002138
0.00036621,2.1182,8.7868,5.6682,-0.016493,0.015882,-0.00030543
-0.016815,2.1378,8.6299,5.5898,-0.013744,0.015882,-0.0048869
-0.017944,2.0006,8.7868,5.7075,-0.013134,0.016493,-0.002138
-0.0085144,1.9221,8.7868,5.6682,-0.014661,0.016188,0.002138
-0.013458,1.9221,8.7868,5.7467,-0.015882,0.015577,0.0030543
-0.0054932,2.1575,8.6691,5.6486,-0.022907,0.01405,0.0048869
-0.017548,2.0594,8.7868,5.7075,-0.023824,0.01405,0.0054978
-0.010742,2.0202,8.7279,5.7271,-0.020159,0.015272,-0.0024435
0.0019836,1.9221,8.7868,5.7075,-0.020464,0.016799,-0.0042761
0.010498,1.8633,8.7671,5.7467,-0.01741,0.01741,0.002138
0.018921,1.8437,8.7279,5.7271,-0.019548,0.018326,0.0030543
0.033417,2.1575,8.7671,5.6682,-0.024435,0.018326,0.0030543
0.035522,1.8044,8.7671,5.7271,-0.025656,0.017104,0.0027489
0.024017,2.1378,8.7868,5.7075,-0.021075,0.016188,-0.0009163
0.022095,2.1575,8.6887,5.6486,-0.01069,0.014966,-0.0015272
0.041229,1.9221,8.7083,5.7467,0.0024435,0.012828,-0.01069
0.040436,2.0202,8.6887,5.6682,0.0079412,0.0061087,-0.0097738
0.032715,1.8633,8.7279,5.7271,0.0042761,0.0073304,-0.0058032
0.028351,2.1378,8.7083,5.6486,0.00030543,0.0094684,-0.0094684
0.029572,2.0006,8.8456,5.7075,-0.0058032,0.007025,-0.012217
0.03476,2.0594,8.7868,5.6682,-0.015272,0.0073304,-0.013439
0.030548,2.0006,8.7671,5.6486,-0.024435,0.0079412,-0.01405
0.019653,2.0594,8.6887,5.6486,-0.030543,0.0073304,-0.011912
0.038177,1.8633,8.7868,5.7467,-0.030849,0.0076358,-0.0012217
0.039886,2.1575,8.6887,5.6486,-0.027184,0.0088575,-0.002138
0.032928,1.8633,8.6887,5.7467,-0.026267,0.010385,-0.0079412
0.038971,2.0594,8.7083,5.7075,-0.026267,0.010385,-0.0054978
0.030853,2.0006,8.8456,5.5898,-0.022602,0.012828,-0.0082467
0.026917,2.1182,8.7868,5.5702,-0.014355,0.011912,-0.01069
0.030762,2.0006,8.8652,5.6682,-0.0064141,0.0094684,-0.0079412
0.020569,2.0006,8.6887,5.6682,-0.0018326,0.0097738,-0.0042761
0.015076,1.8633,8.7671,5.8055,-0.030543,0.0097738,-0.0024435
0.019653,2.1575,8.6887,5.6682,-0.0039706,0.0067195,-0.0061087
0.014221,2.0594,8.7083,5.6682,-0.010996,0.0082467,-0.0015272
-0.0020752,2.0006,8.7279,5.5898,-0.016493,0.011301,0
0.0053711,1.9809,8.826,5.6094,-0.018326,0.012217,0.0012217
0.0030823,2.0006,8.826,5.6094,-0.022297,0.012828,0.0012217
0.012848,2.0006,8.8652,5.7075,-0.028405,0.014355,0.002138
-0.00054932,2.1378,8.6887,5.6094,-0.032987,0.012523,0.00030543
0.010315,1.8633,8.6887,5.6682,-0.016188,0.0073304,-0.0073304
0.019928,2.1575,8.6887,5.5702,-0.021686,0.0076358,-0.0067195
0.035309,2.0202,8.8456,5.7075,-0.023213,0.01069,-0.0064141
0.051147,2.0006,8.8456,5.6486,-0.021991,0.013134,-0.0061087
0.051483,1.9221,8.7279,5.7467,-0.022297,0.01405,-0.0079412
0.060303,2.0006,8.7279,5.6486,-0.022297,0.015882,-0.0088575
0.05188,2.0006,8.7868,5.7075,-0.011606,0.016188,-0.0088575
0.049377,2.0594,8.7868,5.7075,-0.011301,0.015577,-0.0082467
0.054199,2.0594,8.826,5.7075,-0.015882,0.016799,-0.00030543
0.051727,2.0202,8.7868,5.5702,-0.016188,0.020159,-0.0009163
0.052216,1.824,8.7279,5.7271,-0.01741,0.017715,-0.0039706
0.046936,1.9809,8.7083,5.6094,-0.020159,0.018631,-0.0015272
0.043365,1.8633,8.7868,5.7467,-0.023824,0.019853,-0.0009163
0.050598,2.0006,8.7868,5.6094,-0.027489,0.019853,0.0012217
0.056641,1.8633,8.7083,5.7075,-0.021686,0.019548,0.0018326
0.049774,1.9613,8.7671,5.5898,-0.018937,0.020769,0.0009163
0.053223,2.0006,8.8456,5.6682,-0.015882,0.019853,0.0048869
0.039948,2.0006,8.7868,5.6094,-0.009163,0.01741,0.0051924
0.04718,2.0594,8.8456,5.6682,-0.009163,0.017715,0
0.048798,2.0006,8.7868,5.6682,-0.012523,0.018326,0.0012217
0.053223,1.8437,8.826,5.7075,-0.018021,0.017104,0.0027489
0.042725,1.8633,8.7671,5.6094,-0.025045,0.016188,0.0045815
0.040222,1.8633,8.7671,5.6682,-0.029016,0.016799,0.0064141
0.026062,1.9809,8.7083,5.5702,-0.02474,0.018937,0.0061087
0.014038,1.9809,8.7671,5.6094,-0.024129,0.010079,-0.0076358
0.00082397,2.0006,8.7868,5.7075,-0.022907,0.0094684,-0.0082467
-0.015106,2.0006,8.7671,5.6094,-0.017715,0.0085521,-0.0061087
-0.016418,2.0006,8.7279,5.6094,-0.011606,0.0097738,-0.0067195
-0.011017,2.0006,8.7868,5.6486,-0.0088575,0.0094684,-0.0039706
-0.024902,2.0006,8.826,5.6486,-0.007025,0.0088575,-0.0045815
-0.027344,1.9809,8.7868,5.6486,-0.007025,0.0076358,-0.0054978
-0.028687,1.8633,8.7279,5.7271,-0.010385,0.0067195,-0.0067195
-0.030609,1.9809,8.7083,5.6486,-0.021686,0.020464,0.0064141
-0.024628,1.9809,8.7671,5.7467,-0.018021,0.018631,0.0039706
0.0064392,2.1182,8.6887,5.7271,-0.022602,0.018326,0.012828
-0.00082397,2.1378,8.6691,5.5898,-0.0281,0.020159,0.0082467
-0.013428,2.0202,8.8652,5.6682,-0.026573,0.021686,0.0027489
-0.0053711,1.9221,8.7868,5.7467,-0.022297,0.021075,0.0058032
0.00036621,2.1182,8.8456,5.6094,-0.018631,0.022297,0.0061087
0.00054932,2.0202,8.7279,5.5702,-0.017104,0.02138,0.0067195
0.00057983,2.1182,8.6887,5.5898,-0.01405,0.019548,-0.00061087
-0.00015259,2.0202,8.7868,5.7075,-0.014355,0.020464,-0.0012217
0.0071411,2.0202,8.7671,5.7075,-0.011912,0.019242,0.002138
0.0048523,2.0006,8.7671,5.6094,-0.011606,0.016188,0.0024435
0.0096741,2.079,8.7083,5.6094,-0.016493,0.013439,0.0018326
-0.0040283,1.824,8.7868,5.7075,-0.021991,0.01405,0.0009163
-0.011932,2.079,8.6887,5.5702,-0.023518,0.014355,-0.00030543
0.00054932,2.0594,8.826,5.6682,-0.026573,0.013744,-0.00030543
0.007782,1.9221,8.7671,5.5898,-0.014966,0.016188,0.00061087
0.0010681,2.0006,8.8456,5.6094,-0.01741,0.016799,0.0012217
-0.0019226,2.0006,8.7279,5.6682,-0.020464,0.015577,0.0024435
0.0029297,1.824,8.7868,5.6682,-0.023213,0.014661,0.0036652
0.0059509,1.8437,8.7279,5.5702,-0.02138,0.015882,0.0042761
0.0081787,1.9221,8.8456,5.6094,-0.018631,0.015577,0.0033598
-0.0036621,2.1182,8.7671,5.6094,-0.019242,0.016799,0.002138
-0.0066528,2.0594,8.6887,5.6682,-0.018631,0.016799,0.00061087
-0.0075684,2.0006,8.8456,5.6682,-0.017104,0.017715,-0.002138
-0.013977,2.0006,8.8652,5.6094,-0.018326,0.019548,0.0067195
-0.019989,2.1182,8.7868,5.6682,-0.016188,0.018631,-0.0009163
-0.019409,2.0202,8.7868,5.5702,-0.016799,0.016188,-0.0045815
-0.015289,2.079,8.7868,5.6094,-0.022297,0.014966,-0.0030543
-0.02179,2.079,8.7279,5.6094,-0.018937,0.018937,0.0030543
-0.035706,2.0006,8.7279,5.5898,-0.017715,0.016493,0.011301
-0.020477,2.1182,8.7083,5.6682,-0.021075,0.018021,0.002138
-0.013916,2.1378,8.6887,5.5898,-0.022602,0.016188,-0.0018326
-0.0094299,1.9613,8.7671,5.5702,-0.029932,0.016188,-0.0027489
-0.0159,2.0006,8.7671,5.5702,-0.03146,0.013439,0.0042761
-0.0057068,1.9221,8.7279,5.5702,-0.029627,0.010385,-0.0018326
0.0057678,1.9613,8.7671,5.5702,-0.034514,0.0082467,-0.0058032
0.006897,2.1378,8.6887,5.5898,-0.03543,0.0076358,-0.0058032
0.0061035,2.0594,8.7279,5.6486,-0.0058032,0.007025,-0.0042761
-0.0010071,2.0594,8.6691,5.5702,-0.011301,0.0067195,-0.00061087
-0.0081177,2.0594,8.6887,5.6486,-0.025962,0.015577,0.0033598
-0.011719,2.1182,8.7279,5.6682,-0.022602,0.012828,0.0045815
-0.015015,2.0202,8.7279,5.5898,-0.023824,0.015272,0.0012217
-0.024567,2.0202,8.7083,5.5702,-0.026267,0.01405,0.0039706
-0.022064,2.0594,8.7279,5.6094,-0.025351,0.014355,0.0051924
-0.016052,2.0202,8.7671,5.6094,-0.026573,0.014355,0.0058032
-0.025452,2.1575,8.7868,5.6682,-0.027489,0.014661,0.0054978
-0.023285,2.0202,8.6887,5.6486,-0.0281,0.015882,0.0030543
-0.024506,2.1378,8.7083,5.7075,-0.019853,0.016493,0.0061087
-0.017426,2.0202,8.7279,5.5702,-0.015882,0.016188,-0.0012217
-0.0089111,2.0006,8.7868,5.6094,-0.015272,0.013134,0.0042761
-0.015289,1.9809,8.8456,5.6682,-0.020159,0.012217,0.0054978
-0.022186,2.0594,8.6887,5.6682,-0.027794,0.012217,0.0061087
-0.030762,2.0594,8.6887,5.6682,-0.033903,0.010385,0.0051924
-0.02887,1.824,8.6887,5.7075,-0.0281,0.010079,0.0039706
-0.034363,2.0594,8.7671,5.7075,-0.02474,0.011912,0.0054978
-0.047058,2.079,8.826,5.7467,-0.040317,0.011606,0.0064141
-0.044983,2.0594,8.7868,5.5702,-0.039401,0.011606,0.0061087
-0.053253,1.8633,8.7279,5.7075,-0.033292,0.012828,-0.0015272
-0.045959,2.0006,8.7868,5.5898,-0.023824,0.012523,0.0051924
-0.043671,2.0594,8.7279,5.6486,-0.010996,0.013744,0.0073304
-0.051117,2.1378,8.6102,5.7075,-0.0039706,0.012828,0.0036652
-0.042725,2.0594,8.7868,5.7075,-0.036652,0.011606,0.0018326
-0.042511,2.0594,8.7868,5.6682,-0.038485,0.012828,0.0039706
-0.045288,2.1575,8.6102,5.6682,-0.014661,0.015272,0.0033598
-0.043915,1.9221,8.8456,5.7075,-0.02138,0.017715,0.0061087
-0.030548,2.079,8.7868,5.7075,-0.02474,0.016799,0.0009163
-0.02243,1.9613,8.7671,5.6094,-0.02474,0.014966,0.00030543
-0.01123,2.0006,8.7868,5.6094,-0.02474,0.014966,0
-0.01123,1.824,8.7671,5.6682,-0.02138,0.01405,-0.0012217
-0.015747,2.0006,8.7868,5.6682,-0.013439,0.011606,-0.0024435
-0.020416,2.1575,8.6299,5.5898,-0.0088575,0.013134,-0.00030543
-0.0074768,2.079,8.7671,5.7075,-0.0097738,0.015882,-0.0018326
-0.0034485,1.9613,8.6887,5.5898,-0.0088575,0.013439,-0.0012217
-0.0022278,2.0202,8.7868,5.6682,-0.010079,0.014355,0.0045815
-0.00091553,2.1378,8.6299,5.6486,-0.011912,0.013744,0.0048869
-0.0053711,2.0594,8.7279,5.7467,-0.019548,0.012828,0.0030543
-0.0054016,1.9613,8.7279,5.6094,-0.025045,0.011606,-0.00061087
0.00024414,2.0594,8.7279,5.6682,-0.026573,0.010079,-0.0027489
-0.011566,1.9221,8.7868,5.5702,-0.028405,0.0094684,-0.0027489
-0.0072937,2.0006,8.7868,5.6682,-0.027794,0.0094684,0.0039706
-0.00354,1.9221,8.7671,5.5898,-0.024435,0.0067195,0.0045815
0.0014038,2.0202,8.826,5.7075,-0.020769,0.0073304,-0.00061087
-0.006134,1.8633,8.7868,5.7467,-0.014966,0.010079,-0.0009163
-0.011078,2.0202,8.7671,5.7271,-0.013744,0.01069,-0.002138
-0.0029602,1.9025,8.7868,5.7467,-0.016188,0.012523,-0.00061087
0.0074463,2.0006,8.7868,5.6682,-0.020159,0.014661,0.0012217
0.0056458,1.9221,8.6887,5.5702,-0.023824,0.015882,0.0030543
-0.010986,2.0006,8.7083,5.6682,-0.02474,0.016188,0.0061087
-0.017395,2.0006,8.7868,5.6682,-0.02474,0.015577,0.0042761
-0.015137,2.0006,8.7868,5.6682,-0.024129,0.014966,0.0042761
-0.0016479,2.1378,8.6887,5.6486,-0.017715,0.013439,0.0018326
-0.0095215,1.9613,8.7868,5.6682,-0.012217,0.012828,0.00061087
-0.0072632,1.9025,8.7083,5.7467,-0.011301,0.014355,0.0009163
-0.011688,2.0006,8.7868,5.6682,-0.013134,0.014966,0.0033598
-0.0061951,1.9221,8.6887,5.7467,-0.011301,0.014966,0.0054978
-0.0065002,2.079,8.7868,5.7075,-0.010079,0.016188,-0.0018326
0.0086365,2.1575,8.7083,5.6094,-0.0094684,0.016799,-0.0064141
0.014984,2.0006,8.7868,5.7075,-0.0085521,0.016799,0.0012217
0.021118,1.824,8.7279,5.7075,-0.0012217,0.015882,-0.0012217
0.033875,2.0006,8.7279,5.6682,0.0067195,0.016493,-0.002138
0.036926,2.1575,8.6102,5.6682,0.007025,0.016799,-0.00030543
0.044617,2.0594,8.8456,5.7075,0.002138,0.01741,0.0009163
0.039215,1.9221,8.7868,5.7271,-0.0067195,0.016493,0.0012217
0.044434,2.0594,8.7868,5.6094,-0.019853,0.014661,-0.0082467
0.038513,2.0202,8.7868,5.6486,-0.018631,0.01405,-0.0067195
0.038788,2.0202,8.7279,5.6486,-0.016493,0.013744,-0.011912
0.03067,1.8437,8.7868,5.7271,-0.017104,0.011301,-0.014355
0.03421,2.0594,8.7868,5.7467,-0.02138,0.009163,-0.01405
0.027405,2.1575,8.6102,5.6094,-0.022907,0.0085521,-0.011606
0.031647,2.0594,8.7279,5.6094,-0.01405,0.010385,-0.0094684
0.021759,1.9221,8.7868,5.7467,-0.018937,0.011301,-0.0082467
0.032501,2.0006,8.8652,5.7075,-0.01405,0.010079,0.0094684
0.033142,2.0006,8.8456,5.6682,-0.0085521,0.0073304,0.007025
0.032318,1.9613,8.826,5.5898,-0.0051924,0.010996,-0.0079412
0.04184,2.1182,8.6691,5.5702,-0.0058032,0.01405,-0.0039706
0.029297,2.0006,8.7868,5.7075,-0.011606,0.014966,0.0009163
0.030762,1.9417,8.7868,5.8055,-0.018937,0.016188,0.002138
0.01889,1.9809,8.7083,5.6094,-0.022297,0.017104,0.0061087
0.019043,1.9221,8.6887,5.7271,-0.020159,0.017715,0.009163
0.017365,1.9613,8.7083,5.5702,-0.020464,0.018326,-0.0024435
0.0089417,2.0594,8.7083,5.5898,-0.018937,0.01741,-0.0018326
0.014557,2.0202,8.7868,5.6682,-0.015882,0.018631,0.0033598
0.030243,1.8633,8.7279,5.7663,-0.015272,0.017715,0.0012217
0.025421,2.0006,8.7671,5.6682,-0.014966,0.017104,0.0024435
0.022491,1.9221,8.7868,5.6682,-0.014966,0.018326,0.0027489
0.02243,2.0006,8.7868,5.6094,-0.021991,0.018021,0.00030543
0.036011,1.9221,8.7868,5.5702,-0.021075,0.01741,-0.0009163
0.040222,1.9809,8.7868,5.5702,-0.009163,0.010996,-0.002138
0.060577,1.8044,8.7868,5.7467,-0.012828,0.015272,-0.00030543
0.076965,2.1182,8.7279,5.7075,-0.020159,0.012217,-0.0039706
0.074921,2.1378,8.6887,5.6682,-0.028405,0.011912,-0.0033598
0.080322,1.824,8.7868,5.7467,-0.032681,0.013134,-0.0033598
0.094177,1.9809,8.6691,5.7271,-0.031154,0.012217,-0.0054978
0.084106,2.1575,8.6887,5.5702,-0.026267,0.013439,-0.0079412
0.083496,2.0594,8.7868,5.6486,-0.023824,0.01405,-0.0064141
0.076202,1.9221,8.7671,5.5702,-0.021686,0.013744,0
0.092621,2.1378,8.6691,5.5702,-0.018631,0.010079,0.002138
0.084106,2.0006,8.7868,5.7075,-0.018937,0.011606,-0.0012217
0.089264,2.0202,8.8456,5.6682,-0.023824,0.014661,-0.00061087
0.08255,1.9025,8.7868,5.7467,-0.0281,0.01405,0.0015272
0.085785,2.0202,8.826,5.6682,-0.028405,0.013744,-0.00030543
0.094238,1.9613,8.6887,5.5702,-0.025351,0.014355,-0.00030543
0.078827,2.1378,8.6887,5.5702,-0.023824,0.013439,0
0.066895,2.1771,8.7279,5.5702,-0.018937,0.01405,-0.0015272
0.083344,2.0202,8.826,5.6094,-0.017104,0.012217,-0.00061087
0.084991,1.9221,8.7279,5.5702,-0.01741,0.014355,0.0027489
0.07785,2.0594,8.7868,5.6682,-0.021075,0.016799,0.0027489
0.079346,1.9417,8.7083,5.6094,-0.024435,0.015882,0.00061087
0.06778,2.0006,8.7868,5.6094,-0.023213,0.015272,-0.0018326
0.064819,1.9613,8.7279,5.5898,-0.02138,0.014661,-0.0015272
0.0737,2.0594,8.7868,5.5898,-0.015577,0.014355,-0.0015272
0.063446,1.9613,8.7868,5.5898,-0.010996,0.009163,-0.0042761
0.068604,2.1378,8.7083,5.5898,-0.010079,0.007025,-0.0036652
0.059906,1.8633,8.826,5.7467,-0.014355,0.0082467,-0.0039706
0.056519,2.0202,8.7868,5.6682,-0.017715,0.010385,-0.0054978
0.054108,1.9613,8.7279,5.5702,-0.019548,0.011606,-0.0073304
0.054016,2.0006,8.7868,5.6682,-0.018937,0.011606,-0.007025
0.053436,2.1182,8.7083,5.5702,-0.016188,0.011301,-0.0058032
0.053406,2.1182,8.7083,5.6094,-0.012523,0.01069,-0.0058032
0.052948,2.0006,8.8456,5.6094,-0.0073304,0.018631,-0.00030543
0.065948,2.0006,8.7868,5.6682,-0.013744,0.020769,0.0015272
0.075958,2.0594,8.7279,5.6682,-0.023518,0.018937,0.00061087
0.081696,2.0202,8.7083,5.5702,-0.03146,0.018021,0.002138
0.079224,1.9221,8.7868,5.5702,-0.034208,0.016188,0.002138
0.082336,2.1575,8.7868,5.6682,-0.0281,0.015577,0.0012217
0.097626,2.0006,8.8652,5.6094,-0.0045815,0.014661,0
0.09201,1.9221,8.8652,5.6094,-0.0067195,0.016493,-0.0018326
0.083252,2.0202,8.7868,5.7271,-0.0082467,0.018021,-0.00061087
0.080872,2.0594,8.7083,5.6682,-0.0067195,0.015577,-0.0024435
0.077881,1.8044,8.8456,5.6682,-0.0085521,0.014966,0.0030543
0.084259,2.0594,8.826,5.6094,-0.014355,0.017104,0.0018326
0.089905,2.0594,8.7671,5.5702,-0.018021,0.017715,0.00061087
0.074493,1.9221,8.7868,5.5898,-0.018631,0.018021,0.0015272
0.085236,2.0594,8.7868,5.5702,-0.019853,0.018021,0.0027489
0.080963,2.0594,8.6887,5.5702,-0.011912,0.016799,0.0012217
0.086914,2.0594,8.8652,5.6682,-0.016493,0.015882,-0.0024435
0.088135,2.0006,8.7868,5.6486,-0.01405,0.016493,0.00061087
0.090179,2.0202,8.7868,5.6094,-0.013134,0.014355,0.0009163
0.098999,2.1575,8.7868,5.5898,-0.012523,0.014966,0.002138
0.10406,2.0594,8.7671,5.5113,-0.01741,0.013134,0.0015272
0.10709,1.9025,8.7868,5.5506,-0.025656,0.011606,-0.0018326
0.10306,1.9221,8.826,5.5702,-0.030543,0.012217,-0.0024435
0.098694,1.824,8.6887,5.6094,-0.03146,0.013134,-0.002138
0.095123,1.8044,8.7671,5.7467,-0.01741,0.018937,-0.00061087
0.093384,1.9809,8.6887,5.7467,-0.018021,0.021075,0.00061087
0.091034,1.9809,8.7868,5.6682,-0.017715,0.021075,0.0058032
0.086731,1.9221,8.7868,5.5702,-0.015272,0.022907,0.0079412
0.081512,1.9221,8.8456,5.5702,-0.011912,0.025045,0.010385
0.078278,1.8437,8.7671,5.5506,-0.007025,0.022602,0.0073304
0.085876,1.824,8.8652,5.6682,-0.015272,0.021075,0.0039706
0.071259,1.9613,8.826,5.6094,-0.014966,0.019853,0.0015272
0.071747,1.9221,8.7868,5.6682,-0.022602,0.014661,-0.0073304
0.082581,1.824,8.8456,5.6682,-0.018021,0.018021,-0.0061087
0.09668,2.0006,8.7279,5.5702,-0.014355,0.016799,0.0027489
0.10007,2.0006,8.826,5.6094,-0.013744,0.016799,0.0036652
0.10693,2.1378,8.7083,5.6486,-0.017104,0.015272,0.0018326
0.11124,2.1182,8.6887,5.5702,-0.017715,0.011606,-0.0012217
0.11084,2.1182,8.7279,5.5113,-0.014966,0.01069,-0.0033598
0.10535,1.8633,8.8456,5.7467,-0.015577,0.010079,-0.0064141
0.11185,2.1182,8.7279,5.5702,-0.018021,0.010079,0.0027489
0.12335,1.8633,8.7671,5.6486,-0.019548,0.0085521,0.0051924
0.10803,2.1378,8.7868,5.5898,-0.025045,0.010385,-0.0036652
0.104,1.9221,8.7868,5.5702,-0.027794,0.013134,-0.0039706
0.11234,2.1378,8.7868,5.6094,-0.03207,0.014355,-0.0045815
0.11118,2.1378,8.7083,5.5702,-0.033292,0.016799,-0.0036652
0.1019,2.0006,8.7868,5.6094,-0.031154,0.017715,-0.0024435
0.098083,2.0594,8.7868,5.5898,-0.023824,0.016493,0
0.092102,2.0202,8.826,5.7075,-0.029322,0.017104,0.002138
0.083893,2.1182,8.8652,5.5898,-0.021991,0.015272,0.0012217
0.10446,1.9613,8.6887,5.6682,-0.013744,0.016799,0.0015272
0.10519,1.9221,8.7083,5.5702,-0.010079,0.016188,0.0039706
0.08963,1.9809,8.7868,5.5702,-0.010079,0.015577,0.0030543
0.073639,1.9025,8.7868,5.5702,-0.017104,0.015882,0.0036652
0.080719,2.0202,8.826,5.5702,-0.025045,0.015882,0.0042761
0.078552,1.9221,8.7868,5.5898,-0.029627,0.016188,0.0033598
0.065704,2.0594,8.7279,5.5702,-0.029627,0.015577,0.0042761
0.056824,1.8437,8.826,5.7075,-0.028405,0.014355,0.0009163
0.048645,1.9221,8.7868,5.4917,-0.026878,0.01405,-0.00061087
0.052734,1.9221,8.7868,5.5898,-0.019548,0.014661,-0.0018326
0.052795,2.1182,8.8456,5.6682,-0.011912,0.015577,-0.0009163
0.048523,1.9809,8.7279,5.6682,-0.011912,0.014966,0.0027489
0.039856,1.9221,8.6887,5.5702,-0.01741,0.014355,0.0048869
0.03064,1.8633,8.7868,5.7271,-0.023213,0.01405,0.0073304
0.028625,1.9221,8.7083,5.5898,-0.022297,0.013439,0.0024435
0.046844,1.824,8.8456,5.7075,-0.020464,0.012217,0.0018326
0.061218,1.9221,8.7671,5.5702,-0.018937,0.014355,0.00030543
0.063263,1.9025,8.7868,5.7271,-0.019548,0.015577,0.0009163
0.060516,1.9809,8.7083,5.5702,-0.019548,0.016493,0.0012217
0.070282,1.9221,8.7671,5.5702,-0.020464,0.015882,0.0030543
0.082245,2.1378,8.7279,5.5702,-0.020769,0.015882,0.0045815
0.073151,1.824,8.826,5.6682,-0.022602,0.016799,0.0027489
0.062653,1.9221,8.826,5.4917,-0.018937,0.018326,0.00061087
0.076935,1.9221,8.7279,5.6094,-0.020464,0.016799,-0.0018326
0.068817,1.9613,8.7868,5.6094,-0.016799,0.016188,0.002138
0.071808,1.824,8.826,5.7663,-0.012828,0.016493,0.0012217
0.062317,1.9613,8.7868,5.6094,-0.012828,0.015272,0
0.068024,1.9221,8.826,5.6094,-0.01405,0.012828,-0.00030543
0.071381,1.9809,8.8456,5.5506,-0.018021,0.011301,0.00030543
0.076172,1.824,8.8456,5.7075,-0.022907,0.011301,0.002138
0.064758,2.0006,8.8456,5.6094,-0.023824,0.010996,0.002138
0.05191,2.1182,8.7279,5.5898,-0.022907,0.009163,0.0039706
0.057129,2.0006,8.7279,5.6094,-0.022297,0.009163,-0.0027489
0.060699,1.9809,8.826,5.6682,-0.023213,0.010079,-0.002138
0.065033,1.8044,8.7868,5.7075,-0.021991,0.011301,-0.00030543
0.067505,2.1575,8.6887,5.5898,-0.023824,0.012828,0.0012217
0.069275,2.1575,8.7868,5.5898,-0.026878,0.014661,0.0030543
0.051086,2.1182,8.7083,5.5702,-0.025045,0.015272,0.0033598
0.042114,2.1575,8.826,5.6682,-0.02138,0.014966,0.0018326
0.047058,2.1575,8.7083,5.5702,-0.014661,0.016799,0.0015272
0.04715,2.0594,8.8456,5.6094,-0.010996,0.017104,0.0036652
0.043823,2.0594,8.7279,5.6094,-0.011301,0.014661,0.0042761
0.033691,2.1575,8.7279,5.6486,-0.013744,0.014661,0.0051924
0.033386,1.9221,8.7279,5.5898,-0.018326,0.016799,0.0051924
0.036469,2.0202,8.8456,5.7075,-0.025962,0.016188,0.0045815
0.039581,2.079,8.7083,5.5702,-0.025962,0.014661,0.0036652
0.039368,2.0006,8.7868,5.5702,-0.023213,0.016493,0.00030543
0.041321,2.0006,8.8652,5.6682,-0.026878,0.017715,-0.0042761
0.05014,1.9809,8.7279,5.6682,-0.026573,0.01741,0.0027489
0.054932,1.9613,8.7279,5.5898,-0.021686,0.014966,0.00030543
0.063934,1.9613,8.7671,5.6094,-0.012828,0.012828,0
0.05899,1.9809,8.7868,5.5702,-0.0042761,0.015272,0.0030543
0.069733,1.9221,8.826,5.6094,-0.0024435,0.014661,0.0039706
0.061005,2.1182,8.7083,5.6486,-0.0051924,0.012523,0.0033598
0.056702,1.824,8.7868,5.6682,-0.0082467,0.0094684,-0.007025
0.06076,2.0006,8.7868,5.5702,-0.013439,0.0036652,-0.0082467
0.062592,1.9221,8.8456,5.6486,-0.019548,0.0073304,-0.0085521
0.046509,2.1182,8.7279,5.5898,-0.023824,0.009163,-0.011912
0.044037,1.9809,8.7279,5.6094,-0.025962,0.0076358,-0.010079
0.048981,2.1575,8.6887,5.5702,-0.02474,0.0088575,-0.007025
0.055725,2.1182,8.7868,5.5898,-0.023213,0.0085521,-0.0061087
0.04599,2.079,8.8456,5.5702,-0.02138,0.0073304,-0.0067195
0.038452,1.7064,8.8652,5.7075,-0.02138,0.0085521,0.0048869
0.043457,2.1182,8.7868,5.5898,-0.019853,0.014966,0.0018326
0.034271,2.0594,8.7083,5.5702,-0.013744,0.013744,-0.0079412
0.040771,2.1378,8.826,5.7271,-0.0079412,0.011606,-0.0048869
0.036499,2.1575,8.6691,5.5702,-0.0073304,0.012828,0.00061087
0.021332,2.0594,8.7279,5.5702,-0.012828,0.014661,0.0051924
0.023773,2.1575,8.7083,5.5898,-0.019853,0.016188,0.0082467
0.01947,2.1182,8.826,5.6682,-0.026573,0.016188,0.0085521
0.019867,2.0202,8.7868,5.6094,-0.029322,0.015882,0.0009163
0.015259,2.0202,8.6887,5.5702,-0.0281,0.018326,-0.0018326
-0.0066833,2.0006,8.7279,5.5702,-0.023824,0.019548,0.002138
-0.0064392,1.9809,8.8456,5.5702,-0.018631,0.018021,0.002138
0.0066223,2.0986,8.7083,5.5898,-0.014355,0.018021,0.0024435
0.01767,2.1575,8.8652,5.5898,-0.01405,0.016493,0.0036652
0.022217,2.1378,8.7083,5.5702,-0.017104,0.014661,0.0042761
0.016205,2.1182,8.826,5.6682,-0.019853,0.014661,0.0039706
0.011414,2.079,8.6887,5.5702,-0.021075,0.017104,-0.002138
0.031677,2.1575,8.6887,5.5702,-0.021686,0.012828,-0.0012217
0.059418,2.0594,8.826,5.6682,-0.021075,0.013744,-0.0009163
0.065063,2.1575,8.6887,5.6094,-0.022602,0.014966,-0.0015272
0.054871,2.0006,8.7671,5.5506,-0.023213,0.016188,-0.0036652
0.054535,2.0006,8.8652,5.4917,-0.022297,0.015272,-0.0048869
0.065582,2.079,8.7671,5.5702,-0.020159,0.01405,-0.0048869
0.069519,2.0006,8.8456,5.5702,-0.019548,0.015577,-0.0039706
0.069183,1.9613,8.7279,5.5702,-0.015272,0.016188,0.0027489
0.062775,2.0202,8.7671,5.5898,-0.016493,0.016188,0.002138
0.055847,2.1575,8.7279,5.5898,-0.016799,0.015882,-0.0012217
0.05719,2.1378,8.8456,5.6094,-0.018021,0.015882,-0.0015272
0.06601,2.1182,8.6887,5.5702,-0.018021,0.016188,-0.00030543
0.062012,2.1378,8.7279,5.6094,-0.018937,0.016188,0.002138
0.069489,2.0006,8.7279,5.5702,-0.021075,0.016799,0.0018326
0.075562,2.1182,8.7083,5.5702,-0.016799,0.015882,0.0018326
0.065033,1.9809,8.826,5.5702,-0.016799,0.017104,0.00061087
0.063995,2.0006,8.7868,5.5702,-0.016799,0.018631,-0.0012217
0.067261,2.0594,8.7083,5.5702,-0.020159,0.01741,-0.00030543
0.064209,2.1182,8.7671,5.6094,-0.023824,0.016799,-0.00061087
0.061951,1.9221,8.7279,5.5702,-0.025351,0.015882,-0.00061087
0.048767,2.1182,8.826,5.6682,-0.025962,0.016493,0.0009163
0.046722,2.0006,8.7671,5.5702,-0.018937,0.016799,0.0009163
0.048645,2.0006,8.7868,5.5898,-0.018631,0.014966,0.0009163
0.038727,1.9613,8.7671,5.5702,-0.023518,0.013134,0.0009163
0.03125,2.0594,8.8456,5.5702,-0.024129,0.009163,0.0015272
0.035278,2.1182,8.7083,5.5702,-0.020464,0.010996,-0.0027489
0.03479,1.9809,8.6887,5.5898,-0.020464,0.012523,-0.0033598
0.026794,2.1182,8.6887,5.5702,-0.020159,0.013134,-0.0015272
0.041199,2.1575,8.7279,5.5898,-0.018326,0.010996,0
0.03952,2.1378,8.6887,5.5898,-0.021075,0.0097738,0.00061087
0.032623,1.9613,8.7868,5.5702,-0.022907,0.010996,0.0009163
0.029327,1.8633,8.826,5.7271,-0.012523,0.0082467,-0.0054978
0.05661,1.824,8.8652,5.7075,-0.011912,0.0033598,-0.0033598
0.06543,1.9809,8.7279,5.5702,-0.015577,0.0045815,-0.0030543
0.064728,1.824,8.7868,5.7271,-0.018937,0.0067195,-0.0042761
0.062805,1.9221,8.7671,5.5898,-0.022602,0.0073304,-0.0051924
0.0513,1.824,8.8652,5.7467,-0.026573,0.0064141,-0.0051924
0.063568,1.8437,8.8456,5.6094,-0.030849,0.0076358,-0.0045815
0.066284,1.9221,8.7868,5.5702,-0.033903,0.010079,-0.0054978
0.058716,2.0006,8.7868,5.5506,-0.033598,0.0097738,0.0064141
0.056793,1.9809,8.7671,5.6682,-0.029932,0.013439,0.0073304
0.059174,2.1378,8.7083,5.5898,-0.02474,0.014355,-0.0009163
0.062958,1.9809,8.6887,5.6094,-0.022907,0.013134,0.002138
0.050079,1.9221,8.6887,5.6094,-0.023518,0.015577,0.0018326
0.042999,1.8633,8.826,5.7075,-0.020769,0.017104,0.0012217
0.039429,2.0202,8.826,5.6094,-0.018937,0.019548,0.0015272
0.030884,1.8633,8.7868,5.5898,-0.01741,0.021075,0.0033598
0.046783,1.9613,8.7868,5.5702,-0.013744,0.020464,0.0015272
0.048004,1.9809,8.7868,5.6094,-0.015272,0.018631,-0.00030543
0.048431,2.1378,8.7083,5.6094,-0.012828,0.017104,0.0061087
0.052734,1.9221,8.826,5.5702,-0.010385,0.013439,0.0039706
0.041626,1.9809,8.826,5.5702,-0.01069,0.011912,0.0033598
0.051636,1.9221,8.7868,5.5702,-0.014355,0.011301,0.0027489
0.04834,1.9613,8.7083,5.5702,-0.018326,0.010385,0.0018326
0.04306,1.9613,8.7868,5.6682,-0.02138,0.010996,0.0024435
0.044647,2.0006,8.6887,5.6094,-0.011301,0.011301,0.0015272
0.038727,1.9221,8.7868,5.7467,-0.014661,0.011606,-0.00030543
0.033386,2.0006,8.7671,5.6682,-0.022602,0.012217,0.009163
0.030365,1.9221,8.7279,5.6682,-0.027184,0.013134,0.0088575
0.027679,1.9613,8.7868,5.5702,-0.027794,0.013134,0.0064141
0.025269,1.824,8.8652,5.7075,-0.025351,0.012523,0.0042761
0.020233,1.9221,8.7868,5.5898,-0.020769,0.011606,0.0018326
0.023407,1.8633,8.826,5.7467,-0.016493,0.0097738,0.0012217
0.031189,1.9221,8.7279,5.6682,-0.014355,0.020159,0.0018326
0.035614,1.9613,8.7279,5.6682,-0.016493,0.018631,-0.0018326
0.042755,1.9221,8.826,5.5702,-0.010996,0.018631,0.0073304
0.069214,1.8437,8.7868,5.7271,-0.0058032,0.018937,0.0054978
0.063904,2.0006,8.7868,5.6094,-0.0027489,0.018326,0.0030543
0.065247,1.9613,8.7083,5.6094,-0.0064141,0.017104,0.0027489
0.066132,1.9221,8.7279,5.6486,-0.010385,0.016799,0.0033598
0.077545,1.8437,8.7868,5.7271,-0.007025,0.01741,0.0030543
0.06488,1.9809,8.7279,5.5702,-0.015577,0.018326,0.00030543
0.057465,1.9809,8.7279,5.6682,-0.014355,0.020769,0.0012217
0.05658,1.9613,8.7868,5.5898,-0.015577,0.017715,-0.0064141
0.058777,1.9613,8.8456,5.5702,-0.01405,0.014355,-0.0094684
0.063782,2.1378,8.7083,5.5702,-0.014661,0.013744,-0.009163
0.051483,1.9221,8.7279,5.6094,-0.016799,0.01405,-0.0054978
0.055878,1.9809,8.7868,5.5702,-0.010385,0.01405,-0.0012217
0.060181,1.9221,8.8456,5.7271,-0.016493,0.015577,0.00030543
0.059723,1.9221,8.7868,5.5702,-0.017715,0.018326,0.00061087
0.059296,1.9221,8.7868,5.6094,-0.019548,0.020159,0.00061087
0.053467,1.9809,8.826,5.5702,-0.016799,0.019242,0.0009163
0.051147,1.824,8.7671,5.7075,-0.013134,0.018631,0.0015272
0.051666,2.0006,8.7279,5.6486,-0.011606,0.018326,0.00061087
0.044891,1.9221,8.8456,5.6094,-0.0097738,0.016493,-0.00061087
0.044189,2.0006,8.7868,5.5702,-0.010385,0.014661,0.00030543
0.04364,1.8633,8.7868,5.7075,-0.0094684,0.016188,0.0015272
0.03183,2.0006,8.8652,5.6682,-0.014661,0.016799,0.002138
0.03009,1.9613,8.7868,5.6682,-0.016493,0.018326,0.0045815
0.02655,2.0594,8.7083,5.5702,-0.019242,0.019548,0.00061087
0.017822,1.824,8.7279,5.6682,-0.019853,0.020159,0.00030543
0.020355,2.0202,8.7868,5.6094,-0.018937,0.020464,0.0009163
0.012787,2.0006,8.826,5.6682,-0.015272,0.020464,0.00061087
0.0019531,1.9221,8.7868,5.5898,-0.01069,0.019548,0
0.010986,1.8437,8.7868,5.7271,-0.014661,0.018937,0.00061087
0.0084534,1.9221,8.826,5.5702,-0.020464,0.018021,-0.0009163
0.011597,1.9221,8.8652,5.6094,-0.018937,0.017715,-0.0045815
0.027618,1.8633,8.7868,5.6682,-0.015272,0.017715,0.0048869
0.042603,1.9221,8.8456,5.5898,-0.012523,0.016188,0.0039706
0.04538,1.7652,8.7868,5.6682,-0.011301,0.013134,0.0033598
0.046051,2.0202,8.826,5.6094,-0.012523,0.012523,0.0018326
0.051422,2.1182,8.7868,5.6486,-0.015882,0.012217,0.0018326
0.059448,2.0006,8.8456,5.5702,-0.018937,0.012217,0.00061087
0.053497,1.8633,8.7868,5.5898,-0.0097738,0.017104,-0.00030543
0.047577,1.9613,8.6887,5.5113,-0.009163,0.017715,0
0.052124,1.8633,8.7671,5.6682,-0.010385,0.018326,0.013744
0.05426,2.0006,8.826,5.7075,-0.016799,0.020464,0.012523
0.056641,2.0006,8.7868,5.6682,-0.018631,0.021686,0.0079412
0.058746,2.079,8.826,5.6094,-0.016493,0.020769,0.0054978
0.052979,1.9809,8.7279,5.5702,-0.010996,0.018937,0.0030543
0.039307,2.1182,8.7279,5.5113,-0.0067195,0.016493,0.0015272
0.042908,1.8044,8.8848,5.7075,-0.0027489,0.014966,-0.009163
0.049225,1.9221,8.7868,5.5702,-0.0039706,0.018631,-0.0051924
0.055023,1.8633,8.7868,5.5702,-0.0079412,0.017104,0.00061087
0.046661,2.1575,8.6887,5.5702,-0.016493,0.014661,0.0012217
0.046082,1.9613,8.7671,5.6094,-0.025962,0.01405,0.0009163
0.04361,2.1378,8.826,5.6682,-0.03207,0.013744,-0.0051924
0.04364,1.8633,8.826,5.7075,-0.033292,0.012523,-0.0073304
0.040131,1.9613,8.7868,5.5702,-0.027489,0.012217,-0.0085521
0.048584,1.9221,8.7868,5.5898,-0.019548,0.012217,0.0036652
0.036926,1.8633,8.826,5.5702,-0.011912,0.0082467,0.0036652
0.032043,1.824,8.8456,5.6682,-0.0076358,0.007025,-0.0027489
0.026672,1.9221,8.7868,5.5702,-0.0058032,0.01069,-0.0012217
0.027527,1.9221,8.826,5.5898,-0.0067195,0.013439,0
0.032349,2.1378,8.7279,5.6094,-0.010996,0.014661,0.0018326
0.032257,1.8437,8.7868,5.6682,-0.016799,0.016188,0.0033598
0.018494,2.0006,8.7868,5.5898,-0.020464,0.016799,0.0033598
0.012573,1.9221,8.7868,5.6094,-0.020159,0.010079,0.0045815
0.025482,2.0594,8.826,5.6682,-0.021991,0.012217,0.0088575
0.051544,1.824,8.8652,5.7075,-0.02474,0.010385,0.0018326
0.058624,1.9221,8.7868,5.5898,-0.02474,0.009163,0.0009163
0.054352,1.8633,8.7868,5.7075,-0.02138,0.0094684,-0.0015272
0.038025,1.9221,8.7868,5.5702,-0.020769,0.0088575,-0.0039706
0.046265,1.9221,8.826,5.5898,-0.01741,0.009163,-0.0048869
0.045837,1.9809,8.8456,5.5702,-0.019548,0.010385,-0.0024435
0.052734,1.9613,8.8456,5.6682,-0.031154,0.01741,-0.0009163
0.05365,1.9809,8.7868,5.5702,-0.036652,0.015272,-0.0039706
0.047028,1.9221,8.7671,5.6486,-0.036652,0.010996,-0.0033598
0.037415,2.0202,8.7279,5.5702,-0.033292,0.010079,-0.0064141
0.033447,2.0006,8.8456,5.6094,-0.026573,0.0094684,-0.0082467
0.040497,2.0006,8.9241,5.6094,-0.02138,0.0082467,-0.0061087
0.038513,1.8633,8.8652,5.6682,-0.018937,0.0067195,-0.0018326
0.03476,1.9221,8.7279,5.5506,-0.024435,0.0067195,-0.00030543
0.022949,1.824,8.7671,5.6682,-0.040317,0.0076358,0.010385
0.026611,1.9613,8.7868,5.6094,-0.032987,0.0064141,0.0082467
0.027496,1.9613,8.7868,5.6094,-0.024435,0.0085521,-0.0073304
0.029236,1.9809,8.7868,5.5702,-0.019242,0.010996,-0.0061087
0.02536,1.9221,8.7279,5.5898,-0.014966,0.011606,-0.0015272
0.010986,1.9221,8.7279,5.5702,-0.01405,0.012523,0.0015272
0.0072021,1.824,8.8652,5.7467,-0.033903,0.013134,0.0039706
0.0074158,2.0202,8.826,5.6682,-0.040012,0.013439,0.0073304
0.012634,1.9221,8.7868,5.6486,-0.025351,0.01405,0.0045815
0.019012,2.1575,8.7083,5.5506,-0.027794,0.013439,0.0048869
0.0099487,1.8633,8.7868,5.7075,-0.026878,0.014355,0.0082467
0.0076294,1.9221,8.7868,5.5702,-0.023824,0.016188,0.0064141
0.0093384,1.9613,8.8456,5.6094,-0.02138,0.015272,0.0036652
0.014984,1.9809,8.7868,5.5506,-0.019242,0.01405,0.0048869
0.013062,1.9809,8.6887,5.5702,-0.017715,0.012828,0.0045815
0.013489,1.9613,8.7868,5.5898,-0.020769,0.011912,0.0033598
0.012207,1.9809,8.7279,5.7075,-0.01741,0.016188,0.0033598
0.027161,1.9809,8.826,5.7271,-0.015272,0.014966,0.0033598
0.039886,2.1575,8.7083,5.5702,-0.018937,0.014661,0.0024435
0.052124,2.1182,8.6887,5.5702,-0.021991,0.015272,0.002138
0.055603,1.9221,8.8456,5.5702,-0.022907,0.015577,0.002138
0.052826,2.0594,8.8456,5.5702,-0.02474,0.016799,0.0027489
0.051666,2.1182,8.7868,5.6682,-0.029322,0.01741,0.0018326
0.045166,1.7456,8.826,5.6682,-0.031765,0.015882,0.0018326
0.048553,1.9221,8.6887,5.7075,-0.028711,0.015272,0.0061087
0.047516,1.9613,8.7279,5.5702,-0.027184,0.018631,0.0054978
0.052765,1.9221,8.7868,5.6094,-0.025351,0.019242,0.002138
0.044769,1.9809,8.7279,5.5898,-0.022602,0.018937,0.0018326
0.037994,1.9613,8.7083,5.5113,-0.02138,0.017715,0.0012217
0.041931,1.8437,8.826,5.7271,-0.020159,0.015882,0.0027489
0.040497,1.9221,8.7868,5.5702,-0.01741,0.016799,0.0051924
0.048798,1.9809,8.7279,5.6094,-0.016188,0.016799,0.0064141
0.033264,2.0594,8.6887,5.5702,-0.017715,0.017104,-0.0015272
0.037384,1.9221,8.7868,5.6682,-0.018937,0.016493,0.00030543
0.036804,1.9613,8.6887,5.6094,-0.021991,0.017715,0.0045815
0.043121,1.8633,8.7868,5.7271,-0.022297,0.018021,0.0039706
0.051605,1.9809,8.7279,5.5702,-0.02474,0.016799,0.0015272
0.036957,1.9809,8.7868,5.6094,-0.025656,0.017715,0
0.035461,2.1378,8.7279,5.5898,-0.02138,0.017715,0
0.028198,1.9809,8.7868,5.5898,-0.017104,0.015272,-0.0015272
0.028473,2.1378,8.6887,5.5702,-0.013134,0.014355,-0.0085521
0.02536,1.9221,8.7083,5.5702,-0.013134,0.014966,-0.0076358
0.023315,2.0594,8.7279,5.5898,-0.012217,0.012217,-0.00061087
0.015656,1.9221,8.7868,5.6486,-0.010385,0.011606,-0.0030543
0.016541,1.9221,8.7868,5.5898,-0.014661,0.011606,-0.0033598
0.011566,1.9613,8.7868,5.6682,-0.018631,0.01069,-0.0039706
0.01001,1.9221,8.7868,5.5702,-0.021075,0.011301,-0.0064141
0.02124,1.8633,8.7868,5.7271,-0.023824,0.012217,-0.0085521
0.01358,1.9809,8.7279,5.6094,-0.018326,0.014966,-0.0054978
0.019043,1.824,8.7671,5.7075,-0.023213,0.015577,-0.0045815
0.032104,1.9809,8.7083,5.5506,-0.025351,0.014661,-0.00061087
0.035004,1.9613,8.8456,5.5898,-0.026573,0.013439,-0.0042761
0.046814,1.9221,8.8456,5.4917,-0.025962,0.012523,-0.0064141
0.044128,1.9221,8.826,5.6682,-0.025656,0.010079,-0.0033598
0.040619,1.9613,8.7083,5.5702,-0.01069,0.01069,-0.0030543
0.029083,1.8437,8.7868,5.7075,-0.012523,0.0085521,-0.0036652
0.028931,2.0006,8.7671,5.6682,-0.014966,0.009163,-0.0012217
0.03006,1.9809,8.6887,5.6094,-0.018021,0.0076358,0.00061087
0.023956,2.1182,8.6887,5.5898,-0.023213,0.010079,-0.00030543
0.026154,1.9221,8.7279,5.6682,-0.021991,0.012523,0
0.022736,2.1378,8.6887,5.6094,-0.018631,0.012217,-0.0012217
0.024628,1.9613,8.7868,5.6682,-0.016799,0.01405,-0.0030543
0.020416,2.1378,8.7083,5.6094,-0.02138,0.014966,-0.0033598
0.031342,1.9221,8.7868,5.5702,-0.016799,0.015577,-0.0027489
0.02948,1.9221,8.7868,5.5113,-0.011606,0.016188,-0.0009163
0.037506,1.824,8.8456,5.7075,-0.016188,0.015882,-0.00030543
0.040222,2.0006,8.7868,5.6094,-0.022297,0.01405,0.0018326
0.037292,1.9417,8.7083,5.6682,-0.023518,0.013744,0.0033598
0.040192,2.079,8.7868,5.6682,-0.021991,0.013744,0.0033598
0.036285,1.8437,8.7868,5.7271,-0.018937,0.013744,0.0012217
0.041046,1.9613,8.7279,5.5898,-0.016188,0.012217,-0.00061087
0.040771,1.9613,8.7279,5.6094,-0.012217,0.012217,-0.0024435
0.030762,1.9809,8.7868,5.5702,-0.0073304,0.013439,0.0027489
0.028717,1.8633,8.7868,5.6682,-0.010385,0.012828,0.00061087
0.028656,1.9025,8.7868,5.5702,-0.015577,0.015272,0.0094684
0.029968,1.9221,8.7671,5.6094,-0.018021,0.018021,0.0076358
0.033112,2.079,8.6887,5.5702,-0.018021,0.019242,0.0067195
0.03595,1.9613,8.7083,5.5702,-0.016493,0.018326,0.0061087
0.025452,2.1378,8.7279,5.5702,-0.012828,0.017715,0.0054978
0.026367,1.9221,8.8652,5.7271,-0.010079,0.015577,0.0051924
0.01944,1.9613,8.7868,5.5898,-0.039095,0.027489,0.0027489
0.042664,1.9221,8.6887,5.6682,-0.033598,0.026267,0.0024435
0.06189,2.0202,8.6887,5.5702,-0.018631,0.025962,0.002138
0.070679,2.0202,8.7868,5.5898,-0.0088575,0.024129,0.011301
0.058075,1.9221,8.8456,5.6682,-0.0082467,0.021686,0.015882
0.053528,2.0006,8.7279,5.5702,-0.013439,0.018326,0.016493
0.060364,1.9613,8.6887,5.5898,-0.017715,0.017104,0.014661
0.051422,1.9613,8.7279,5.5702,-0.015577,0.01741,0.007025
0.056458,1.8633,8.826,5.7467,-0.010079,0.014966,-0.0067195
0.063599,1.9809,8.7868,5.5898,-0.013134,0.012523,-0.0058032
0.059601,1.824,8.7868,5.7075,-0.022602,0.0097738,0.0024435
0.057434,1.9221,8.6887,5.5506,-0.031765,0.0079412,-0.0012217
0.05069,1.824,8.7868,5.7467,-0.034514,0.007025,-0.0039706
0.059601,1.9221,8.7868,5.5702,-0.032681,0.0064141,-0.0045815
0.060944,1.9613,8.7279,5.5898,-0.030238,0.0076358,-0.0048869
0.055847,2.1575,8.6887,5.5702,-0.030543,0.0067195,-0.0048869
0.050323,1.824,8.8652,5.7075,-0.025656,0.0073304,0.0036652
0.051575,2.0594,8.7868,5.6682,-0.027184,0.010079,0.0030543
0.056915,1.824,8.7868,5.7075,-0.024435,0.0088575,-0.0027489
0.062988,1.9613,8.6887,5.5702,-0.018326,0.0088575,-0.0024435
0.066223,1.824,8.7279,5.7467,-0.014355,0.009163,-0.00061087
0.054688,1.9221,8.826,5.5898,-0.014355,0.0097738,0.0012217
0.038849,1.9613,8.826,5.6682,-0.01741,0.011301,0.002138
0.025604,2.1182,8.7868,5.5702,-0.02138,0.013744,0.0039706
0.027924,1.824,8.8652,5.7075,-0.016799,0.013744,0.009163
0.03244,1.8633,8.7868,5.5702,-0.0076358,0.016799,0.0042761
0.035339,1.9025,8.7868,5.5898,-0.0045815,0.019853,-0.0054978
0.021423,2.1575,8.6887,5.6682,-0.012828,0.020769,0.0024435
0.016022,1.9613,8.7279,5.6682,-0.0281,0.022602,0.0061087
0.020142,1.9809,8.7279,5.5898,-0.037568,0.024129,0.002138
0.0043335,1.8633,8.7868,5.7467,-0.03879,0.026573,-0.002138
0.0052795,2.0202,8.826,5.6094,-0.038179,0.027794,0.0018326
0.0077209,2.1182,8.7868,5.6094,-0.012828,0.018326,-0.0015272
0.026276,2.0202,8.7279,5.7075,-0.011301,0.018326,-0.0009163
0.023438,1.9809,8.7868,5.6486,-0.013134,0.017104,0.0039706
0.038605,1.9221,8.6887,5.7075,-0.016493,0.015577,0.0039706
0.057281,2.1575,8.826,5.6486,-0.016493,0.013134,0.0033598
0.054016,2.0594,8.8456,5.5702,-0.017715,0.012217,0.0012217
0.061432,1.9613,8.7279,5.5702,-0.015272,0.013439,-0.00061087
0.062225,2.0006,8.7279,5.5702,-0.015272,0.012217,-0.002138
0.062897,1.9221,8.7671,5.5898,-0.017715,0.011912,0.0018326
0.060089,2.0006,8.7671,5.5898,-0.020769,0.011301,0.002138
0.056213,2.1182,8.6887,5.6682,-0.018937,0.011606,-0.00061087
0.055725,2.1575,8.7083,5.6094,-0.018021,0.013439,-0.0012217
0.074341,2.1182,8.6887,5.5898,-0.018021,0.014661,-0.00030543
0.061157,2.1575,8.826,5.6486,-0.020159,0.015577,-0.00030543
0.071442,2.0006,8.8456,5.5898,-0.018631,0.016799,-0.0015272
0.068756,2.0594,8.6887,5.5702,-0.014355,0.017104,-0.00061087
0.059998,2.0006,8.7868,5.6682,-0.0088575,0.016799,0.0009163
0.064697,2.0594,8.7083,5.6094,-0.014661,0.016493,0.0009163
0.066101,1.8437,8.7868,5.7467,-0.020769,0.017104,0.0012217
0.062225,1.8437,8.826,5.7467,-0.026878,0.015882,0.0015272
0.062744,1.9613,8.7868,5.5506,-0.03146,0.014966,0.0009163
0.055328,1.9613,8.6887,5.6682,-0.03207,0.014355,-0.0009163
0.051971,2.0594,8.7279,5.6094,-0.029932,0.011606,-0.0012217
0.052948,1.9221,8.7868,5.5898,-0.026267,0.011606,-0.0012217
0.045593,1.824,8.7868,5.7075,-0.014966,0.014661,0
0.042572,2.1575,8.7083,5.5702,-0.019548,0.018021,0.0018326
0.042694,2.0006,8.7868,5.6682,-0.023213,0.018021,0.0009163
0.031586,2.0594,8.7868,5.6682,-0.024435,0.017104,0.0036652
0.018402,1.824,8.7868,5.7467,-0.023518,0.018326,0.0030543
0.029083,2.0594,8.6887,5.6682,-0.019242,0.020159,0.0009163
0.026703,1.824,8.826,5.7467,-0.019548,0.020464,-0.0015272
0.024963,2.0006,8.7671,5.5898,-0.014966,0.019242,-0.0009163
0.022736,2.0202,8.7868,5.5898,-0.015882,0.012217,-0.0012217
0.028442,1.9221,8.826,5.6682,-0.010079,0.010079,0.0018326
0.032288,2.0006,8.826,5.6094,-0.0088575,0.011912,-0.002138
0.04541,1.9221,8.7868,5.5506,-0.012828,0.014661,-0.0012217
0.045227,2.1378,8.7868,5.7075,-0.017104,0.016493,0.0012217
0.041321,2.0006,8.7671,5.5898,-0.023824,0.017104,0.0027489
0.044983,2.079,8.6887,5.5898,-0.030238,0.016188,0.0009163
0.040985,2.0594,8.7868,5.6094,-0.027794,0.016188,-0.0024435
0.042236,2.079,8.6887,5.5898,-0.0088575,0.013134,-0.0036652
0.039337,1.9809,8.7868,5.5898,-0.014966,0.0088575,-0.0027489
0.026611,2.1378,8.7868,5.6486,-0.018937,0.0079412,-0.0042761
0.020538,2.0006,8.7671,5.5702,-0.020159,0.0067195,-0.0085521
0.02536,2.1378,8.826,5.6486,-0.02138,0.0067195,-0.010079
0.034698,2.0006,8.7868,5.5702,-0.022907,0.007025,-0.011912
0.04422,2.1182,8.6691,5.5702,-0.021686,0.0082467,-0.011301
0.043579,1.824,8.826,5.7075,-0.02138,0.009163,-0.0079412
0.031097,2.0594,8.7868,5.6682,-0.023213,0.009163,0.0094684
0.022858,1.8044,8.826,5.7467,-0.027489,0.010385,0.010385
0.0080261,1.9613,8.6887,5.6682,-0.030238,0.012523,-0.002138
0.015442,2.0594,8.7868,5.5702,-0.029627,0.014355,-0.002138
0.010986,1.9221,8.7868,5.5702,-0.023824,0.015272,-0.0024435
0.018951,1.8437,8.826,5.7467,-0.017104,0.014661,-0.00061087
0.0072327,2.1182,8.7671,5.6094,-0.01405,0.013439,0.0033598
0.0028076,1.8633,8.826,5.7467,-0.011912,0.012523,0.0064141
0.0080566,2.1575,8.6887,5.5898,-0.014355,0.014355,-0.002138
0.0081482,1.8437,8.7083,5.6682,-0.020159,0.016493,-0.0027489
0.017761,2.0006,8.826,5.5702,-0.024435,0.017104,0.0073304
0.011139,2.0006,8.8652,5.6094,-0.025045,0.017715,0.0058032
0.022675,2.0202,8.826,5.6682,-0.023518,0.018021,0.0039706
0.017273,1.8633,8.7279,5.7467,-0.022907,0.018631,0.0033598
0.010223,2.0202,8.7868,5.5898,-0.020769,0.016493,0.00061087
0.015106,2.1575,8.7279,5.5702,-0.017715,0.01405,-0.0018326
0.019257,1.9613,8.7868,5.5702,-0.019242,0.018021,0.002138
0.031403,1.9025,8.826,5.7075,-0.016493,0.017104,0.0015272
0.05069,2.1182,8.7868,5.6094,-0.01405,0.017104,0.0012217
0.055664,2.0006,8.8456,5.5898,-0.014966,0.018021,0.0033598
0.055817,2.0594,8.8456,5.6682,-0.016188,0.018021,0.0051924
0.048798,2.1182,8.826,5.6682,-0.019853,0.01741,0.0054978
0.053741,2.1182,8.7083,5.5898,-0.025656,0.017715,0.0061087
0.069122,1.9613,8.7671,5.5898,-0.026878,0.017104,0.0036652
0.066895,2.0006,8.7279,5.5898,-0.023518,0.016188,-0.00061087
0.067383,2.1378,8.6887,5.6486,-0.021075,0.012523,0.00061087
0.069885,2.0594,8.7671,5.5702,-0.021686,0.014355,0
0.067719,2.0202,8.7279,5.5702,-0.022602,0.015882,-0.0012217
0.070953,2.0006,8.7868,5.5702,-0.018937,0.017104,-0.0030543
0.072784,2.0006,8.7868,5.5898,-0.018631,0.018021,-0.0027489
0.073303,2.0006,8.7868,5.5702,-0.019242,0.019853,-0.00030543
0.065094,2.0006,8.7083,5.5702,-0.019853,0.019242,-0.00061087
0.061401,2.1575,8.7868,5.6094,-0.014966,0.018326,0.0009163
0.051758,2.0202,8.7083,5.6094,-0.012523,0.019548,-0.0012217
0.049683,2.0202,8.7671,5.5702,-0.010079,0.018021,0.0009163
0.053619,2.1575,8.7279,5.6094,-0.0079412,0.018021,0.0015272
0.05188,2.1575,8.7083,5.5898,-0.010385,0.018631,0.0012217
0.054016,2.0006,8.7868,5.6094,-0.013134,0.018326,0.0024435
0.042572,2.0594,8.7868,5.6682,-0.020159,0.017104,0.0030543
0.042938,2.1378,8.7279,5.6682,-0.017715,0.016799,0.0027489
0.030365,2.0594,8.826,5.5898,-0.016493,0.016188,-0.0058032
0.025024,1.8633,8.6887,5.6682,-0.012828,0.016799,-0.0082467
0.033997,1.9221,8.7083,5.5702,-0.0064141,0.014661,-0.0036652
0.02829,2.0006,8.7868,5.5702,-0.0033598,0.012828,-0.0048869
0.019867,2.0006,8.7868,5.6094,-0.0045815,0.013744,-0.0051924
0.017151,2.0006,8.8456,5.5702,-0.0067195,0.013134,-0.0045815
0.01355,1.9613,8.7671,5.5702,-0.014966,0.011301,-0.0030543
0.0112,1.9809,8.7868,5.6094,-0.018021,0.010996,-0.0030543
0.006958,1.9025,8.7868,5.6486,-0.028711,0.016493,-0.0030543
0.021545,1.8633,8.826,5.5702,-0.025962,0.016188,0
0.030914,2.0594,8.7083,5.5702,-0.018021,0.014355,0.002138
0.038422,2.1182,8.8456,5.7075,-0.0094684,0.014355,0.00061087
0.027008,2.0006,8.826,5.5898,-0.0036652,0.01405,-0.0018326
0.012299,2.0594,8.7868,5.5702,-0.0024435,0.012217,-0.0024435
0.019257,1.9809,8.8456,5.4917,-0.0064141,0.012523,-0.0015272
0.017792,2.0006,8.7868,5.6094,-0.012523,0.013744,-0.002138
0.027466,2.0006,8.826,5.5702,-0.021075,0.012523,0.0045815
0.017761,2.1378,8.7279,5.6682,-0.0281,0.011606,0.0027489
0.021606,2.0006,8.7083,5.6094,-0.029322,0.0097738,-0.00061087
0.0082703,2.0006,8.7868,5.5702,-0.023518,0.0094684,-0.0033598
0.0035706,2.0006,8.8064,5.5702,-0.014355,0.011301,-0.0051924
0.009613,2.0594,8.7868,5.6486,-0.0058032,0.011301,-0.0030543
0.013672,2.0006,8.7279,5.5898,-0.0018326,0.011606,0.0018326
0.015991,2.0202,8.7868,5.5898,-0.0061087,0.012828,0.0045815
0.016693,2.0202,8.7279,5.4917,-0.013134,0.015577,-0.0036652
0.02243,2.0202,8.8456,5.5702,-0.023518,0.016188,-0.0033598
0.024292,2.0006,8.8652,5.5702,-0.027794,0.016188,0
0.016479,2.0202,8.7868,5.5113,-0.025656,0.015882,-0.0030543
0.022797,2.0006,8.6887,5.5506,-0.018326,0.015272,-0.0058032
0.031403,1.9613,8.7868,5.5506,-0.0094684,0.015577,-0.0058032
0.03186,1.9809,8.8652,5.6682,-0.0045815,0.013134,-0.0033598
0.025269,1.824,8.8456,5.7467,-0.002138,0.0088575,-0.0018326
0.026428,1.9613,8.6887,5.6486,-0.0030543,0.0048869,-0.0058032
0.024292,1.8829,8.7279,5.4917,-0.0079412,0.0018326,-0.0036652
0.011261,2.0594,8.7279,5.4917,-0.01741,0.0058032,-0.0045815
0.015259,1.824,8.8456,5.6682,-0.026573,0.0088575,-0.0076358
0.015045,1.9809,8.8652,5.6094,-0.030543,0.0094684,-0.0079412
0.020935,2.079,8.7868,5.5702,-0.028711,0.009163,-0.0079412
0.012695,1.9025,8.7671,5.4525,-0.025045,0.010385,-0.0076358
0.0075989,1.9221,8.6299,5.7075,-0.019853,0.010079,-0.0076358
0.0078125,2.0594,8.826,5.6682,-0.018631,0.017715,0.0030543
0.0039368,2.0594,8.7868,5.5702,-0.021686,0.017715,0.0024435
0.03244,2.1182,8.826,5.6682,-0.025045,0.019242,0.0076358
0.041382,2.1378,8.7671,5.5702,-0.022602,0.019242,0.0082467
0.050201,2.1378,8.7868,5.5702,-0.015272,0.018326,0.0067195
0.04129,2.079,8.6887,5.5702,-0.0051924,0.017104,0.0030543
0.040802,1.9613,8.7868,5.4917,-0.020769,0.015272,-0.0009163
0.033905,2.1378,8.7868,5.5898,-0.020159,0.015577,0.00030543
0.04184,2.1182,8.826,5.7075,-0.0067195,0.016188,-0.011912
0.046295,1.9613,8.826,5.4917,-0.010385,0.015882,-0.0058032
0.042999,1.8633,8.7868,5.5113,-0.01741,0.01405,0.0018326
0.043762,1.8633,8.7868,5.5898,-0.025351,0.011606,0.00030543
0.023773,1.8633,8.7868,5.5898,-0.029322,0.012523,-0.0033598
0.025452,2.0006,8.8456,5.6094,-0.0281,0.011912,-0.0067195
0.024139,1.8044,8.7868,5.7075,-0.0015272,0.0097738,-0.011606
0.024384,2.1378,8.6887,5.5702,-0.0030543,0.010385,-0.013439
0.031708,1.9613,8.7868,5.4917,-0.016188,0.010996,0.0079412
0.031067,2.0006,8.7868,5.5702,-0.017715,0.0082467,0.0067195
0.030426,1.9809,8.826,5.5702,-0.018326,0.01069,-0.0024435
0.025085,1.9809,8.826,5.6682,-0.016188,0.014661,-0.0018326
0.016602,2.1575,8.7083,5.5702,-0.015577,0.015882,-0.0018326
0.016174,1.9613,8.826,5.5702,-0.01741,0.017715,0.002138
0.017029,2.0594,8.7868,5.5506,-0.02138,0.018631,0.0033598
0.017731,2.0006,8.8848,5.5898,-0.016188,0.019242,0.0054978
0.0044556,1.9809,8.8652,5.5898,-0.018631,0.018021,0.0054978
-0.0018616,1.8633,8.7671,5.6682,-0.022297,0.019242,0.0064141
-0.014862,2.0006,8.7868,5.5702,-0.018937,0.018937,0.0024435
-0.015869,2.0006,8.7868,5.6682,-0.017715,0.018937,0.0018326
-0.015045,2.0006,8.7868,5.5898,-0.017104,0.018937,0.002138
-0.014771,1.824,8.7868,5.7075,-0.014355,0.019242,0.0009163
-0.01413,1.9809,8.7868,5.5702,-0.013744,0.018631,0.0039706
-0.016907,1.9613,8.826,5.5702,-0.017715,0.017104,0.0042761
-0.02887,1.9221,8.7868,5.5702,-0.019242,0.014966,-0.0048869
-0.014343,1.7652,8.8456,5.6094,-0.011301,0.014966,-0.0027489
0.003418,2.1182,8.826,5.5702,-0.014661,0.015272,0.0042761
0.011871,2.079,8.7279,5.5702,-0.019548,0.013439,0.0048869
0.036041,1.9613,8.6887,5.6682,-0.022297,0.012217,0.0033598
0.040833,1.8437,8.7083,5.6486,-0.027794,0.012523,0.00030543
0.044922,1.9613,8.7279,5.5898,-0.027184,0.012523,-0.0030543
0.05249,2.0006,8.7868,5.5702,-0.021991,0.012217,-0.0048869
0.039978,1.824,8.8456,5.7075,-0.018326,0.013439,0.0036652
0.04425,1.9809,8.826,5.5898,-0.020464,0.016188,0.0067195
0.046051,1.9613,8.7868,5.5702,-0.018631,0.013744,-0.002138
0.049103,1.9221,8.7279,5.5506,-0.01741,0.011301,-0.0018326
0.036133,2.0006,8.8456,5.5898,-0.020159,0.010996,-0.0018326
0.04126,1.9221,8.7868,5.5702,-0.02138,0.011606,-0.0012217
0.033325,2.0006,8.8456,5.5702,-0.021686,0.014355,0.00030543
0.033112,1.9613,8.7868,5.4917,-0.022907,0.015577,0.002138
0.046753,1.8437,8.8652,5.6682,-0.015882,0.020159,0.0048869
0.057739,1.9221,8.8456,5.5702,-0.01069,0.022297,0.0079412
0.064362,1.9613,8.7868,5.6094,-0.0082467,0.019853,0.0033598
0.048218,1.9613,8.7868,5.5702,-0.0079412,0.017104,0.0018326
0.046082,1.8633,8.7868,5.5702,-0.0073304,0.017715,0.0018326
0.047272,2.0006,8.8456,5.5702,-0.009163,0.016493,0.00030543
0.037262,2.1378,8.8456,5.5702,-0.013134,0.014966,-0.00030543
0.037628,2.1182,8.7475,5.6094,-0.016188,0.014966,0.0018326
0.034393,1.9613,8.8652,5.6094,-0.018937,0.015882,0.0045815
0.030304,2.0006,8.8456,5.6094,-0.025045,0.016493,0.0036652
0.023285,2.0594,8.7083,5.5702,-0.026878,0.015882,0.0094684
0.026855,2.0006,8.8456,5.5702,-0.028405,0.016799,0.0094684
0.019135,2.1182,8.7868,5.7075,-0.030238,0.018021,0.010385
0.01535,2.1378,8.7868,5.7075,-0.031154,0.018326,0.0097738
0.0078735,2.079,8.8848,5.6682,-0.030543,0.017104,0.0073304
0.0066528,1.9613,8.6887,5.6094,-0.026267,0.015272,0.0058032
0.012054,2.1378,8.7279,5.5506,-0.0085521,0.018021,0.0030543
0.019531,1.9025,8.7868,5.5702,-0.010996,0.018021,0.0027489
0.035522,1.9221,8.7868,5.5702,-0.018326,0.015882,0.0042761
0.029053,1.9221,8.7671,5.5702,-0.024129,0.015882,0.0048869
0.041748,1.8633,8.8456,5.7075,-0.027794,0.017715,0.0064141
0.039398,1.9221,8.7671,5.5506,-0.030543,0.016188,0.0051924
0.038055,1.9809,8.826,5.5898,-0.013134,0.015577,0.0039706
0.040192,2.0006,8.8456,5.5506,-0.0088575,0.015272,0.0030543
0.039795,1.9221,8.8456,5.7075,-0.046426,0.01405,0.013134
0.036499,1.9221,8.7868,5.5506,-0.03146,0.014661,0.011606
0.03067,1.9221,8.7279,5.5898,-0.032681,0.013744,0.0015272
0.029877,2.0006,8.8652,5.5898,-0.028711,0.013134,0.0009163
0.023346,1.824,8.8456,5.6682,-0.025656,0.012217,0.0042761
0.027069,2.0006,8.8456,5.5506,-0.028405,0.011606,0.009163
0.036194,1.824,8.826,5.5702,-0.036346,0.011606,0.010079
0.025604,1.9221,8.8456,5.5702,-0.044899,0.013134,0.011912
0.02713,1.9221,8.7868,5.6486,-0.030849,0.0097738,0.00061087
0.018829,2.1575,8.6887,5.5702,-0.029627,0.011912,0.0030543
0.0085144,1.9613,8.6887,5.5702,-0.029932,0.0094684,-0.0058032
0.020416,1.9809,8.7868,5.5702,-0.0281,0.0082467,-0.0054978
0.008728,1.9221,8.7868,5.5898,-0.024129,0.0085521,-0.0079412
0.0049133,2.1182,8.7279,5.6094,-0.019242,0.0097738,-0.0094684
0.0028381,1.9221,8.7868,5.6682,-0.028711,0.011912,-0.0082467
0.0021973,2.0006,8.7868,5.5702,-0.03207,0.011912,-0.0039706
0.0013428,1.9221,8.8456,5.5702,-0.020769,0.011912,0.0058032
0.0012817,1.9221,8.826,5.5506,-0.027184,0.009163,0.0051924
-0.0057068,1.9221,8.8652,5.6094,-0.032681,0.010996,0.007025
-0.0046387,2.0594,8.6887,5.5702,-0.031765,0.014355,0.0088575
0.0068665,1.9221,8.7868,5.5702,-0.026878,0.016799,0.0088575
0.01236,2.1575,8.6887,5.5702,-0.020769,0.01741,0.0097738
0.011963,1.9221,8.826,5.5702,-0.012217,0.017715,0.0097738
0.0065918,2.1378,8.7279,5.5702,-0.012828,0.017715,0.0088575
-0.0054321,1.9613,8.7279,5.6486,0.0012217,0.018937,-0.007025
0.022064,1.9025,8.6887,5.7467,-0.0018326,0.018326,-0.0033598
0.038574,1.9809,8.6887,5.6682,-0.0030543,0.016493,-0.0094684
0.037445,2.0202,8.7868,5.5506,-0.0045815,0.018021,-0.01069
0.036133,1.9221,8.826,5.5506,-0.007025,0.018021,-0.01069
0.030029,1.8633,8.8456,5.6094,-0.0067195,0.017715,-0.010996
0.026215,2.0594,8.7279,5.7075,-0.0073304,0.018326,-0.010996
