0.17343,2.1575,-4.6287,7.4727,-0.035736,0.030238,-0.039401
0.19357,2.0006,-4.5111,7.4334,-0.044593,0.025045,-0.043066
0.21384,2.0006,-4.6091,7.61,-0.048258,0.018937,-0.031765
0.22247,2.1182,-4.6484,7.5315,-0.050702,0.015882,-0.033292
0.22552,1.9613,-4.8837,7.3942,-0.047953,0.014966,-0.034514
0.2261,1.9221,-4.6091,7.3158,-0.042455,0.015577,-0.040317
0.2334,1.8633,-4.3934,7.3354,-0.034208,0.013439,-0.04215
0.22513,1.9221,-4.4718,7.8061,-0.023213,0.011606,-0.040317
0.21616,1.9809,-4.5111,7.5511,-0.031765,-0.0079412,0.0027489
0.21942,1.9221,-4.4914,7.5315,0.0085521,0.0036652,0.0088575
0.23419,1.9809,-4.4522,7.3746,0.029932,0.0097738,-0.012523
0.23065,2.1182,-4.4914,7.3158,0.029627,0.010079,-0.011912
0.22897,2.1575,-4.8837,7.4727,0.013744,0.0033598,-0.011912
0.2327,2.1575,-5.021,7.4531,-0.0097738,-0.0061087,-0.0097738
0.23148,2.1182,-4.8053,7.4923,-0.036652,-0.018326,-0.0054978
0.23495,1.8437,-4.3934,7.61,-0.054367,-0.029322,-0.0033598
0.211,1.9613,-4.3542,7.4923,-0.059559,-0.034514,0.020769
0.20044,2.0202,-4.5111,7.61,-0.053451,-0.036346,0.0094684
0.18546,2.0202,-4.7856,7.5315,-0.036652,-0.025656,0.012217
0.17743,2.2359,-4.4914,7.4923,-0.017104,-0.020159,0.015272
0.1683,1.9809,-4.5111,7.4531,-0.018326,-0.021991,0.027184
0.14853,2.0594,-4.5503,7.4727,-0.022297,-0.007025,0.03207
0.14752,2.1378,-4.5699,7.4923,-0.040012,-0.014355,0.018631
0.12274,2.0006,-4.6287,7.61,-0.059254,-0.0067195,0.023213
0.1134,2.2359,-4.5111,7.3354,-0.067806,-0.0097738,-0.016188
0.098328,2.1575,-4.7072,7.3746,-0.075747,-0.010385,-0.021991
0.089325,2.2163,-4.6091,7.4531,-0.076664,0.00030543,0.013134
0.064606,2.2948,-4.6484,7.4334,-0.073609,0.0088575,0.0033598
0.052338,2.0594,-4.5699,7.3158,-0.065363,0.012828,-0.0030543
0.037537,2.0006,-4.6287,7.3746,-0.053756,0.017715,-0.0061087
0.02655,2.0594,-4.7856,7.2373,-0.042761,0.026267,-0.011912
0.015137,2.0594,-4.7856,7.4531,-0.033292,0.032681,-0.013744
0.00079346,2.1575,-4.6484,7.4531,-0.037568,-0.0058032,-0.0088575
0.0098877,1.7456,-4.8249,7.6296,-0.026878,-0.0015272,-0.0076358
0.014221,1.9809,-4.5699,7.4727,-0.017715,0.0067195,0.011606
0.0094604,2.1378,-4.7856,7.4923,-0.012217,0.013439,0.0076358
0.010468,2.3732,-4.7072,7.4531,-0.011912,0.016188,0.0058032
0.00079346,2.432,-4.7072,7.4531,-0.020464,0.014355,0.0039706
-0.0039368,2.1378,-4.6287,7.3746,-0.030543,0.010996,-0.0012217
-0.0050049,2.0202,-4.668,7.4334,-0.034819,0.0079412,-0.0061087
-0.014618,2.0006,-4.6484,7.4531,-0.039706,0.0073304,0.0097738
-0.022156,2.1575,-4.5699,7.4334,-0.033598,0.011301,0.0073304
-0.038239,2.0594,-4.4914,7.3746,0,0.01069,-0.0064141
-0.054596,2.2359,-4.668,7.4334,0.066279,0.020769,-0.0067195
-0.062378,2.2359,-4.766,7.3746,0.12614,0.045204,-0.0079412
-0.066498,2.3732,-4.9426,7.3158,0.13744,0.067195,-0.014966
-0.064484,2.2948,-4.5699,7.4531,0.10812,0.068111,-0.019242
-0.086731,2.2359,-4.6091,7.4923,0.059254,0.052229,-0.0039706
-0.09137,2.2359,-4.6091,7.4531,0.0058032,0.033598,0.0094684
-0.10046,2.0202,-4.668,7.3746,-0.036957,0.019548,0.0088575
-0.10745,2.0594,-4.7856,7.2765,-0.062308,0.0073304,-0.0015272
-0.097809,2.1575,-4.6287,7.3746,-0.071471,0.0009163,-0.0076358
-0.096588,2.0006,-4.5111,7.4727,-0.081245,-0.00030543,-0.010079
-0.075439,2.1575,-4.668,7.5903,-0.0956,-0.00061087,-0.010385
-0.061279,2.3732,-4.7072,7.6492,-0.10721,-0.0067195,-0.0054978
-0.049194,2.2948,-4.6091,7.4531,-0.1124,-0.012828,0.0051924
-0.051971,2.079,-4.5111,7.4531,-0.10507,-0.016188,0.018326
-0.06601,2.0006,-4.6287,7.3354,-0.092546,-0.01741,0.0094684
-0.074707,2.0202,-4.7072,7.2373,-0.083994,-0.016493,0.012828
-0.098206,2.0594,-4.6091,7.3158,-0.084605,-0.012828,0.020159
-0.12378,2.2948,-4.6287,7.3354,-0.095295,-0.011606,0.023518
-0.15903,2.2359,-4.7072,7.3354,-0.10751,-0.013744,0.021075
-0.17642,2.2948,-4.8837,7.3354,-0.11637,-0.015577,0.025351
-0.198,2.3732,-4.766,7.2373,-0.11209,-0.018937,0.025656
-0.21658,1.9809,-4.5111,7.4531,-0.050396,-0.011301,-0.011606
-0.22855,2.0006,-4.7072,7.4923,-0.063835,-0.018631,-0.018021
-0.22849,2.1575,-4.7072,7.4334,-0.065973,-0.020769,0.018326
-0.23477,2.0006,-4.7072,7.3746,-0.065973,-0.018326,0.016493
-0.23953,2.2163,-4.7856,7.3746,-0.062003,-0.010079,0.014966
-0.24969,1.9809,-4.766,7.4531,-0.058948,-0.0027489,0.015577
-0.25131,2.2359,-4.7856,7.2765,-0.062003,0.0064141,0.0097738
-0.26248,2.1378,-4.7072,7.3158,-0.062919,0.013439,-0.0024435
-0.25885,2.2948,-4.8445,7.3158,-0.025962,0.017104,-0.009163
-0.26938,2.5497,-4.8053,7.1589,-0.0051924,0.022297,-0.0030543
-0.26526,2.2948,-5.1975,7.3158,0.009163,0.025351,-0.029016
-0.27524,2.2948,-4.9229,7.4727,0.013439,0.028405,-0.037874
-0.2861,2.0594,-4.7856,7.4531,0.0076358,0.029322,-0.03543
-0.28143,2.1771,-4.7856,7.3158,-0.016188,0.025656,-0.027184
-0.29984,2.0006,-4.5699,7.3746,-0.059254,0.020464,-0.021686
-0.31741,2.1575,-4.6287,7.3746,-0.047953,0.011301,-0.016188
-0.30624,2.1182,-4.766,7.2961,-0.083078,-0.0027489,0.0015272
-0.29895,2.2751,-4.8837,7.3158,-0.086437,-0.010385,0.0039706
-0.30161,2.3732,-4.9229,7.2373,-0.079718,-0.017715,-0.0027489
-0.30609,2.5497,-4.7856,7.2373,-0.068722,-0.019242,0.0009163
-0.31122,2.1378,-4.8837,7.2961,-0.054978,-0.019242,0.007025
-0.31442,2.2163,-4.9426,7.2373,-0.039095,-0.018631,0.0067195
-0.31955,2.1378,-4.7856,7.3354,-0.046731,-0.011606,0.0073304
-0.33344,2.2163,-4.7856,7.3158,-0.069028,0,0.0033598
-0.35355,2.2359,-4.7856,7.3158,-0.014661,0.019548,0.0058032
-0.38034,2.2751,-4.7856,7.3158,0.0012217,0.012828,0.011606
-0.4126,2.3732,-4.766,7.2961,0.011301,0.025351,-0.020464
-0.42755,2.1575,-4.9622,7.3354,0.019853,0.02474,-0.019242
-0.44882,2.4713,-4.9426,7.2373,0.013744,0.02474,-0.027489
-0.46661,2.3732,-4.8837,7.2765,0.0061087,0.02138,-0.015882
-0.48767,2.2948,-4.7072,7.2961,-0.014661,0.0097738,-0.010996
-0.5166,2.2359,-4.7072,7.2765,-0.034514,0.00030543,-0.0051924
-0.54562,2.3732,-4.8249,7.3158,-0.027794,0.07025,-0.14203
-0.54559,2.1575,-5.1779,7.2961,0.067806,0.10873,-0.19487
-0.55435,2.1575,-4.9818,7.2765,0.15333,0.13225,0.0058032
-0.61279,2.1575,-7.2177,6.1782,0.24129,0.1463,-0.0027489
-0.72305,3.2754,-7.2177,6.3547,0.33811,0.16157,-0.037874
-0.8345,2.6282,-3.9423,8.4926,0.42119,0.18876,-0.080023
-0.94656,1.3337,-1.824,8.9437,0.49847,0.20525,-0.10079
-0.99997,1.6671,-1.3533,8.4926,0.61392,0.19395,-0.10965
-0.99997,1.8437,-1.9417,7.61,0.78802,0.1854,-0.70402
-0.99997,2.0006,-2.6674,7.61,0.96669,0.18357,-0.81642
-0.99997,1.3925,-4.1384,7.9042,1.0351,0.20647,-0.23091
-0.99997,2.0006,-6.6685,7.1785,0.67684,0.23396,-0.2474
-0.99997,3.0793,-7.2177,6.6489,0.1124,0.1854,-0.25809
-0.99997,2.4517,-5.8252,7.4334,-0.135,0.051007,-0.33201
-0.95227,1.9221,-4.1384,8.0218,-0.25076,0.022907,-0.53451
-0.89212,1.8437,-3.55,8.1787,-0.27397,0.069639,-0.6524
-0.83862,1.6083,-4.0796,7.8649,-0.21197,0.13439,-1.1851
-0.77512,2.0006,-4.9622,7.61,-0.087965,0.21289,-1.2339
-0.72845,2.0006,-5.4525,7.4531,0.07025,0.30513,-0.92577
-0.66693,1.7064,-5.2956,7.4727,0.21105,0.42425,-0.99266
-0.61548,1.7456,-5.4133,7.3746,0.29719,0.55161,-1.0403
-0.55612,2.2948,-5.4133,7.4531,0.32193,0.65912,-1.0895
-0.49707,2.0594,-5.8252,7.7669,0.27306,0.73518,-1.1255
-0.42163,2.1378,-6.0409,7.5511,0.16677,0.79626,-1.1506
-0.34793,2.0006,-5.4525,7.9434,0.35094,0.29596,-0.012217
-0.26648,1.5102,-5.5702,7.7473,0.25137,0.25381,0.0042761
-0.21609,2.4517,-5.3348,6.9235,0.068111,0.18662,0.023213
-0.1412,2.5497,-5.7663,6.5312,-0.13378,0.10934,0.027489
-0.063965,2.8635,-6.0409,6.1978,-0.27917,0.036041,0.024435
0.0023193,3.2754,-5.5113,5.9036,-0.33262,-0.0033598,0.011912
0.074219,3.3735,-4.5699,6.0605,-0.30635,-0.0009163,-0.015577
0.11682,3.4912,-4.0207,6.2174,-0.22083,0.029016,-0.029932
0.1503,3.1774,-4.158,6.492,-0.72754,0.19609,-0.57879
0.21329,3.5892,-4.8837,6.3547,-0.74495,0.24923,-0.58826
0.26895,3.8638,-5.1191,6.1782,-0.75533,0.30299,-0.52565
0.28787,3.5696,-5.0798,6.6489,-0.75381,0.34789,-0.51649
0.31378,3.6873,-4.7072,6.8254,-0.73487,0.38087,-0.5229
0.32928,3.2754,-4.158,7.2961,-0.70219,0.42822,-0.53878
0.33215,2.9224,-3.5108,7.9042,-0.71899,0.49786,-0.55711
0.35062,2.3732,-3.1381,8.8064,-0.71716,0.5791,-0.56902
0.38147,2.1182,-2.942,9.179,-0.62247,0.65699,-0.61575
0.41882,2.0594,-2.7459,8.7475,-0.54672,0.70097,-0.64904
0.46936,2.0006,-2.7459,8.1787,-0.47739,0.73365,-0.60109
0.54019,1.7456,-2.7459,8.2572,-0.46212,0.78496,-0.62125
0.59137,1.118,-2.1967,8.6299,-0.48839,0.83353,-0.63866
0.61981,0.35304,-1.5691,9.7282,-0.5339,0.85918,-0.63438
0.63834,0.17652,-1.3533,9.9832,-0.68081,0.81215,-0.61209
0.65262,0.17652,-1.6475,9.787,-0.66493,0.72571,-0.60231
0.63513,0.27459,-2.0594,9.2575,0.58551,0.90744,-0.84147
0.6145,0.56879,-2.0986,8.4141,0.41722,0.78313,-0.77549
0.57709,0.41188,-1.9809,7.8649,0.16616,0.63591,-1.1313
0.51825,0.17652,-2.2751,8.316,-0.1069,0.48442,-1.0895
0.47684,0.72569,-2.942,8.3749,-0.33506,0.34239,-1.051
0.41013,0.80415,-3.3146,7.7669,-0.478,0.22816,-1.0015
0.39194,0.80415,-3.295,7.3746,-0.53145,0.15272,-0.94806
0.36993,0.74531,-3.6677,7.2373,-0.52412,0.12034,-0.89797
0.3605,1.0395,-4.3345,7.0019,-0.48747,0.14661,-0.55528
0.37076,1.0395,-4.3934,6.8647,-0.44135,0.19823,-0.54184
0.37241,0.90221,-4.5699,7.0019,-0.42913,0.20739,-0.70738
0.39063,0.96105,-4.7072,7.1589,-0.48319,0.16738,-0.64263
0.41663,0.74531,-4.7268,7.6492,-0.57788,0.11606,-0.59682
0.42999,0.64724,-4.7072,8.4926,-0.66462,0.095906,-0.57635
0.44839,0.56879,-5.3544,8.8848,-0.71319,0.10843,-0.57269
0.47067,0.80415,-5.4329,9.0025,-0.72296,0.14325,-0.56627
0.49426,0.49033,-4.9818,9.0221,-0.31398,-0.0085521,-0.13317
0.52298,0.35304,-4.8837,8.9044,-0.25473,-0.068111,-0.13073
0.54333,0.74531,-4.4914,8.3945,-0.1066,-0.12614,-0.15485
0.55542,0.74531,-4.4914,8.0022,0.13653,-0.15149,-0.15516
0.56018,0.90221,-4.0796,7.9042,0.37599,-0.13134,-0.19181
0.56207,0.35304,-3.6285,7.9238,0.51374,-0.09896,-0.22388
0.55615,0.72569,-3.8442,7.6492,0.51313,-0.092546,-0.21105
0.56049,0.98067,-3.9815,7.1196,0.42791,-0.1237,-0.16616
0.57034,0.74531,-4.3542,7.0019,-0.69242,0.13347,-0.07086
0.58228,0.5884,-4.3345,7.1196,-0.78771,0.13103,-0.070555
0.58945,0.2942,-4.7856,7.8649,-0.84971,0.14661,-0.17715
0.60416,0.41188,-4.9426,7.8649,-0.91141,0.1631,-0.1686
0.6311,0.5884,-5.0995,7.2961,-0.98594,0.16493,-0.1463
0.65207,0.80415,-5.1191,7.1196,-1.0608,0.15485,-0.12248
0.66644,1.0199,-5.1191,7.1392,-1.1225,0.14142,-0.10049
0.68408,1.216,-5.3348,7.1589,-1.171,0.12523,-0.082467
0.69214,1.4318,-5.7075,6.747,-1.2052,0.11668,-0.065668
0.69159,1.6867,-5.7467,6.747,-1.2095,0.11729,-0.074526
0.69092,1.6475,-5.8644,6.3939,-1.197,0.11332,-0.068722
0.68997,1.6671,-6.0801,6.2959,-1.1823,0.10537,-0.054062
0.68134,1.4318,-6.1978,6.1193,-1.1503,0.096517,-0.043371
0.67126,1.1964,-6.5508,6.1193,-1.088,0.09163,-0.045204
0.65839,1.3925,-6.5508,5.8644,-1.011,0.089797,-0.051618
0.64758,1.216,-6.3743,5.9036,-0.93249,0.091935,-0.058948
0.64133,0.90221,-6.237,6.1782,-0.76236,0.091324,-0.14875
0.63913,1.0787,-6.5312,6.139,-0.64171,0.081245,-0.15791
0.63766,1.2945,-7.3942,6.1978,-0.52993,0.072082,-0.083078
0.63763,1.6867,-7.0804,5.9036,-0.4331,0.073304,-0.10354
0.64838,1.6867,-6.3743,6.4528,-0.36469,0.079107,-0.13592
0.68094,1.4318,-6.0409,6.8254,-0.32895,0.080329,-0.1463
0.72049,1.6867,-6.6685,7.0216,-0.3204,0.068417,-0.14172
0.7623,2.3732,-7.0019,7.5903,-0.33017,0.034819,-0.14233
0.79324,2.0006,-7.2177,7.5315,-0.24496,-0.45387,0.020159
0.83762,2.2948,-6.3743,6.845,0.0956,-0.3882,0.014355
0.88559,2.4909,-6.1978,6.4332,0.060476,-0.32956,0.019242
0.91144,2.9028,-6.7666,5.8055,0.0036652,-0.27367,0.030238
0.91968,2.9616,-7.3158,5.7467,-0.06017,-0.22541,0.026878
0.92514,3.2558,-6.0213,6.2959,-0.12431,-0.18021,0.02138
0.94,2.8439,-4.5111,6.9235,-0.1854,-0.13897,0.03146
0.93646,2.5497,-3.8638,7.2765,-0.22907,-0.096822,0.048564
0.90259,2.7851,-3.8442,7.1392,0.82009,-0.86346,0.37751
0.86072,3.2754,-4.3345,6.9235,0.87201,-0.88178,0.39218
0.79547,3.55,-4.5111,6.8647,0.93798,-0.89889,0.1576
0.73157,3.8442,-4.0796,6.8254,0.99449,-0.89736,0.17104
0.65799,4.0403,-3.6677,6.4528,1.0091,-0.8772,0.20525
0.5686,3.9423,-4.0403,6.4332,0.98074,-0.84208,0.25015
0.47348,3.7461,-4.7856,6.9235,0.91538,-0.79993,0.2923
0.37476,4.0403,-5.4329,7.4727,0.81153,-0.76205,0.33353
0.2572,4.3738,-5.4133,7.5511,0.41447,-0.74892,0.17562
0.14249,4.4718,-4.8053,7.0019,0.31673,-0.78252,0.17715
-0.013062,4.4326,-3.9423,6.2959,0.30452,-0.8323,0.3485
-0.15808,4.0796,-3.7658,6.1782,0.37507,-0.86101,0.26237
-0.28146,3.4912,-5.276,6.8647,0.48319,-0.86957,0.17898
-0.39075,3.3735,-6.0801,6.8254,0.55619,-0.84666,0.14172
-0.4581,3.5696,-5.884,6.3547,0.68234,-0.79535,0.14691
-0.53162,3.5304,-5.2564,6.1193,0.54306,-0.74495,0.1628
-0.56717,3.3146,-4.9622,6.2763,0.31032,-0.71807,0.0064141
-0.58563,3.4127,-5.1387,6.2959,0.1741,-0.71746,0.022297
-0.60486,3.4912,-5.5702,5.9821,0.085216,-0.73059,0.16493
-0.60025,3.6285,-5.1191,5.4917,0.055894,-0.74464,0.13347
-0.61499,3.4912,-4.668,5.4133,0.073915,-0.74251,0.090103
-0.61539,3.7069,-4.3934,5.4329,0.097128,-0.70036,0.04612
-0.63254,3.805,-4.2953,5.5506,0.55131,-0.62583,0.0012217
-0.64426,3.9619,-4.3345,5.7271,0.4609,-0.53573,-0.013439
-0.65775,4.1776,-4.3345,5.8055,1.438,0.78863,-0.021991
-0.65646,4.1776,-4.5699,5.9036,1.2581,0.66981,-0.053145
-0.65045,4.668,-4.1384,5.9821,0.93432,0.46151,0.31979
-0.65298,5.1191,-4.0796,6.1978,0.51099,0.17623,0.29322
-0.66827,5.6682,-4.1776,6.2174,0.11729,-0.1295,0.22785
-0.70694,5.9821,-4.3542,6.2174,-0.097738,-0.35919,0.15699
-0.74371,5.7663,-4.2953,6.6489,-0.1628,-0.50977,0.098655
-0.78967,6.0801,-3.8246,7.1196,-0.088881,-0.60018,0.046731
-0.86417,6.1586,-2.942,7.2177,0.1573,-0.64232,0.39248
-0.93509,5.8252,-2.5105,7.0019,0.15302,-0.67989,0.38576
-0.99945,5.4329,-2.5105,7.1589,0.057116,-0.73059,-0.013439
-0.99997,4.9426,-2.6086,7.1785,-0.14478,-0.75839,0.044899
-0.99997,4.5307,-3.197,8.0022,-0.45815,-0.74923,0.093768
-0.99997,3.7265,-3.6677,10.003,-0.81337,-0.70402,0.16677
-0.99997,2.3732,-4.2561,11.552,-1.0974,-0.66035,0.25229
-0.99997,1.0395,-4.4914,11.415,-1.2284,-0.64385,0.33048
-0.99997,1.7064,-4.8837,9.5713,-1.201,-0.56841,0.25168
-0.99997,2.4517,-4.9229,8.7083,-0.99021,-0.37477,0.23885
-0.99997,2.9616,-4.0403,9.1202,-0.58124,-0.051618,0.30482
-0.99997,2.9224,-2.589,8.3945,-0.025962,0.36102,0.24374
-0.99997,3.1185,-1.0983,6.747,0.62064,0.8039,0.25595
-0.99997,3.3146,0.19613,5.0995,1.2883,1.2532,0.30207
-0.99997,3.4127,-1.0199,3.2362,1.8876,1.7028,0.31429
-0.99997,3.8638,-2.9028,2.7459,2.357,2.1163,0.27733
-0.99997,4.1972,-4.0207,3.4127,2.5934,2.4624,-0.18784
-0.98221,4.1776,-4.4914,3.2362,2.5833,2.6786,-0.16188
-0.84546,4.5699,-3.8834,3.295,2.4483,2.7394,0.16218
-0.75073,3.2362,-4.6484,6.0409,2.2975,2.7077,0.016799
-0.75516,1.824,-4.9426,8.8064,2.1481,2.6741,-0.10568
-0.85971,1.2945,-2.4124,9.8459,1.9539,2.6096,-0.1405
-0.99265,-0.68647,-1.4318,7.2961,1.8302,2.4526,-0.11332
-0.99997,-3.0204,-2.2751,11.944,1.6444,2.3198,-0.13408
-0.99997,0.13729,-1.118,14.063,-0.88026,-0.20892,0.1295
-0.99997,1.3925,-0.72569,17.279,-0.76725,-0.16249,0.17654
-0.99997,1.8044,-0.72569,15.946,-0.64782,-0.10293,-0.21228
-0.99997,1.3337,-0.39227,12.631,-0.49999,-0.023518,-0.17379
-0.96548,2.1182,-1.1768,11.552,-0.3598,0.089797,-0.13683
-0.80222,3.3931,-1.0003,10.101,-0.29199,0.18815,-0.08491
-0.59808,2.6086,0.05884,8.9044,-0.28466,0.25962,-0.0045815
-0.45493,2.0006,-0.078453,7.6884,-0.32895,0.29291,0.070555
-0.37564,1.1964,-1.0199,6.747,-0.55344,0.2813,0.72846
-0.3522,1.0199,-1.6867,6.3939,-0.29444,0.23763,0.91172
-0.36798,1.1964,-2.6086,6.5508,0.18051,0.21502,0.19792
-0.43018,0.56879,-3.3931,7.7865,0.76205,0.28955,0.17868
-0.52225,0.74531,-2.6086,8.4337,1.1765,0.5171,0.22571
-0.61157,0.45111,-1.5691,9.0613,0.88698,0.91172,0.36469
-0.69882,0.74531,-1.2553,9.1006,-0.42547,1.3512,0.48686
-0.77969,1.3729,-1.7848,8.8064,-0.5455,1.6451,0.58277
-0.80215,2.0006,-2.5105,8.8064,-1.8952,1.2199,0.043371
-0.76581,3.0008,-2.6282,8.5514,-1.6335,0.13347,0.080023
-0.70065,3.5696,-2.1967,7.8649,-0.9389,-0.65515,0.83322
-0.61667,3.7461,-0.8826,7.3746,-0.13225,-0.83689,0.34819
-0.54379,3.805,-0.15691,7.5511,0.47983,-0.63652,-0.23824
-0.45749,2.9028,-0.86299,9.6694,0.63438,-0.37568,-0.54275
-0.39148,3.0008,-2.4517,9.9636,-0.12889,-0.18479,-0.42364
-0.3382,4.5111,-2.8832,5.1975,-1.3399,-0.098655,-0.12706
-0.33826,4.4914,-1.8829,5.0995,0.57024,0.3149,-0.18082
-0.41891,-3.8246,0.52956,13.729,0.55375,0.354,-0.21533
-0.51047,-6.4135,-3.4519,11.729,0.36713,0.30971,-0.027489
-0.56131,2.2948,-6.1978,10.611,0.074526,0.21319,-0.025656
-0.54831,2.0594,-5.8252,8.7083,-0.28283,0.10263,-0.049786
-0.47235,1.216,-2.5301,9.4732,-0.62583,-0.011301,-0.072998
-0.39206,0.74531,-0.21575,10.199,-0.84758,-0.11576,-0.093157
-0.31628,1.4318,-1.2553,8.9437,-0.92607,-0.19303,-0.13195
-0.25705,2.7459,-3.4127,7.4334,-0.29566,0.062614,-0.1967
-0.15234,3.4323,-4.8837,6.9235,-0.28955,0.047953,-0.16646
-0.029785,3.4323,-3.2362,7.7865,-0.25137,0.045815,-0.21625
0.059814,2.687,-2.0594,8.7279,-0.19578,0.054367,-0.2138
0.09552,2.1575,-1.8829,8.8064,-0.12523,0.071471,-0.21777
0.09079,2.2359,-2.7655,8.4926,-0.033598,0.09499,-0.22694
0.071686,1.7456,-3.0793,8.218,0.050396,0.13103,-0.22388
0.044708,1.7064,-3.0401,7.9434,0.10476,0.16249,-0.21075
0.017334,1.3925,-3.0008,8.2376,0.06017,0.17959,-0.056505
-0.013184,1.3533,-3.7658,8.4141,-0.07025,0.1631,-0.057421
-0.023956,1.7652,-4.5111,8.1199,-0.19181,0.10721,-0.13103
-0.035522,2.1575,-3.8834,8.316,-0.26237,0.055283,-0.12614
-0.04248,1.8044,-2.8243,8.8848,-0.28497,0.03543,-0.12523
-0.050598,1.5495,-2.5301,8.8848,-0.27825,0.040317,-0.10446
-0.067078,1.9221,-3.2166,8.2376,-0.2303,0.044593,-0.076053
-0.075775,2.1771,-4.3934,8.0022,-0.16432,0.050396,-0.060781
-0.050995,2.432,-4.2561,8.0807,0.20342,0.061087,-0.11729
-0.035797,1.824,-3.4519,8.2572,0.33445,0.11759,-0.16066
-0.0075989,1.824,-2.9224,8.4141,0.30635,0.11698,0.014355
0.015259,1.6867,-2.687,8.2768,0.15333,0.062003,0.044593
0.029877,2.0006,-3.0989,8.2572,-0.091019,-0.017104,0.041539
0.042511,1.9613,-3.6285,8.0611,-0.32987,-0.083689,0.014966
0.044373,1.824,-3.8638,7.8649,-0.48655,-0.12065,-0.040012
0.059387,1.9613,-3.5304,7.9434,-0.52443,-0.12798,-0.083994
0.066467,1.7456,-2.6086,8.4141,-0.45204,-0.083078,-0.20739
0.063141,1.5298,-2.6282,8.5514,-0.32437,0.0042761,-0.21716
0.080322,1.9221,-3.1381,8.2572,-0.19548,0.08491,-0.19395
0.085114,1.6671,-3.4519,8.2768,-0.088881,0.14569,-0.19823
0.094147,2.0006,-3.8442,8.316,-0.055283,0.17135,-0.19334
0.10208,2.1182,-3.5108,8.4926,-0.097738,0.15577,-0.18143
0.11075,1.9809,-3.4519,8.5514,-0.17349,0.12523,-0.17287
0.11008,2.1378,-3.295,8.6887,-0.2419,0.091019,-0.18601
0.0867,2.0594,-3.1381,8.4926,-0.17685,-0.021075,0.02138
0.054108,2.1771,-3.3931,8.2572,-0.21625,-0.051007,0.019853
0.010651,2.432,-3.6677,8.0611,-0.19792,-0.072388,0.033598
-0.06189,2.4713,-3.5304,8.0807,-0.14813,-0.092852,0.039095
-0.13724,2.1575,-2.9028,8.4141,-0.085827,-0.10079,0.043066
-0.2077,2.1771,-2.5105,8.4926,-0.028405,-0.08827,0.029627
-0.26794,2.2359,-2.5105,8.6299,-0.0039706,-0.065668,0.019853
-0.31879,1.9809,-2.9028,8.4926,-0.10049,-0.044899,0.020159
-0.35419,1.9221,-3.2558,8.4926,-0.0076358,-0.030543,-0.043066
-0.38022,1.9025,-3.3146,8.6299,-0.025351,-0.034819,-0.042761
-0.39307,1.9221,-2.8243,8.7083,-0.053756,-0.053451,0.018631
-0.39844,1.8437,-2.9224,8.7475,-0.067806,-0.069944,0.018631
-0.41162,2.0006,-3.3735,8.4729,-0.037263,-0.089492,0.018326
-0.41559,1.7456,-3.6677,8.2572,0.020464,-0.11179,0.010385
-0.41953,2.0594,-3.3931,8.1787,0.0042761,-0.1179,-0.0088575
-0.41815,1.824,-3.1381,8.2376,0.0067195,-0.09499,-0.03146
-0.40234,1.3533,-2.6086,8.4926,0.048869,-0.0042761,-0.075136
-0.38394,1.824,-2.3536,8.4141,0.12187,0.024129,-0.067806
-0.35434,1.7064,-2.432,8.3357,0.15608,0.045509,-0.039401
-0.31268,1.7064,-2.9028,8.4337,0.14875,0.058338,-0.043371
-0.28015,1.6867,-3.1577,8.3749,0.10812,0.050702,-0.050091
-0.24557,1.5298,-2.942,8.6299,0.045204,0.034208,-0.058643
-0.21719,1.6083,-2.5105,8.7868,-0.025962,0.018631,-0.069333
-0.19855,1.6671,-2.4124,8.7083,-0.093768,0.0058032,-0.074831
-0.16861,1.8633,-2.6282,8.5514,-0.096517,-0.0015272,0.020464
-0.15598,2.0202,-3.0008,8.4141,0.007025,-0.012217,0.034514
-0.13675,2.2948,-3.0989,8.4337,0.11332,-0.012217,-0.061087
-0.11121,2.3732,-3.3931,8.4926,0.16768,0.0094684,-0.063225
-0.10083,2.1378,-3.0008,8.5514,0.15944,0.036957,-0.069333
-0.075287,2.1378,-2.8243,8.5906,0.094684,0.047342,-0.058032
-0.068817,2.1575,-3.0008,8.4926,-0.14203,0.039706,-0.027489
-0.054535,2.2948,-3.0989,8.4141,-0.14844,0.017104,-0.0015272
-0.052612,1.9809,-2.7459,8.4926,-0.049175,0.025962,-0.013744
-0.026154,1.6867,-2.8243,8.7475,-0.037568,0.025045,-0.014355
-0.0068665,2.1575,-2.7459,8.4926,-0.026878,0.029322,0.0076358
0.0093994,2.2751,-2.7459,8.4141,-0.026267,0.033292,0.013134
0.019958,2.1575,-2.3144,8.7083,-0.031765,0.033292,0.012523
0.0088196,1.9025,-2.2948,8.7083,-0.021075,0.03146,0.0079412
0.016968,1.824,-2.6086,8.8064,0.007025,0.039706,0.0012217
0.0088806,2.0594,-2.8243,8.4926,0.033598,0.058032,-0.0076358
0.01712,2.0594,-2.7851,8.6299,0.019548,0.04215,0.011912
0.020447,2.0202,-3.0008,8.5514,0.015882,0.041539,0.0036652
0.023438,2.0202,-2.942,8.4337,0.0033598,0.032681,-0.014966
0.013,2.1575,-2.7851,8.7868,-0.018021,0.021686,-0.0045815
0.013092,2.0594,-2.8243,8.6299,-0.041233,0.011301,0.0018326
0.017365,2.0006,-2.7851,8.6887,-0.046426,0.0079412,0
0.016785,1.9221,-2.7262,8.7083,-0.041539,0.010385,-0.0030543
0.021484,2.0006,-2.7851,8.4729,-0.040012,0.0027489,0.0045815
0.019775,1.9613,-2.7851,8.316,-0.038179,-0.01069,-0.013439
0.020447,1.9221,-2.7851,8.4926,-0.022297,-0.011912,-0.016188
0.021362,2.0202,-2.942,8.3357,0.0048869,0.00061087,-0.0054978
0.0091553,2.1575,-2.7459,8.4337,0.030543,0.017715,-0.0061087
0.024719,1.824,-2.6674,8.5906,0.035125,0.029016,-0.0015272
0.014618,1.824,-2.6282,8.5318,0.018021,0.03146,0.0027489
0.0093384,2.1182,-2.8243,8.5514,-0.0033598,0.029627,0.0012217
0.0013428,2.1771,-2.7459,8.5514,-0.020159,0.031765,-0.0048869
0.0044556,2.1182,-2.7459,8.7475,-0.025656,0.036041,0.0073304
0.0018616,1.9221,-2.6086,8.8064,-0.010385,0.043677,0.0067195
-0.0083618,2.1182,-2.9028,8.6299,0.014661,0.051007,-0.013134
-0.0092163,1.9809,-2.8832,8.4141,0.040623,0.062003,-0.010385
-0.004364,2.0202,-2.8243,8.5318,0.043066,0.069028,-0.0018326
-0.011047,2.2948,-3.0597,8.4141,0.018937,0.064752,0.010996
0.0012207,2.2359,-2.7851,8.3945,-0.018326,0.05284,0.011912
0.0081482,2.2163,-2.8439,8.3749,-0.048258,0.036957,0.007025
0.017914,1.9221,-2.8243,8.4141,-0.041539,0.050702,0.013439
0.040863,2.0594,-2.7655,8.6887,-0.033292,0.047953,0.015272
0.0784,1.9221,-2.7459,8.7279,0.018021,0.060781,-0.025351
0.10672,1.8044,-3.0008,8.8652,0.089797,0.085521,-0.024435
0.12128,2.1378,-3.0793,8.5514,0.14111,0.10079,-0.01405
0.14771,2.0594,-2.7262,8.6299,0.15394,0.10446,0.00030543
0.142,1.7456,-2.432,8.5318,0.11698,0.10049,0.0094684
0.16135,1.9221,-2.5105,8.5514,0.047953,0.082161,0.013744
0.17996,1.8437,-2.9028,8.4141,-0.059865,0.058032,0.0015272
0.19498,2.0594,-3.0793,8.3749,-0.054672,0.039095,0.0067195
0.19888,2.0006,-2.7262,8.5514,-0.022907,0.029322,0.025962
0.19113,1.6867,-2.5693,8.7083,0.030543,0.033292,0.026573
0.19421,2.0006,-2.9028,8.5514,0.078802,0.048564,0.0061087
0.19806,1.9613,-2.9224,8.6299,0.092241,0.071471,-0.014661
0.20374,1.824,-2.6086,8.7475,-0.010385,0.088575,-0.019548
0.21927,1.824,-2.3144,8.7868,-0.043371,0.090408,-0.0094684
0.21622,1.6867,-2.3732,8.5514,-0.018326,0.068111,0.010385
0.20944,2.0006,-2.5105,8.6299,-0.040317,0.024129,0.0094684
0.21777,1.7456,-2.942,8.7083,-0.040928,-0.012828,0.00061087
0.22177,1.824,-2.8243,8.7083,-0.025351,-0.031765,-0.009163
0.23569,1.4906,-2.5693,9.0417,-0.011912,-0.036041,-0.0082467
0.24927,1.216,-2.5301,8.8848,-0.0054978,-0.03146,-0.0076358
0.25967,1.6671,-2.7459,8.6299,0.065668,-0.02474,-0.0061087
0.26276,1.824,-2.7459,8.6495,0.020464,-0.018937,0.0061087
0.26657,1.7456,-2.6086,8.7083,-0.047342,-0.023824,-0.0097738
0.2648,1.824,-2.8243,8.6299,-0.043677,-0.034819,0.0024435
0.27261,1.7064,-2.8832,8.6299,-0.032376,-0.030849,0.0033598
0.2662,1.8437,-2.9224,8.4337,-0.017104,-0.022907,-0.012217
0.26373,1.7456,-2.687,8.3749,-0.0058032,-0.016493,-0.017104
0.246,1.5298,-2.6086,8.316,-0.010079,-0.0024435,-0.020769
0.2334,1.5298,-2.6086,8.6299,-0.013439,0.013134,-0.025351
0.22107,1.9613,-2.9224,8.4926,-0.036957,0.019242,-0.020464
0.21027,1.8044,-2.7459,8.3749,-0.66126,-0.54764,0.002138
0.20578,1.6083,-2.7851,8.316,-0.82711,-0.58521,-0.0058032
0.20395,1.6867,-2.589,8.2572,-0.75686,-0.55039,-0.10996
0.1983,1.5298,-2.8243,8.4926,-0.49052,-0.44654,-0.12553
0.1908,1.5887,-2.8832,8.7475,-0.1628,-0.30513,-0.12737
0.18451,1.7456,-2.7851,8.9437,0.075442,-0.17013,-0.10018
0.18311,1.5102,-2.2751,9.1202,0.20036,-0.074526,-0.058643
0.18164,1.824,-1.8829,9.3163,0.22113,-0.024435,-0.02138
0.19031,1.5887,-2.3732,9.9047,0.13011,-0.0097738,0.080023
0.21497,2.0594,-2.4713,9.7282,0.064752,-0.011301,0.1069
0.24002,2.0006,-2.2751,7.5903,-0.0076358,-0.010079,-0.016493
0.2453,0.80415,-3.3146,8.4141,-0.10049,-0.0073304,-0.016493
0.26758,1.0395,-3.0008,10.748,-0.197,-0.0073304,-0.0067195
0.28519,1.7652,-1.5691,11.199,-0.27367,-0.013439,0.014355
0.2854,1.6867,-0.92183,9.7478,-0.3091,-0.012523,0.03879
0.28799,1.824,-1.5298,7.9434,-0.32651,0.013744,0.058032
0.28375,2.2751,-2.6282,7.2765,-0.34422,0.050091,0.096211
0.29633,2.4909,-2.9028,7.61,-0.31612,0.065973,0.092241
0.31882,2.2751,-2.5301,7.7865,-0.23885,0.067195,0.12553
0.33563,2.2751,-2.1967,8.5318,-0.14905,0.073609,0.13042
0.3537,2.0202,-1.9809,8.7083,-0.071777,0.088881,0.11423
0.35678,2.0986,-1.6475,8.4141,-0.014966,0.10018,0.094073
0.35278,2.0006,-1.5102,8.4141,0.014355,0.099571,0.090408
0.34729,1.9809,-1.6671,8.218,0.015882,0.085827,0.093768
0.34155,2.0594,-2.432,7.963,0.013134,0.063225,0.069028
0.33084,1.9809,-2.9028,8.4141,-0.011912,0.044899,0.053145
0.32333,1.9613,-3.1381,9.0025,-0.058643,0.026878,0.029322
0.30502,2.1182,-3.0793,9.0221,-0.146,-0.00061087,0.0088575
0.27258,1.9809,-2.7655,9.1202,-0.2306,-0.044288,-0.018021
0.25754,1.9221,-2.6086,9.0613,-0.24832,-0.082772,-0.031154
0.21729,1.8633,-2.9028,8.7083,-0.17135,-0.090713,-0.017715
0.19119,2.1575,-3.3146,8.6495,-0.020769,-0.061697,0.078496
0.17249,2.2948,-3.2362,8.9437,0.22174,0.10171,0.0045815
0.15259,2.0594,-2.7655,9.2575,0.011606,0.045815,0.0088575
0.14273,2.1575,-2.6282,9.0613,-0.20922,-0.030543,-0.13011
0.12506,2.1378,-2.8832,8.4926,-0.42364,-0.10324,-0.12187
0.10315,2.1575,-2.5693,8.3945,-0.60415,-0.15791,-0.087659
0.062164,1.8044,-2.0594,8.8652,-0.73915,-0.20006,-0.050396
0.036194,1.6671,-2.0594,8.9633,0.41875,-0.20036,-0.032376
0.0091858,1.9221,-2.589,8.3945,0.37935,-0.18998,-0.02138
-0.041748,2.0202,-3.0008,8.1199,-0.51893,-0.21441,-0.031154
-0.078644,1.9613,-2.432,8.5318,-0.17226,-0.21655,-0.043982
-0.10635,1.7064,-1.8437,8.8652,0.15333,-0.14203,-0.049786
-0.12726,2.0006,-1.7456,8.6299,0.29505,0.0067195,-0.12767
-0.1499,2.2948,-1.9809,8.0611,0.24832,0.15699,-0.15638
-0.1781,1.9613,-2.1182,8.0807,0.099876,0.23579,-0.10049
-0.20047,2.0006,-2.4124,8.5318,-0.81795,0.22694,-0.045509
-0.21832,2.1378,-2.6086,8.3749,-0.74862,0.16218,-0.029627
-0.21237,2.6086,-2.8243,7.8649,-0.22602,0.087965,0.03207
-0.18921,2.0006,-2.7459,9.787,-0.21716,0.037263,0.036346
-0.14825,2.4517,-2.2751,10.454,-0.17013,0.015882,-0.05284
-0.10178,2.7655,-1.0591,10.375,-0.12828,0.030238,-0.051007
-0.051666,2.3732,-0.39227,9.3359,-0.11729,0.068722,-0.04612
0.014435,2.2948,-0.43149,8.316,-0.13561,0.10385,-0.023213
0.074615,1.824,-1.1768,7.6884,-0.060476,0.11912,0.0067195
0.14874,2.1182,-3.0793,7.61,-0.17471,0.1069,0.022907
0.20654,2.4713,-3.0989,7.9434,0.14539,0.079412,-0.085216
0.25345,2.2751,-2.3732,8.9437,0.15088,0.09896,-0.1179
0.28448,2.0006,-1.824,9.5713,0.16829,0.11637,0.011301
0.29477,2.1575,-1.9809,9.434,0.20983,0.14508,-0.019853
0.31375,2.589,-2.2555,9.0417,0.29016,0.19334,-0.051313
0.30365,2.3732,-2.1575,9.1202,0.35125,0.23274,-0.064141
0.30017,1.8044,-1.8829,9.0613,0.36591,0.21319,-0.061392
0.28192,1.118,-1.9809,9.0417,0.37171,0.15241,-0.060781
0.27554,1.216,-2.2751,9.3359,-0.0027489,0.012217,-0.085216
0.28564,1.3925,-2.432,9.6694,0.036041,0.055589,-0.073304
0.30496,1.8044,-1.9809,9.2183,0.064141,0.099876,-0.1066
0.30023,2.2948,-1.9613,8.7083,0.066584,0.14691,-0.1011
0.28375,2.5497,-1.6279,8.0807,0.016799,0.17471,-0.098349
0.2851,2.6282,-1.9809,7.9434,-0.035736,0.16188,-0.086132
0.26526,2.9224,-2.6674,8.1787,-0.023213,0.1295,-0.077885
0.24799,3.0008,-2.9028,8.4337,0.058643,0.10415,-0.087659
0.25174,2.9812,-3.0008,8.5514,0.15638,0.091935,-0.065057
0.23621,2.589,-3.2362,8.7083,0.2025,0.086743,-0.099266
0.22311,2.1771,-3.2558,8.2376,0.17196,0.060476,-0.050091
0.21393,2.1575,-3.0989,8.4141,0.10507,0.0054978,-0.013134
0.17847,1.824,-2.4517,9.1594,0.059865,-0.049786,0.010079
0.15106,1.9613,-2.2751,9.2575,0.061087,-0.064446,0.0039706
0.13281,2.1771,-2.432,8.8456,0.082772,-0.029322,-0.023213
0.098358,2.1575,-2.6086,8.8064,0.12614,0.024435,-0.045204
0.07193,2.2948,-2.6086,8.7083,0.11576,0.072998,-0.044899
0.036255,2.0594,-2.432,8.8064,0.044593,0.015882,-0.049175
0.011292,1.8044,-2.0986,9.0025,-0.057421,-0.041539,-0.054367
-0.0032043,1.9613,-2.0398,8.8064,-0.15058,-0.079107,-0.046731
-0.040344,2.5301,-2.1967,8.7475,-0.20617,-0.092546,-0.051007
-0.053345,2.7851,-2.3536,8.4141,-0.21655,-0.090713,-0.058643
-0.063873,3.0989,-2.5105,8.2768,-0.18326,-0.076358,-0.059865
-0.072418,3.0597,-2.432,8.5318,-0.12034,-0.048869,-0.049175
-0.076843,2.1575,-2.8243,9.1006,-0.0036652,-0.016799,-0.086132
-0.070099,1.7064,-3.2362,9.0417,0.032987,0.0094684,-0.10232
-0.07373,1.3533,-2.6086,9.1006,0.044288,0.025351,-0.043371
-0.078644,1.2945,-1.9417,9.1594,0.03879,0.029932,-0.038485
-0.084442,2.0594,-1.5887,9.0417,0.013439,0.023213,-0.036957
-0.10074,2.0594,-1.9809,8.5906,-0.029322,0.0039706,-0.041233
-0.10248,2.9028,-1.824,7.61,-0.053756,-0.018021,-0.050396
-0.10263,3.1774,-1.8829,7.5511,-0.041233,-0.018021,-0.065363
-0.08609,3.55,-1.824,7.3746,0.71807,-0.094073,0.12553
-0.05719,3.0597,-1.2553,7.9042,0.82314,0.097738,0.0067195
-0.0014648,2.0594,-1.6671,8.6299,0.7871,0.24343,0.10476
0.048767,2.1378,-2.5693,8.9044,0.89614,0.36133,0.21655
0.10049,1.9221,-2.8243,8.4141,0.96028,0.45173,0.27122
0.15619,1.3337,-2.6086,8.4141,0.84758,0.58765,0.26634
0.20718,0.80415,-2.2751,9.4144,0.071471,0.62858,0.21502
0.24149,0.098066,-2.6086,9.434,0.45876,0.47983,0.19639
0.25388,0.39227,-2.6086,8.7475,0.12645,0.14539,0.12278
0.24466,0.17652,-2.432,9.0417,0.13011,0.10385,0.10507
0.20877,0.35304,-1.8829,9.179,0.062003,0.065668,-0.061392
0.16571,0.35304,-1.7848,9.9832,-0.15852,-0.015577,0.010996
0.1384,0.66685,-1.3729,10.474,-0.36346,-0.10079,0.069028
0.095367,1.0199,-0.76492,9.8851,-0.52779,-0.17532,0.1179
0.075043,0.70608,-1.6475,9.2575,-0.613,-0.21564,0.15547
0.051819,0.74531,-2.3732,8.2572,-0.58246,-0.20556,0.13592
0.036499,0.98067,-2.5693,7.4531,-0.46823,-0.1408,-0.035125
0.018433,1.1376,-2.2948,7.9042,-0.31643,-0.045204,0.048564
0.035217,1.3925,-1.5691,8.4926,-0.17349,0.046426,0.060476
0.075714,0.49033,-1.9809,10.14,-0.034514,0.12553,0.011912
0.1777,0.49033,-0.96105,13.592,0.11393,0.20861,-0.029627
0.28769,1.7456,-0.74531,11.768,0.27581,0.27886,-0.030543
0.37186,3.2558,-1.9613,8.1787,0.46181,0.29505,-0.015882
0.4133,2.9616,-3.3146,7.0608,0.57299,0.23763,-0.029932
0.42624,2.2751,-3.3931,7.8061,-0.73579,0.12126,-0.028711
0.39279,2.2751,-2.3732,7.0216,-1.2443,-0.10049,0.0079412
0.31967,2.0594,-1.7456,7.0608,-1.4025,-0.4047,0.12278
0.23224,1.0591,-2.6086,6.2959,-1.2239,-0.62675,0.084299
0.15204,-1.8044,-3.1381,12.631,-0.84147,-0.68845,0.040317
0.11081,0.49033,-1.5691,12.298,-0.38454,-0.6185,-0.015577
0.07309,1.1964,-0.94144,8.7083,0.46029,-0.46578,-0.052229
0.068695,0.86299,-0.39227,7.4531,-0.055894,-0.28497,-0.046426
0.07663,0.66685,-0.74531,7.0019,-0.043066,0.11026,-0.047037
0.12045,0.90221,-2.0006,7.6884,0.072082,0.06689,-0.05681
0.19785,0.49033,-3.1381,10.415,-0.047647,0.010079,0.0079412
0.30081,0.27459,-3.5304,13.886,-0.1463,-0.040928,0.0042761
0.43652,2.432,-1.4318,10.827,-0.18845,-0.053145,-0.015272
0.56729,1.9221,0.039227,8.8064,-0.17379,-0.033903,-0.03879
0.64966,1.6475,-0.80415,7.2961,-0.13011,-0.0039706,-0.044288
0.69427,0.74531,-1.7456,7.1392,-0.083689,0.030849,-0.040928
0.70355,0.56879,-2.6086,8.5318,-0.18784,0.0045815,0.066584
0.7077,1.3533,-3.0793,8.7083,-0.21838,-0.018631,0.054672
0.71573,2.0594,-3.6873,8.2768,-0.16982,-0.014661,0.058643
0.72519,2.0202,-3.4519,8.4926,-0.067195,0.0042761,0.045204
0.71622,2.432,-2.5693,8.4141,0.059559,0.024435,0.065057
0.66129,2.3928,-1.5102,8.2376,0.16585,0.054062,0.083383
0.60071,1.6867,-1.3533,8.1787,0.22205,0.079107,0.092241
0.52524,1.8044,-2.0986,8.3749,0.24557,0.086743,0.087965
0.44565,1.7652,-2.687,8.8456,0.26603,0.086743,-0.050702
0.37134,1.7456,-2.8243,9.179,0.26267,0.10599,-0.043371
0.28821,1.9221,-2.6282,9.0025,0.23702,0.13286,0.050396
0.21643,1.8633,-2.0986,8.8064,0.21594,0.13775,0.042761
0.13974,1.6083,-2.0986,8.6299,0.22205,0.13744,0.025045
0.087036,1.824,-2.3732,8.7083,0.24954,0.14539,-0.0036652
0.028534,1.8633,-2.5693,8.9633,0.30238,0.15485,-0.022297
-0.025787,1.824,-2.4517,9.0613,0.37018,0.16585,-0.038179
-0.056274,2.0594,-1.9613,9.0613,0.4273,0.18295,-0.021075
-0.085907,1.7456,-2.1575,9.0025,0.45418,0.2022,-0.0009163
-0.11957,1.7456,-2.0006,8.9437,0.42302,0.22052,-0.031154
-0.13074,1.5495,-1.824,9.1202,0.33842,0.21411,-0.013744
-0.14279,1.4906,-2.0986,9.1202,0.26756,0.18112,0.0076358
-0.15118,1.5102,-2.3144,8.7475,0.2251,0.15485,0.0012217
-0.14874,1.6083,-2.6086,8.4141,0.18662,0.14661,-0.026267
-0.14142,1.7456,-2.5105,8.3749,0.12187,0.13806,-0.03543
-0.14148,1.4318,-2.432,8.3749,-0.12034,0.057421,-0.0082467
-0.12665,1.0395,-1.9809,8.9633,-0.10934,0.04948,-0.0088575
-0.1265,0.82376,-1.8829,9.179,-0.060476,0.059254,-0.047342
-0.12881,1.216,-2.1182,9.1202,0.0009163,0.075442,-0.053451
-0.14618,1.3533,-2.2751,8.8064,0.044288,0.08094,-0.040012
-0.18091,1.7064,-1.9809,8.8652,0.045815,0.075747,-0.030543
-0.1936,1.5298,-1.7456,8.8652,0.009163,0.059865,-0.02138
-0.21048,1.5298,-1.824,8.9044,-0.036041,0.0281,-0.014966
-0.21014,1.3533,-1.824,9.0613,-0.07086,-0.0039706,0.012828
-0.21146,1.6083,-1.8437,9.0417,-0.039706,-0.019242,0.011301
-0.21365,1.6475,-2.0006,8.8848,0.018326,-0.023824,-0.012828
-0.21146,1.2945,-1.8829,9.0221,0.070555,-0.022602,-0.0061087
-0.21085,1.3925,-1.9809,8.9044,0.091324,-0.021991,0.0015272
-0.19604,1.5298,-2.1967,8.8456,0.086132,-0.022907,0.0076358
-0.21014,1.6083,-2.4124,8.8848,-0.062003,-0.03146,0.011912
-0.21375,1.2356,-2.2751,9.0417,-0.070555,-0.042761,0.012828
-0.22235,1.3925,-2.0594,9.0417,-0.043066,-0.051313,-0.051618
-0.23099,1.1964,-1.9809,9.1594,-0.09499,-0.048869,-0.054978
-0.21823,1.2356,-2.1967,9.1202,-0.11362,-0.049175,0.0058032
-0.20932,1.2945,-2.2751,8.9044,-0.096517,-0.052229,0.0033598
-0.20181,1.1964,-2.0006,9.0417,-0.058032,-0.043982,-0.0024435
-0.19583,1.1964,-1.9809,9.2183,-0.007025,-0.016493,-0.012828
-0.19571,1.5495,-1.8437,9.0221,0.062919,0.024435,-0.030849
-0.18723,1.6475,-1.8044,8.6887,0.018326,0.056505,-0.043677
-0.19131,1.6083,-2.0006,8.2768,0.094684,0.083994,-0.06689
-0.1983,1.9025,-2.2163,8.316,0.039706,0.10263,-0.076053
-0.18961,1.9221,-2.1575,8.6299,-0.029016,0.10079,-0.039706
-0.18021,1.7456,-1.824,9.2183,-0.073609,0.082467,-0.011912
-0.16492,2.2359,-1.7848,9.2575,-0.083078,0.060781,-0.0027489
-0.16336,2.2359,-1.9809,9.1202,-0.055589,0.04612,-0.018326
-0.15872,2.5497,-2.4124,8.7279,0.050396,0.050702,-0.036041
-0.14255,2.2359,-2.3732,8.6299,0.096517,0.081245,-0.050091
-0.13596,2.2948,-2.687,9.0417,0.054367,0.065973,-0.11423
-0.11115,1.8633,-3.3146,9.2575,0.046731,0.11026,-0.095906
-0.075836,2.1575,-2.589,8.6299,-0.007025,0.13897,-0.12553
-0.051666,1.7456,-1.8044,8.2376,-0.0562,0.14661,-0.097738
-0.038208,1.2945,-1.1768,8.8652,-0.040317,0.15088,-0.068417
-0.051453,0.86299,-1.216,9.4732,0.030543,0.15882,-0.060781
-0.077606,0.80415,-2.1378,9.0613,0.11515,0.17013,-0.072388
-0.15057,0.50995,-2.7459,8.4141,0.18845,0.1854,-0.10171
-0.22849,-1.216,-1.6671,10.16,0.22144,0.18937,-0.10782
-0.31033,-1.6083,-0.54917,13.2,0.16952,0.17715,-0.085827
-0.36588,1.1768,-1.5691,10.297,0.083078,0.14111,-0.073609
-0.40439,1.3925,-1.7848,7.1589,0.0012217,0.10293,-0.063225
-0.43384,1.0395,-0.86299,7.0019,-0.0064141,0.070555,-0.067501
-0.4353,1.3533,-0.72569,7.5903,0.059559,0.061697,-0.090408
-0.44135,1.4318,-1.6475,8.6299,0.10782,0.080634,-0.1124
-0.39441,1.6867,-2.3144,9.0025,0.097738,0.096517,-0.11576
-0.33478,1.9025,-2.1378,8.9437,0.06353,0.096211,0.18631
-0.26318,1.6867,-1.6475,8.7083,0.038179,0.093157,0.24038
-0.19528,1.4906,-1.726,8.4337,0.01741,0.10385,-0.050702
-0.13464,1.7456,-2.1967,8.9044,-0.0009163,0.11912,-0.018937
-0.082703,1.7456,-2.1575,9.6301,0.010385,0.13806,0.021075
-0.052643,1.5887,-1.9417,9.689,0.037874,0.18295,0.060781
-0.036224,1.3533,-1.5102,9.2771,0.059559,0.2532,0.0956
-0.043457,1.5102,-1.4318,8.6299,0.13347,0.29627,0.13622
-0.060394,1.6083,-1.4318,8.8064,-0.32529,-0.31734,-0.1182
-0.074493,1.5887,-1.216,9.1202,-0.2865,-0.24221,-0.12737
-0.087616,1.5887,-1.1768,9.0613,-0.31887,-0.19426,-0.10873
-0.10449,1.6475,-1.1964,8.8064,-0.33781,-0.13806,-0.11759
-0.13589,1.6671,-1.1768,8.316,-0.2978,-0.083383,-0.11515
-0.16046,0.80415,-1.3337,7.7865,-0.22327,-0.05284,-0.10049
-0.17767,-1.1572,-2.3144,10.532,-0.11423,-0.018326,-0.10446
-0.17999,-1.0199,-2.6086,12.631,-0.0048869,0.023824,-0.11484
-0.17453,1.0199,-2.7655,9.8263,-0.019853,0.058032,0.090408
-0.13953,0.80415,-1.4122,7.9434,-0.12737,-0.007025,0.087354
-0.10623,0.86299,-0.41188,6.9235,-0.20647,-0.068111,0.17074
-0.074219,0.86299,-1.4122,6.3547,-0.22785,-0.12309,0.16616
-0.022675,1.0787,-1.7848,8.5318,-0.19212,-0.17165,0.14478
0.026459,0.56879,0.19613,11.866,-0.12737,-0.19303,0.12309
0.078217,0.25497,0.50995,12.337,0.18998,-0.17929,0.1066
0.12506,1.3729,-0.15691,11.258,0.087659,-0.1408,0.096822
0.16049,1.6083,-0.39227,10.101,-0.015272,-0.098044,-0.035125
0.159,1.824,-0.80415,9.434,-0.059559,-0.0562,-0.036346
0.13376,1.8633,-1.824,8.2768,-0.12675,-0.027489,0.088881
0.10651,2.0006,-3.0597,7.9238,-0.15241,-0.022907,0.10232
0.092407,2.589,-2.687,8.1003,-0.10873,-0.044899,0.11759
0.092133,2.0594,-1.3533,8.4141,-0.025045,-0.062003,0.097738
0.091766,1.8633,-0.70608,8.4141,-0.058948,-0.048869,0.045204
0.071228,1.7456,-1.6671,7.9434,-0.015882,-0.0012217,-0.0064141
0.065125,1.9221,-2.7655,8.316,-0.78374,-0.41844,0.13164
0.070313,1.2945,-2.9812,9.1202,-0.57238,-0.37202,0.086132
0.076141,1.2356,-2.0594,9.5713,-0.28863,-0.27458,0.036957
0.064484,0.82376,-1.2553,9.1986,-0.013134,-0.13103,-0.0051924
0.047485,1.0395,-1.0199,9.1202,0.13225,-0.0051924,0.016493
0.0094299,1.118,-1.3337,9.3163,0.07758,0.062919,0.099571
-0.033691,1.3337,-2.1182,9.3163,-0.11545,0.065973,0.14722
-0.060577,1.5298,-2.5105,8.9044,-0.32712,0.025351,0.14264
-0.09903,1.8044,-2.1967,8.5514,-0.45601,-0.0076358,0.13622
-0.1218,1.5102,-1.471,8.8456,-0.45601,0.012523,0.1573
-0.14789,1.7064,-2.0594,8.7083,-0.3488,0.044593,0.02138
-0.18155,2.0202,-2.4517,8.7083,-0.14966,0.084299,0
-0.20001,1.9809,-2.432,8.7083,0.10904,0.14813,0.0009163
-0.22244,1.9221,-2.2751,8.5318,0.30757,0.1909,0.0094684
-0.23505,2.0594,-1.8829,8.7083,0.35522,0.17807,0.050091
-0.23557,1.6083,-1.824,9.0613,0.29199,0.12401,0.10201
-0.24313,1.1964,-2.1967,10.003,-0.20647,0.089492,0.18143
-0.22559,1.1768,-1.5887,9.3359,-0.20189,0.10293,0.21594
-0.22379,-0.17652,-1.3141,10.434,-0.19395,0.13989,-0.068417
-0.22638,0.70608,-1.5887,11.395,-0.19578,0.14783,-0.037874
-0.24634,1.6867,-1.1768,9.6694,-0.15821,0.12004,0.010079
-0.27335,1.4318,-1.2749,7.61,-0.092852,0.098044,0.063835
-0.29443,1.824,-2.6086,6.6685,-0.059559,0.087659,0.10873
-0.30298,2.2751,-2.6086,7.3354,-0.092546,0.064141,0.1405
-0.2869,1.5495,-1.471,8.7868,-0.18204,0.014661,0.094073
-0.26273,1.0395,-1.0983,9.434,-0.29077,-0.057116,0.098349
-0.237,0.74531,-1.5691,9.3163,-0.36102,-0.12309,0.22205
-0.2117,1.1964,-1.824,9.434,-0.35827,-0.16402,0.20403
-0.19965,1.6867,-1.8829,8.8652,-0.30452,-0.16371,0.17532
-0.20645,1.6083,-2.3732,6.3547,-0.2529,-0.10079,0.14661
-0.19916,0.098066,-2.6086,11.376,-0.21136,-0.0009163,0.12309
-0.17615,1.118,-1.8829,12.964,-0.14905,0.080329,0.1066
-0.15372,2.4517,-0.62763,9.9636,0.57849,0.27061,-0.083689
-0.13049,1.8044,-0.86299,7.6884,0.61484,0.19456,-0.13989
-0.11526,1.9221,-1.8044,6.6685,0.56047,0.055283,0.055589
-0.10748,2.2751,-2.0986,7.2373,0.23579,-0.16188,-0.00061087
-0.070374,1.824,-1.3533,8.4729,-0.18387,-0.33598,-0.071471
-0.030396,1.8044,-1.0199,9.1202,-0.5116,-0.42211,-0.15058
0.017487,1.2749,-1.3533,9.3359,-0.72846,-0.45845,-0.14264
0.066284,1.6083,-1.4122,9.1006,-0.77244,-0.46029,-0.088575
0.087067,1.216,-1.2553,9.179,-0.33628,-0.40256,-0.057116
0.10284,0.90221,-1.4318,9.1006,0.011912,-0.27122,-0.071471
0.09906,0.80415,-1.118,9.6497,0.31276,-0.11515,-0.18723
0.082672,0.70608,-1.0003,9.6497,0.46242,0.03146,-0.1854
0.053864,0.80415,-1.4122,9.2183,0.41508,0.14019,-0.15333
0.037445,1.4318,-2.1182,8.5906,0.24465,0.18509,-0.1014
0.014832,2.1182,-2.1378,7.9434,0.033903,0.17471,-0.060476
-0.013672,2.2359,-2.1967,7.6492,-0.13561,0.12614,-0.051007
-0.033813,2.2948,-2.2751,8.8652,0.037874,-0.029627,-0.011606
-0.053192,2.1182,-2.6086,9.8066,-0.026267,-0.033292,0.014355
-0.070801,1.9809,-2.942,9.8066,-0.078802,-0.033598,0.00061087
-0.090271,1.824,-2.942,8.8848,-0.07422,-0.045204,0.0054978
-0.12021,1.6083,-2.7459,9.0417,-0.027184,-0.064752,0.0082467
-0.13858,1.2945,-2.3144,9.3555,0.013439,-0.059559,-0.0064141
-0.15213,1.3533,-2.5105,9.7478,0.057727,-0.033903,-0.025656
-0.16251,1.2945,-2.2751,9.5125,0.068722,-0.0097738,-0.028711
-0.18039,1.3533,-1.7456,9.179,0.21594,0.12492,-0.01741
-0.1987,1.3729,-1.2553,8.8064,0.20342,0.12523,-0.011301
-0.21332,1.7456,-1.471,8.218,0.16249,0.1069,-0.010996
-0.23898,1.6671,-1.4318,8.1787,0.11118,0.079412,0.0015272
-0.25397,1.4514,-1.4318,8.5514,0.044899,0.047953,0.002138
-0.28104,1.2945,-1.471,9.0417,-0.0027489,0.030238,-0.0009163
-0.29102,1.2945,-1.5691,9.2575,-0.022602,0.027489,-0.019548
-0.28912,1.2945,-1.824,9.3359,-0.029322,0.027489,-0.024435
-0.29453,1.5298,-1.7456,9.1202,-0.025656,0.025656,-0.026267
-0.29053,1.118,-1.5102,9.1594,-0.029016,-0.0009163,-0.015882
-0.27109,1.1964,-1.6279,9.1594,-0.035736,-0.033292,-0.0076358
-0.27094,1.3337,-1.5887,8.9633,-0.039706,-0.047647,-0.014661
-0.25311,1.6083,-1.7848,8.9044,-0.03543,-0.040928,-0.020769
-0.24252,1.7456,-1.7456,9.0417,-0.032987,-0.027489,-0.014966
-0.23807,1.2945,-1.6475,9.3359,-0.03879,-0.016799,-0.007025
-0.22549,1.2356,-1.5102,9.2575,-0.033903,-0.00030543,-0.018021
-0.21317,1.3533,-1.6279,9.3359,-0.03543,0.023213,-0.0058032
-0.2085,1.4318,-1.6475,9.2575,-0.029016,0.036652,0
-0.20786,1.5102,-1.4318,9.2575,-0.03146,0.037263,-0.0076358
-0.21127,1.5298,-1.3729,9.0613,-0.03543,0.033903,-0.0064141
-0.21979,1.5298,-1.9613,8.8064,-0.016493,0.021686,-0.0094684
-0.22861,1.4906,-1.6475,8.8652,0.020769,-0.0018326,-0.0054978
-0.23743,1.7456,-1.5691,8.8652,-0.0281,-0.020769,-0.0061087
-0.24112,1.824,-1.4906,8.8848,-0.034208,-0.0281,-0.011912
-0.23911,1.5102,-2.0006,8.8064,-0.04612,0.016188,-0.14722
-0.23212,1.4318,-2.5301,8.9437,0.0094684,0.022297,-0.14447
-0.20407,1.7064,-1.9809,9.0613,0.048869,0.027794,-0.10812
-0.20538,1.5102,-1.6279,9.1594,0.058032,0.031154,-0.11118
-0.20065,1.4514,-1.4122,9.0417,0.032376,0.027489,-0.099876
-0.21674,1.6475,-1.9025,9.0025,-0.012523,-0.00030543,-0.090713
-0.22678,1.7064,-2.1575,8.7279,-0.033292,-0.032681,-0.10721
-0.2308,1.7064,-1.8829,9.1006,-0.020769,-0.043371,-0.13622
-0.22662,1.7456,-1.5691,9.179,-0.0012217,-0.042761,-0.096211
-0.24002,1.9025,-1.5691,9.179,0.0073304,-0.04948,-0.096517
-0.2504,1.8044,-1.824,9.1594,0.028405,-0.052229,-0.13958
-0.24741,2.0006,-2.0594,9.2183,0.049786,-0.054672,-0.12492
-0.25308,1.8437,-2.0594,9.2575,0.0281,-0.075747,-0.09896
-0.25607,1.6083,-1.824,9.2771,-0.046426,-0.11545,-0.072693
-0.25284,1.2945,-1.9809,9.179,-0.13439,-0.13439,-0.066279
-0.25525,1.5102,-1.8044,9.1006,-0.20433,-0.12309,-0.087048
-0.241,1.3533,-1.5102,9.1986,-0.19487,-0.096822,-0.01069
-0.2193,1.2945,-1.1768,9.4732,-0.056505,-0.050702,-0.012523
-0.21072,1.5298,-1.5102,9.5125,0.13225,0.018326,-0.10629
-0.20029,1.8633,-1.6475,8.8064,0.27611,0.091019,-0.10843
-0.18784,1.6867,-2.3732,8.1199,0.281,0.14386,-0.09499
-0.17151,1.5298,-2.3144,7.9434,0.15852,0.13775,-0.072388
-0.15955,1.3729,-1.3337,8.5906,-0.0076358,0.092241,-0.046426
-0.15573,1.4318,-0.86299,9.179,-0.13286,0.048258,-0.025656
-0.15558,1.7456,-1.1768,8.9044,-0.15821,0.023213,-0.0097738
-0.14285,2.0594,-1.726,8.218,-0.07025,0.040012,0.033598
-0.13382,2.2948,-1.8829,8.0022,0.083994,0.098044,-0.03207
-0.11108,2.2948,-1.6867,8.3945,0.20739,0.18692,-0.033598
-0.068726,1.7456,-1.5691,8.8064,0.23243,0.28466,-0.023213
-0.034515,1.6867,-0.90221,9.1986,0.17654,0.3598,-0.01741
-0.015961,0.90221,-0.33343,9.1202,0.13989,0.39554,-0.014355
-0.04071,0.23536,-1.2553,8.316,0.18418,0.41875,-0.016188
-0.070099,-2.1771,-1.9417,12.082,-0.081551,0.033292,-0.0562
-0.080688,-0.49033,-2.9224,12.082,-0.083383,0.041844,-0.051313
-0.070679,1.6867,-3.0008,9.0417,-0.080329,0.058338,-0.10629
-0.069702,1.0395,-1.6279,7.6884,-0.083078,0.073304,-0.095906
-0.073975,0.60801,-1.118,7.4531,-0.097128,0.064752,-0.073915
-0.06369,1.0395,-1.3533,8.0218,-0.10476,0.044899,-0.058948
-0.036591,1.0395,-1.4318,9.2575,-0.087048,0.029627,-0.057727
0.012299,0.70608,-1.5691,9.9636,-0.041844,0.027184,-0.057421
0.064819,1.1768,-1.8437,9.7478,0.026573,0.030543,-0.030238
0.11411,1.6671,-2.687,9.1986,-0.020464,0.023824,-0.036652
0.16641,2.0006,-2.589,8.8652,-0.075442,0.010079,-0.040623
0.21313,2.1575,-2.589,8.6299,-0.098349,-0.007025,-0.03146
0.25958,2.3732,-2.2751,8.7083,-0.088575,-0.025351,-0.029932
0.27029,2.0594,-2.0594,8.7279,-0.06017,-0.0281,-0.034208
0.27481,1.9613,-1.8044,8.7279,0.0079412,-0.0012217,-0.033292
0.24881,1.7456,-1.7848,8.2768,0.03543,0.033292,-0.03207
0.23196,1.8044,-1.824,8.4141,0.094073,0.063225,-0.0088575
0.20779,1.3533,-2.2751,8.9044,0.17715,0.094379,0.016799
0.20755,1.5298,-2.6086,9.0613,0.24709,0.11973,-0.055589
0.21313,1.6475,-2.432,9.3752,0.27336,0.14844,-0.068111
0.21228,1.7456,-2.0986,9.2575,0.26084,0.18784,-0.076053
0.2131,1.9809,-1.7456,9.0417,0.23702,0.22266,-0.077274
0.20483,2.1378,-1.9809,8.4337,-0.021686,0.23976,-0.062308
0.18594,2.0594,-2.3732,8.7083,0.027794,0.23946,-0.040928
0.18063,1.9613,-2.6086,8.7475,-0.084299,0.22602,0.28772
0.16455,1.824,-2.4124,8.8848,0.18784,0.21472,0.13622
0.17166,1.5298,-1.824,8.7083,0.15455,0.2025,0.013134
0.20081,1.3729,-1.3337,8.6299,0.13806,0.18906,0.025656
0.23199,1.3729,-1.5691,9.7478,0.13164,0.20831,0.062919
0.25671,1.3729,-2.3144,10.12,0.20678,0.28405,0.13225
0.23849,1.2945,-2.3732,8.6299,0.33689,0.4328,0.23121
0.17352,-1.3925,-1.3141,10.297,0.3372,0.28375,0.27825
0.1496,-2.4124,-1.6475,12.18,-0.2813,0.1182,0.093157
0.091766,1.8044,-2.8439,7.4531,-0.21716,0.16005,0.069944
0.059143,1.7064,-1.9809,7.6492,-0.11668,0.1967,0.026878
0.071503,2.9224,-1.471,8.0022,0.029932,0.23488,0.036346
0.10001,2.9616,-1.6475,6.1978,0.16554,0.28253,0.028405
0.12234,1.6083,-1.1572,7.3158,0.21105,0.31796,0.032376
0.16229,-2.8635,-2.5693,14.298,0.15058,0.30421,0.067195
0.23801,0.078453,-3.6088,12.454,0.040317,0.23885,0.09896
0.32324,2.2751,-2.8243,7.9042,-0.053756,0.1518,-0.00061087
0.41214,0.5884,-1.9025,7.5511,-0.082467,0.077885,-0.010079
0.48865,1.0395,-1.7848,7.8061,-0.057727,0.039401,0.050702
0.5603,1.4906,-2.7459,9.0417,-0.0076358,0.021991,0.041539
0.64197,1.8437,-2.9224,9.3359,0.037874,0.016493,0.033903
0.71826,2.0006,-1.5691,8.8064,0.045204,0.023518,0.02474
0.78751,2.0202,-0.94144,8.1787,0.0281,0.027184,0.018021
0.82245,2.0202,-0.72569,7.9238,0.025351,0.025962,0.010996
0.84555,2.1182,-1.0003,8.1787,0.040012,0.038485,-0.052229
0.85687,1.824,-1.5887,7.8649,0.047647,0.054367,-0.061087
0.84537,1.7652,-2.2555,7.8649,0.044593,0.058338,-0.014355
0.83578,1.5102,-3.0597,8.3945,0.029322,0.050396,-0.018631
0.81393,1.5298,-2.7655,8.8064,0.012523,0.042455,-0.026878
0.80258,1.2749,-2.432,9.5125,0.0045815,0.038485,-0.034819
0.77963,1.118,-2.5301,9.5713,0.0067195,0.033598,-0.033903
0.75723,1.6671,-2.7262,9.179,0.018326,0.028405,-0.039401
0.74158,1.9613,-2.6086,9.3359,0.14783,-0.24435,0.018326
0.72287,2.1575,-2.432,9.3163,0.12614,-0.20617,0.017104
0.69916,1.7456,-2.2948,9.0417,0.061392,-0.16646,-0.073609
0.67389,1.7456,-2.0006,8.8652,-0.025962,-0.12187,-0.039706
0.63965,1.8044,-2.1378,9.0221,-0.11423,-0.079412,-0.025656
0.58704,1.8633,-2.2751,9.0417,-0.18937,-0.040317,-0.015882
0.54187,1.9809,-2.4713,9.0417,-0.25137,0.011912,0.002138
0.504,1.7456,-2.6086,9.2575,-0.29719,0.068722,0.016799
0.47995,1.4318,-2.432,9.1986,0.0073304,0.030238,-0.038179
0.48636,1.1376,-2.1182,9.1594,-0.037568,0.0042761,-0.049786
0.47836,1.1376,-1.9809,8.7279,-0.068111,-0.0097738,0.048258
0.49442,1.118,-2.1967,8.7083,-0.083383,0.0048869,0.018021
0.49771,1.2945,-2.5693,8.7083,-0.075136,0.037568,-0.0015272
0.53296,1.5102,-2.6086,8.7083,-0.038485,0.063835,0.0012217
0.5495,1.6671,-2.3732,8.6299,0.093768,0.081856,0
0.57339,1.824,-2.1575,8.316,0.061697,0.10079,-0.018326
0.60144,1.9613,-2.0006,8.2572,0.089492,0.12798,-0.095295
0.60333,1.7064,-2.0398,8.4926,0.10996,0.1573,-0.10568
0.62888,1.824,-2.0006,8.8456,0.12706,0.18418,-0.051924
0.65195,1.9613,-2.0594,8.7083,0.11759,0.19059,-0.054978
0.65793,2.1378,-1.8829,8.7475,0.078496,0.18448,-0.062308
0.67477,1.824,-1.8829,8.8652,0.038179,0.15852,-0.069333
0.67023,1.6867,-2.0594,8.6299,0.011912,0.10965,-0.069333
0.67441,1.4318,-2.2751,8.8848,0.058338,0.065668,-0.075747
0.6626,1.4906,-2.1771,9.3359,0.022297,0.076053,0.069028
0.6431,0.90221,-1.9025,9.5713,0.019242,0.092546,0.099266
0.63754,1.1964,-2.2555,9.1006,0.021991,0.1014,-0.0018326
0.63824,1.6475,-2.5693,8.9437,0.0085521,0.10018,0.015272
0.64133,1.4318,-2.1967,9.0613,-0.015272,0.095295,0.021686
0.65024,1.6475,-1.8044,9.1006,-0.016188,0.090103,0.016799
0.65079,2.1575,-1.9025,8.6299,0.035736,0.098044,0.015577
0.64984,2.4517,-1.9613,8.6299,0.11912,0.12767,0.028711
0.64398,2.6086,-2.2555,8.5514,-0.072998,0.13317,0.034208
0.64883,2.687,-2.6282,8.6887,-0.22816,0.11423,0.051924
0.64417,2.4713,-2.687,8.9437,-0.27061,0.058338,0.10232
0.6416,1.7456,-2.6086,9.1006,-0.19242,-0.01741,0.082467
0.63535,1.5102,-2.2751,9.0417,-0.053756,-0.061697,0.04215
0.62582,1.2945,-2.3732,8.8456,0.058948,-0.058032,0.017715
0.61954,1.6671,-2.5105,8.4141,0.14539,-0.017104,0.0088575
0.61493,1.5298,-2.432,8.5514,0.082467,0.024129,0.013134
0.59998,1.7456,-2.3144,8.8848,0.020464,0.19364,0.050091
0.6026,1.4318,-2.1967,8.9437,-0.14478,0.20556,0.062919
0.60156,1.5298,-1.5887,8.3749,-0.2981,0.17807,0.17013
0.59241,1.118,-1.824,8.5514,-0.37049,0.14264,0.1631
0.5824,0.90221,-2.432,9.0025,-0.33506,0.11362,0.15455
0.58118,1.0395,-2.5105,9.0417,-0.14813,0.095906,0.12889
0.59222,1.2356,-1.7848,9.1202,0.10629,0.1463,0.080329
0.59653,1.2945,-1.7456,9.0025,0.27489,0.22266,0.040623
0.60754,1.9613,-1.7456,9.1202,-0.064752,0.14661,-0.10507
0.60541,2.2948,-2.3732,9.6694,0.14386,0.16585,-0.11851
0.61136,2.6086,-2.8243,9.3359,0.45112,0.12126,0.12431
0.61313,0.90221,-3.6285,8.4337,0.58338,-0.0012217,0.076358
0.61789,-0.50995,-3.8442,12.18,0.27428,-0.23152,0.017104
0.6304,1.2945,-1.7456,13.102,-0.18143,-0.48442,-0.041844
0.62787,1.4514,-1.7848,9.4928,-0.5678,-0.66187,-0.092546
0.62686,1.5102,-2.2751,6.9235,-0.75778,-0.71807,-0.087659
0.62714,1.3533,-2.3732,6.5508,-0.65088,-0.68722,0.019242
0.63837,1.9221,-2.432,7.2961,-0.43158,-0.60109,0.010385
0.65823,1.6867,-2.0398,8.3749,-0.16005,-0.49786,-0.12126
0.68283,1.6083,-1.5887,8.8652,0.086743,-0.3711,-0.11698
0.71213,1.9221,-1.7848,8.4141,0.27458,-0.23549,-0.12156
0.74966,2.1378,-2.0986,7.8061,0.34972,-0.11606,-0.11301
0.78836,2.0594,-2.1967,7.9042,0.28558,-0.045815,-0.062919
0.81744,2.2948,-1.7456,8.1003,0.1295,-0.040317,0.0027489
0.83817,2.1575,-1.1572,8.316,-0.048869,-0.069333,0.10201
0.85727,1.8437,-1.4318,8.0807,-0.18418,-0.099876,0.1518
0.85919,1.7456,-2.7262,8.1787,-0.24526,-0.11179,-0.017104
0.87238,1.8437,-3.9227,8.5318,-0.22571,-0.092852,-0.048869
0.87091,1.9221,-3.8638,9.3359,-0.12889,-0.048869,-0.054672
0.86819,1.7456,-3.1381,9.689,0.0048869,0.011912,-0.037568
0.85239,1.7456,-2.2751,9.4144,0.11454,0.079107,-0.0018326
0.82172,1.824,-2.0594,9.2771,0.12798,0.14478,0.047647
0.77734,1.8044,-2.2751,9.1202,-0.22571,-0.11851,0.03543
0.75214,1.9613,-2.432,8.9633,-0.18906,-0.10446,0.026267
0.73932,1.824,-2.1967,8.7475,-0.1405,-0.077274,0.076664
0.7179,1.8044,-2.3536,8.7083,-0.086132,-0.044899,0.089492
0.69385,1.5495,-2.3144,8.7475,-0.043371,-0.0048869,0.092852
0.66666,1.6083,-2.2948,9.0613,-0.011912,0.030543,0.081856
0.6467,1.8633,-2.2555,8.8652,-0.21014,0.062919,0.066279
0.64371,1.9221,-2.3732,8.5514,-0.23579,0.10476,0.049786
0.61014,1.9613,-2.4124,8.7279,0.017104,0.061087,-0.14111
0.58865,1.5102,-2.2555,8.8848,0.062003,0.080329,-0.14172
0.55478,1.7456,-2.5105,8.8848,0.10721,0.10476,-0.08094
0.53763,1.7456,-2.3732,8.8848,0.11912,0.11057,-0.076358
0.51785,2.0006,-2.2751,8.6887,0.11545,0.10446,-0.078191
0.49158,2.0006,-2.1182,8.8652,0.11729,0.10996,-0.092546
0.46594,2.0006,-2.2751,8.6299,0.1292,0.13225,-0.11148
0.44437,2.1378,-2.2948,8.8652,0.15241,0.15974,-0.12737
0.41986,2.2359,-2.3928,9.0417,0.22297,0.17898,-0.10293
0.39658,1.9221,-2.4713,9.0417,0.1689,0.19792,-0.087659
0.37814,1.9809,-2.1378,8.8064,0.10721,0.1912,-0.11881
0.3479,1.8044,-1.5691,8.7083,0.059254,0.15363,-0.090103
0.30603,1.6083,-2.0986,9.0417,0.026267,0.11454,-0.10049
0.28793,1.6083,-2.2555,9.1986,0.013439,0.10201,-0.1295
0.28387,1.0787,-2.3144,9.179,0.18937,0.097738,-0.14722
0.28558,0.86299,-2.1575,9.179,0.22969,0.067806,-0.13286
0.29614,0.66685,-1.5102,9.0613,0.14355,0.028405,0.053145
0.32608,0.74531,-1.3337,9.0417,0.12339,-0.0033598,0.065668
0.36267,0.92183,-1.3533,8.7083,0.042761,-0.023213,-0.075136
0.39664,1.0199,-1.6279,8.4141,-0.048564,-0.04948,-0.045815
0.44202,1.118,-2.0594,8.2572,-0.11576,-0.094684,-0.0064141
0.48013,1.2945,-2.3144,8.316,-0.16677,-0.13286,0.016188
0.52036,1.5298,-2.4517,8.5514,0.045509,-0.13775,0.021075
0.5585,1.6083,-2.2751,8.4141,0.10415,-0.12462,0.031765
0.57947,1.6867,-2.0594,8.6299,0.32742,0.21197,0.072388
0.61996,1.6083,-2.2948,8.8848,0.32254,0.2645,0.010996
0.64645,1.824,-1.8829,9.2183,0.18295,0.2642,0.024129
0.68488,2.1575,-1.9025,9.6694,0.010079,0.2135,0.10171
0.70352,2.5497,-2.432,9.3752,0.010079,0.19395,0.18631
0.69196,2.6086,-2.8243,8.7083,0.18509,0.21808,0.2474
0.71942,1.4906,-2.5693,9.434,0.29993,0.13622,0.24832
0.71353,1.4318,-1.7456,10.199,0.2978,0.0015272,0.16096
0.70248,1.8044,-1.6279,10.317,0.044593,-0.1689,-0.1463
0.6763,2.1575,-1.9613,9.1006,-0.018021,-0.27275,-0.15241
0.64954,2.3928,-1.8437,7.4727,-0.091324,-0.27184,-0.027489
0.62198,2.1771,-1.9809,7.3942,-0.26695,-0.25473,-0.00030543
0.59952,2.0202,-2.4517,8.4926,-0.4105,-0.28863,0.040623
0.57562,1.6867,-2.432,9.6694,-0.39279,-0.3149,0.019242
0.53342,1.3729,-1.471,9.1594,-0.24465,-0.27122,-0.045204
0.46002,0.019613,-2.1967,7.3746,-0.041844,-0.17043,-0.10873
0.41492,-1.4514,-2.8439,11.003,0.13989,-0.045815,0.020159
0.38062,0.5884,-1.8829,11.572,0.22541,0.062003,0.017104
0.35333,0.80415,-1.118,8.5514,0.19548,0.11515,-0.11332
0.33154,0.2942,-0.72569,7.6884,0.062614,0.11668,-0.04948
0.31558,0.74531,-1.824,7.3158,-0.13714,0.081856,-0.011606
0.31082,1.5298,-2.6282,7.9434,-0.32926,0.024435,0.007025
0.32217,1.5102,-2.3144,9.0221,-0.47647,-0.053451,0.016799
0.34225,1.4514,-1.5691,9.5713,-0.55467,-0.13836,0.019853
0.37109,1.5495,-0.8826,9.434,-0.5342,-0.19853,0.11087
0.38126,1.4514,-1.3533,9.0417,-0.40592,-0.21502,0.10049
0.40527,1.6671,-2.432,8.9437,-0.21197,-0.17532,0.0082467
0.40097,2.1575,-3.2362,8.4337,-0.031154,-0.096211,-0.0015272
0.40768,2.2751,-2.7459,8.6299,0.077885,-0.016799,0.0082467
0.39063,2.2751,-1.824,8.6887,0.099876,0.045204,0.050091
0.35794,2.0594,-1.7456,8.8848,0.048564,0.079412,0.094073
0.33493,1.824,-2.1378,9.1986,-0.043371,0.079412,0.11148
0.29568,2.0594,-2.7262,9.2183,0.011606,-0.061087,-0.079718
0.27271,2.0006,-2.687,9.1006,0.009163,-0.058032,-0.086743
0.2601,1.7064,-2.2751,9.0221,0.0064141,-0.055894,-0.1066
0.23526,1.5298,-1.8829,9.0417,-0.002138,-0.054672,-0.089492
0.20923,1.7064,-2.2948,8.7083,-0.034514,-0.049175,-0.087354
0.18445,1.6671,-2.5301,8.7279,-0.091019,-0.050702,-0.094073
0.1824,1.6671,-2.2751,8.6299,-0.13011,-0.0562,-0.099571
0.17264,1.7456,-2.0006,8.7083,-0.12431,-0.049786,-0.088881
0.18216,1.5298,-2.1967,8.4926,0.13256,-0.022297,-0.0085521
0.19543,1.824,-2.6282,8.5514,0.18631,0.020464,-0.06017
0.22565,1.824,-2.9028,8.6299,0.1573,0.078191,-0.081245
0.24808,1.9613,-2.7851,8.7279,0.093157,0.13561,-0.064752
0.26367,1.8437,-2.5693,8.8456,0.040012,0.16585,-0.035736
0.27191,1.5102,-2.4124,8.8456,0.029932,0.16341,0.0094684
0.2709,1.6671,-2.2751,9.1006,-0.06689,0.12553,0.029932
0.27509,1.7064,-2.3144,9.2771,0.029627,0.068417,0.023213
0.27704,2.0006,-2.1967,9.2575,0.11393,0.059865,-0.069639
0.2442,1.6867,-1.824,9.179,0.098044,0.087048,-0.071471
0.21652,2.0594,-1.5691,8.8456,0.037874,0.10721,-0.058948
0.1666,2.1182,-1.6671,8.4729,-0.054978,0.11515,-0.034208
0.11261,2.2163,-1.9809,8.2572,-0.12004,0.10934,-0.04215
0.075104,2.2948,-2.1378,8.3749,-0.11393,0.076358,-0.042455
0.034821,2.2948,-1.9613,8.7083,0.067806,0.036957,-0.03879
0.0021973,1.8437,-1.7848,8.9044,0.10537,0.025962,-0.052229
-0.028046,1.4906,-2.2555,9.0417,0.057727,0.010079,-0.12156
-0.035309,2.0006,-2.4517,9.0417,0.096822,0.019853,-0.12401
-0.043121,1.4318,-2.4124,8.7279,0.11087,0.020464,-0.069639
-0.023834,1.6671,-1.8829,8.8456,0.1124,0.025045,-0.075136
-0.050598,1.6083,-2.1378,8.6299,0.11057,0.016493,-0.09896
-0.059326,1.9221,-2.4124,8.5514,0.096822,-0.0039706,-0.11698
-0.063934,1.9025,-2.0986,8.6887,0.068722,-0.029016,-0.11576
-0.070404,1.6083,-1.824,8.8848,0.034514,-0.05284,-0.11484
-0.08667,1.5495,-1.8829,8.5514,0.040928,-0.083994,-0.010996
-0.074585,1.3533,-2.2163,8.6299,0.0048869,-0.085216,-0.0018326
-0.049438,1.4906,-1.8829,8.4729,-0.014355,-0.086437,-0.027489
-0.037628,1.3337,-1.9613,9.0025,-0.014355,-0.088575,-0.030543
-0.0057983,1.1376,-2.0594,9.1202,-0.013134,-0.083078,-0.034208
0.0080261,1.1376,-2.0986,9.4928,-0.024435,-0.069333,-0.032681
0.023987,1.1964,-2.4713,9.179,-0.038485,-0.055283,-0.027184
0.041199,1.3925,-2.7459,9.179,-0.025962,-0.043066,-0.020159
0.054901,1.5298,-2.4713,9.1986,-0.0045815,-0.023824,-0.024129
0.064819,1.2945,-1.8437,9.4732,0.015272,-0.00061087,-0.067806
0.062469,1.5298,-1.9613,9.0025,0.047037,0.027794,0.0033598
0.060486,1.4514,-2.2555,8.8848,0.068417,0.063835,-0.0051924
0.051514,1.7456,-2.2751,9.1594,0.055283,0.098044,-0.0067195
0.055878,1.824,-2.1378,9.3163,0.0033598,0.10568,0.0012217
0.046265,1.3533,-1.9809,9.434,-0.053756,0.087965,0.018326
0.045654,1.2356,-2.0594,9.179,-0.074526,0.076053,0.019853
0.049225,1.6083,-2.3144,8.7475,-0.03207,0.080329,-0.040012
0.046844,1.4318,-2.432,8.9437,-0.062919,0.10232,-0.029016
0.052429,1.6867,-2.432,9.1202,0.002138,0.12645,-0.081245
0.081421,1.7456,-2.1967,9.0025,0.093157,0.12767,-0.069333
0.10211,1.7456,-2.1182,8.7279,0.15974,0.10354,-0.054062
0.11951,1.824,-1.9809,8.4926,0.16493,0.063835,-0.046731
0.13635,2.0006,-1.8829,8.6299,0.10873,0.0082467,-0.047037
0.15939,2.1378,-1.824,8.5514,0.029016,-0.044593,-0.047037
0.18423,2.1182,-2.0594,8.4337,-0.0033598,0.0009163,-0.013744
0.20239,2.1575,-2.2751,8.316,-0.059254,-0.030543,-0.021075
0.21701,1.9025,-1.9809,8.9437,-0.095906,-0.059254,0.0054978
0.21555,2.0594,-2.5105,8.8064,-0.094379,-0.079107,0.002138
0.20831,2.1378,-2.7459,8.7083,-0.047342,-0.086437,-0.0076358
0.19397,1.6867,-2.8243,9.0417,0.019242,-0.082161,-0.012217
0.20123,1.1768,-2.2751,9.3359,0.07025,-0.075747,-0.0067195
0.20453,1.0199,-1.9809,9.0613,0.086132,-0.078191,-0.0079412
0.2103,1.118,-2.1967,8.7868,0.13653,0.053145,-0.033598
0.23859,0.90221,-2.0986,8.5514,0.12889,0.074831,-0.025656
0.26538,1.0787,-1.8829,8.8064,0.11118,0.098655,-0.060476
0.27957,1.118,-1.7848,8.7279,0.080634,0.13806,-0.075136
0.289,1.1768,-1.9809,8.5514,0.054062,0.18143,-0.078191
0.29025,1.6475,-2.4124,8.316,0.063225,0.21808,-0.068722
0.27188,1.9809,-2.432,8.316,0.15944,0.21472,-0.056505
0.26529,1.824,-2.432,8.5318,0.15119,0.18906,-0.037874
0.24936,1.824,-2.3536,8.8652,0.032681,0.17043,0.026573
0.24258,1.824,-2.4517,9.0221,0.018631,0.135,0.024435
0.2326,1.7064,-2.432,9.2575,-0.024129,0.11973,-0.013134
0.22159,1.9221,-2.3732,9.434,-0.11668,0.1182,-0.0033598
0.20172,1.5887,-2.0006,9.3752,-0.2248,0.12737,0.032376
0.17911,1.4514,-1.824,9.4732,-0.25748,0.11301,0.067195
0.16345,1.4318,-1.6867,9.3359,0.075136,0.079412,0.083689
0.14609,1.6475,-1.9613,9.3163,0.047647,0.068722,0.058948
0.12097,1.7456,-2.2751,9.0417,0.010996,-0.036041,0.03146
0.11145,1.7456,-2.0986,8.8848,-0.045204,-0.069028,0.039095
0.095032,2.0006,-2.0006,8.9044,-0.10843,-0.11026,0.027794
0.058685,2.3732,-1.9809,8.8652,-0.1518,-0.14752,0.039401
0.029144,2.6086,-2.2948,8.7279,-0.15211,-0.16432,0.034819
0.0020752,2.687,-2.5105,8.7279,-0.09896,-0.15272,0.024435
-0.037811,2.6086,-2.4713,8.4926,-0.02138,-0.11912,0.018021
-0.073334,2.4517,-2.2751,8.2572,0.040012,-0.084605,0.020464
-0.11121,1.9809,-1.9417,8.0611,0.0012217,-0.074831,-0.041233
-0.14636,1.4318,-1.824,8.1591,-0.0036652,-0.081856,-0.049786
-0.17703,0.8826,-2.0594,8.6299,0.023518,-0.081856,0.028711
-0.19763,0.92183,-2.432,8.9437,0.068111,-0.067806,0.0051924
-0.19852,0.90221,-2.1575,8.8064,0.11606,-0.046731,-0.010079
-0.20963,0.90221,-1.824,8.6299,0.15088,-0.023518,-0.014355
-0.20987,0.90221,-2.1967,8.4337,0.057116,0.0012217,-0.022602
-0.18607,1.0395,-2.4124,8.6495,0.032376,0.029322,-0.034208
-0.15491,0.82376,-2.0006,9.5713,-0.077274,0.055894,-0.0033598
-0.11615,1.5102,-2.2751,9.9832,-0.078496,0.048869,0.0009163
-0.090973,2.1378,-2.1378,8.7475,-0.096822,0.053145,0.0048869
-0.10349,1.4318,-2.7655,7.7865,-0.080634,0.043982,0.0094684
-0.11612,0.80415,-2.5105,10.67,-0.0079412,0.030238,0.0064141
-0.13538,1.0591,-2.0398,11.984,0.074831,0.030238,-0.0036652
-0.16376,1.3533,-1.6671,9.8459,0.11698,0.040317,-0.0085521
-0.18164,1.1964,-1.9809,7.9434,0.098044,0.039095,-0.0085521
-0.19464,1.4318,-2.589,7.1589,-0.082467,-0.017104,-0.096822
-0.20084,2.0594,-2.5105,7.5315,-0.18326,-0.055589,-0.097433
-0.17587,1.8633,-2.1967,8.4926,-0.23274,-0.073915,-0.11942
-0.15942,1.5298,-1.8437,9.1202,-0.23732,-0.079718,-0.12431
-0.12677,1.4906,-2.0986,9.1202,-0.20433,-0.094379,-0.1127
-0.07901,1.3533,-2.1967,9.1202,-0.14294,-0.10996,-0.096517
-0.029083,1.6083,-2.4124,8.8848,-0.081245,-0.10079,-0.093462
0.020996,2.0202,-2.4713,8.8456,-0.037263,-0.072082,-0.09499
0.05307,2.1575,-2.432,8.6495,0.012217,-0.04612,-0.032987
0.05777,2.1575,-2.0594,8.4926,0.011301,-0.02474,-0.03879
0.077881,2.1575,-1.9809,8.8064,-0.020464,-0.013439,-0.087965
0.05365,2.3732,-1.8437,8.8064,-0.058338,-0.021991,-0.07025
0.040558,2.2948,-2.1967,8.4141,-0.073915,-0.034208,-0.058338
0.020569,2.432,-2.3732,8.4141,-0.07758,-0.030849,-0.057116
-0.010956,2.0594,-2.4517,8.6299,-0.083994,-0.01741,-0.04612
-0.052246,1.6475,-2.1967,8.9437,-0.075442,0.0079412,-0.032987
-0.084778,1.6867,-1.9809,9.0221,-0.043677,0.039095,-0.0012217
-0.12457,1.6671,-2.1378,8.9437,0.0061087,0.073915,0.0024435
-0.14359,1.5298,-2.3732,9.0417,0.061087,0.11759,-0.04612
-0.15118,1.3533,-2.687,8.8652,0.098044,0.14447,-0.050091
-0.16122,1.4318,-2.589,9.0221,0.0956,0.14111,-0.040317
-0.15781,1.6867,-2.1182,9.2575,0.05284,0.13011,-0.020769
-0.16916,1.6867,-1.8829,9.1986,-0.018937,0.11301,-0.0058032
-0.16745,1.6867,-2.1378,8.9044,-0.07086,0.082772,-0.0045815
-0.17148,1.7456,-2.0006,8.316,-0.1179,-0.26145,-0.11484
-0.16806,1.6867,-1.9809,8.3749,-0.22755,-0.23854,-0.10201
-0.15799,1.6083,-1.9809,8.7475,-0.27031,-0.16524,-0.14325
-0.15747,1.6083,-1.7848,9.1202,-0.28619,-0.080329,-0.12889
-0.168,1.824,-1.9613,9.2183,-0.27245,-0.020769,-0.11179
-0.17545,1.8044,-2.1967,9.1202,-0.18692,0.036652,-0.099571
-0.17389,1.7456,-2.8439,8.9044,-0.03879,0.10354,-0.094379
-0.17856,1.9221,-3.2166,9.6694,0.12065,0.18479,-0.10476
-0.189,2.0594,-2.7459,10.062,0.22755,0.25259,0.056505
-0.22128,1.7456,-2.0594,10.258,0.22052,0.26878,0.068111
-0.27316,2.0202,-1.7848,9.3555,0.11729,0.24312,-0.067501
-0.34256,2.4909,-1.4906,8.1003,-0.0009163,0.21716,-0.040623
-0.40454,2.6086,-1.5102,7.2373,-0.079718,0.20922,-0.028405
-0.44043,2.1575,-1.824,7.1196,-0.11148,0.22633,-0.023824
-0.45505,2.1378,-2.3536,7.5511,-0.074526,0.24557,-0.0030543
-0.45444,2.4713,-2.2751,8.2768,0.014661,0.27611,0.029627
-0.41974,2.3732,-2.2163,9.0221,0.068417,0.30879,0.27
-0.3768,2.1575,-2.0594,8.8652,0.064752,0.32284,0.24587
-0.33896,2.0202,-1.9809,8.0022,0.076358,0.3094,0.071471
-0.30621,1.6083,-1.9809,8.0022,0.034514,0.29688,0.082467
-0.27658,1.6475,-1.9809,8.8064,-0.059559,0.29932,0.10599
-0.25732,0.98067,-2.0594,9.6694,0.0042761,0.2813,0.1573
-0.26114,1.1964,-2.1182,9.5713,0.082161,0.21961,0.21961
-0.26929,1.0395,-2.2751,8.5514,0.090713,0.20769,0.25351
-0.29837,-0.68647,-3.7658,10.356,0.13103,0.19303,-0.077885
-0.31183,-0.078453,-3.4519,12.023,0.019242,0.058032,-0.096517
-0.32654,1.1768,-2.0398,10.591,-0.16799,-0.072388,0.12187
-0.33609,1.3533,-0.96105,7.6884,-0.30788,-0.21838,0.019242
-0.34134,0.74531,-0.86299,7.0216,-0.36285,-0.3207,-0.023824
-0.34952,1.2356,-1.5298,7.5903,-0.3656,-0.35552,-0.073304
-0.35175,1.118,-1.9025,8.4729,0.14294,-0.32865,-0.085827
-0.34445,0.96105,-2.3144,9.1594,0.13622,-0.28558,-0.077274
-0.32959,1.1964,-2.4124,9.434,-0.022907,0.1408,-0.064752
-0.27884,1.2945,-2.8243,9.5909,0.059559,0.1408,-0.13531
-0.23447,1.4906,-2.5301,9.434,0.14478,0.15394,0.0067195
-0.18903,1.824,-2.6282,9.0613,0.19487,0.17226,0.023824
-0.15588,2.0006,-2.432,8.8652,0.18906,0.1628,0.035736
-0.13922,2.1575,-2.0398,8.3945,0.11637,0.12065,0.049786
-0.14011,1.7456,-1.8044,8.2768,-0.0058032,0.068722,0.065973
-0.13583,2.0006,-1.8829,8.6495,-0.11729,0.031765,0.02138
-0.12131,2.1575,-2.1967,9.0025,-0.032987,0.039706,0.26756
-0.11334,2.2163,-2.4713,8.8652,0.16799,0.12737,0.19364
-0.12555,2.1378,-2.4517,8.5318,0.36285,0.22633,-0.16218
-0.13669,2.4713,-2.2751,8.218,0.52137,0.29719,-0.11729
-0.15829,2.1182,-2.1182,8.218,0.58979,0.34697,-0.045815
-0.17392,2.1182,-2.6086,8.316,0.59926,0.34147,0.057116
-0.18829,2.2359,-2.9028,8.3945,0.5791,0.33872,0.18051
-0.18274,2.4909,-2.7262,8.7083,0.3036,0.29413,0.25626
-0.16605,2.7459,-1.7848,9.8066,-0.042455,0.026573,-0.10965
-0.15591,3.1774,-2.1378,9.7478,-0.32223,-0.29627,-0.14691
-0.14743,3.1185,-3.0597,9.4144,-0.49724,-0.5736,0.053451
-0.13742,3.0597,-3.2166,8.8456,-0.52901,-0.67409,-0.036346
-0.15668,2.2359,-2.589,8.9044,-0.45204,-0.64599,-0.10476
-0.2142,0.8826,-1.8044,8.8456,-0.27642,-0.53359,-0.14844
-0.29495,-1.6475,-2.5301,9.787,-0.10965,-0.38362,-0.14294
-0.37729,-2.0202,-2.687,12.317,-0.052534,-0.27978,-0.10171
-0.4505,0.27459,-2.2751,10.748,-0.028711,-0.23793,0.022602
-0.50479,1.3533,-2.3144,6.8647,0.02138,-0.19884,0.0058032
-0.5578,0.41188,-1.5691,6.3351,0.027794,-0.14966,-0.14294
-0.58426,0.60801,-1.2553,7.4531,-0.047342,-0.10629,-0.10079
-0.58096,1.1964,-1.6279,8.2376,-0.20586,-0.075747,-0.065057
-0.55368,1.7456,-1.3533,8.6299,-0.39706,-0.059559,-0.019242
-0.51349,1.9809,-1.1964,8.4141,-0.55344,-0.057116,0.022297
-0.45627,2.2359,-1.824,8.1003,-0.61789,-0.071471,0.031154
-0.40744,2.6086,-2.9028,7.9238,0.12706,-0.040012,-0.040317
-0.34503,2.8047,-3.1381,8.2376,0.099571,0.007025,-0.041233
-0.28018,2.432,-2.589,8.9437,0.040623,0.037874,-0.034208
-0.24826,2.2163,-2.432,9.434,-0.02474,0.038485,-0.0085521
-0.22012,2.2163,-2.6086,9.434,-0.06689,0.01405,-0.0058032
-0.21045,2.2948,-2.7655,9.434,-0.064141,-0.01741,-0.014966
-0.21487,2.1182,-2.4713,9.2575,0.01741,-0.041844,-0.026267
-0.23273,2.079,-2.2751,9.0613,0.097433,-0.050091,-0.033598
-0.2453,1.8437,-2.0594,9.179,0.077274,-0.036041,-0.030543
-0.2562,1.8044,-2.2751,9.0417,0.072998,-0.0045815,-0.038485
-0.26453,2.1378,-2.3144,8.9044,0.028711,0.030849,-0.034514
-0.26761,2.0202,-2.6086,9.0613,-0.036652,0.053451,-0.023213
-0.27728,2.0006,-2.4713,9.1594,-0.088881,0.065363,-0.012828
-0.28464,1.9221,-2.1967,9.0025,-0.1066,0.06353,-0.010385
-0.28781,1.6083,-1.7456,9.0613,-0.02138,0.043066,-0.010079
-0.28778,1.5495,-1.9809,8.8652,0.040012,0.027794,-0.016188
-0.29541,1.5298,-2.6674,8.6299,0.034819,0.026573,-0.025962
-0.31165,1.9221,-2.9812,8.316,0.071777,0.037874,-0.035736
-0.32211,1.824,-2.3144,8.4337,0.064446,0.053756,-0.039706
-0.34396,1.4318,-2.0006,8.5514,0.014966,0.061392,-0.036346
-0.35498,1.6867,-2.1182,8.6495,-0.051313,0.058338,-0.022297
-0.35294,1.8633,-2.432,8.7083,-0.093462,0.039401,-0.0079412
-0.362,1.9613,-2.2948,8.5318,-0.079718,0.0097738,-0.0030543
-0.367,1.9221,-2.1967,8.7083,-0.026267,-0.0079412,-0.012828
-0.38632,2.0006,-1.9417,8.7083,0.20769,0.016493,-0.055283
-0.39859,1.9221,-2.0594,8.7868,0.21625,0.022602,-0.058643
-0.41263,2.0006,-2.4517,8.8652,0.1741,0.015272,-0.038179
-0.42291,1.7456,-2.3144,8.9437,0.094379,-0.013744,-0.018631
-0.42642,1.9613,-2.0986,8.9437,0.016799,-0.058338,-0.0054978
-0.43735,1.6867,-1.9809,9.0613,-0.039095,-0.096517,-0.0030543
-0.44263,1.8437,-2.2163,8.8652,-0.075747,-0.10751,-0.013439
-0.45657,1.8633,-2.6086,8.4926,-0.059865,-0.083689,-0.033292
-0.45728,1.824,-2.3732,8.6299,0.068722,-0.14355,-0.036957
-0.45169,1.5298,-2.2751,9.0417,0.12614,-0.076969,-0.0024435
-0.45062,1.6475,-1.8829,9.0025,0.10873,-0.034208,-0.034514
-0.44989,1.8633,-1.9025,8.8064,0.060476,-0.026573,-0.0088575
-0.45245,1.824,-1.9613,8.8456,0.018021,-0.029016,0.0067195
-0.44501,1.824,-2.0006,8.9044,0.03146,-0.014661,-0.013439
-0.43582,1.6475,-2.2948,8.8652,0.098655,0.03543,-0.043982
-0.42319,1.824,-2.6086,8.4926,0.16432,0.1069,-0.055894
-0.4071,1.6083,-2.3536,8.7475,0.19975,0.1628,0.032376
-0.38507,1.6083,-1.9809,8.9044,0.19456,0.18662,0.036346
-0.36072,1.6867,-1.824,9.0417,0.15547,0.18143,0.037263
-0.33929,1.7652,-1.8437,9.6497,0.11332,0.16371,0.04948
-0.32532,1.8633,-2.8047,10.12,0.096517,0.14325,0.03879
-0.30032,2.0202,-2.6086,9.3359,0.087354,0.12614,0.044288
-0.28119,1.4514,-2.4713,9.2183,0.05284,0.11454,0.048869
-0.2652,1.3729,-1.7456,10.062,-0.0094684,0.1014,0.04215
-0.26459,1.0787,-1.6475,9.689,-0.038179,0.0058032,-0.056505
-0.25787,1.6475,-1.824,8.5514,-0.059254,-0.033598,-0.059559
-0.26221,1.6083,-1.9025,7.8453,-0.073304,-0.039706,0.069639
-0.26785,1.5102,-2.4124,7.7473,-0.03543,-0.048869,0.035125
-0.25928,1.6083,-2.9812,8.1591,0.081551,-0.052229,0.04612
-0.24435,1.9025,-2.3732,8.2572,0.2532,-0.045509,0.068111
-0.23764,2.0006,-2.0594,8.5514,0.3427,-0.064752,0.034208
-0.23642,2.4517,-2.432,8.2572,0.29199,-0.12706,-0.023824
-0.24841,2.4909,-2.1967,8.0611,0.14172,-0.22358,-0.0281
-0.27066,1.9613,-1.5102,8.3749,-0.01741,-0.30024,-0.029932
-0.30347,2.0202,-1.3533,8.5514,-0.14447,-0.33262,-0.078802
-0.32858,2.1378,-1.5691,9.0221,-0.21808,-0.33109,-0.088575
-0.35867,2.0594,-1.8437,9.3359,-0.22602,-0.29627,-0.074526
-0.38846,1.824,-1.5298,9.8066,-0.19975,-0.24129,-0.051618
-0.40918,1.8437,-1.824,9.3752,-0.1628,-0.20678,-0.034514
-0.42493,2.1378,-2.3732,9.0417,-0.087659,-0.18662,-0.029322
-0.42899,2.4909,-2.4124,8.7279,0.04948,-0.010385,-0.040012
-0.4227,2.0594,-2.2751,8.8652,0.035125,-0.022602,-0.068111
-0.41943,2.0202,-1.9613,9.1202,0.0039706,-0.039095,0.025962
-0.40753,1.824,-2.1967,9.1202,-0.016493,-0.065668,0.021075
-0.4136,2.0202,-2.432,8.8064,-0.013439,-0.097433,0.020464
-0.42575,1.9809,-2.0986,9.0025,0,-0.12584,0.012217
-0.43063,1.6867,-1.7848,9.3359,0.0085521,-0.14783,-0.0048869
-0.43015,1.8437,-1.824,9.1006,0.039706,-0.15211,-0.019242
-0.42789,1.8633,-2.0594,8.6887,0.03207,-0.13775,-0.085216
-0.44437,2.0006,-2.2555,8.4141,0.070555,-0.1237,-0.10049
-0.45123,1.7064,-2.687,8.3357,0.095906,-0.12217,-0.097128
-0.45438,1.6083,-2.4124,8.4729,0.095295,-0.13134,-0.089797
-0.45227,1.3533,-1.9417,8.8064,0.069028,-0.1405,-0.10324
-0.46167,1.216,-1.726,8.9044,0.024129,-0.13775,-0.11148
-0.44531,1.6083,-1.9417,8.7475,-0.029016,-0.13042,-0.10232
-0.45715,1.6671,-1.9809,8.5514,-0.081245,-0.11729,-0.089797
-0.43936,1.7064,-1.8829,8.6299,-0.19517,-0.070555,0.043066
-0.42767,2.0006,-1.7848,8.7083,-0.18143,-0.055283,0.053451
-0.40787,1.824,-1.8829,8.8652,-0.15088,-0.038485,-0.020159
-0.388,2.3732,-1.9417,9.0025,-0.11668,-0.016493,-0.0094684
-0.37573,2.4713,-1.8829,9.179,-0.0956,0.0094684,0.01069
-0.35016,2.4909,-2.0594,9.1202,-0.090103,0.019242,0.03207
-0.32715,2.2948,-2.3144,9.1986,-0.088575,0.017104,0.04215
-0.3219,2.2359,-2.6086,9.2575,-0.075136,0.018326,0.041539
-0.30914,2.1575,-2.432,9.1986,-0.093768,0.026267,0.043371
-0.27783,2.0006,-2.2751,9.2575,-0.14233,0.026573,0.030543
-0.27261,2.0202,-2.3732,9.179,-0.16921,0.01741,0.068111
-0.25565,2.0006,-2.6086,9.1202,-0.15882,0.0061087,0.078191
-0.2428,2.1575,-2.6086,8.8652,-0.1127,0,0.075136
-0.2471,2.1575,-2.4517,8.8652,-0.046731,-0.0018326,0.065057
-0.23865,2.334,-2.0594,8.8652,-0.055589,-0.0051924,0.060781
-0.25656,2.3732,-1.6475,8.4926,-0.058948,-0.0045815,0.057727
-0.2562,2.5497,-1.6475,8.316,0.010996,0.019548,0.0079412
-0.2229,2.432,-2.1575,8.1199,0.058643,0.034514,0.0281
-0.20459,2.6478,-1.824,7.5903,0.09896,0.057116,-0.057116
-0.19812,2.2359,-2.1378,7.7473,0.10782,0.080023,-0.048258
-0.19998,2.5301,-2.6282,8.1787,0.065668,0.078191,-0.034819
-0.17432,1.9809,-2.9028,8.7083,0.015272,0.065973,-0.010079
-0.19897,1.9221,-2.8832,9.0025,-0.0042761,0.072998,-0.0076358
-0.19626,1.824,-2.2751,9.0417,-0.0024435,0.08827,-0.012523
-0.19684,1.6671,-1.9809,8.9633,-0.03146,-0.0058032,0.024435
-0.20642,1.9025,-2.432,8.8652,-0.097433,-0.029627,0.013744
-0.19528,2.1575,-2.6086,9.0221,-0.091324,-0.021075,0.051313
-0.19894,2.1182,-2.3144,9.2183,-0.024435,0.011606,0.037874
-0.20105,2.0006,-1.6475,9.3752,0.058643,0.053756,0.034208
-0.19232,1.9221,-1.3729,9.1986,0.11576,0.086437,0.030238
-0.19238,2.0594,-1.6475,8.6887,0.1408,0.10049,0.028405
-0.2002,2.0594,-1.9417,8.5514,0.13408,0.1066,0.0281
-0.19672,2.0202,-1.9417,8.4926,0.047342,0.11912,-0.023518
-0.19333,2.2948,-1.9809,8.8652,0.0036652,0.13439,-0.029322
-0.19025,2.1771,-2.0986,8.7083,0.0054978,0.13958,0.0009163
-0.17905,2.2751,-2.3732,8.4141,0.032987,0.14875,-0.0076358
-0.17493,2.1575,-2.2555,8.4141,0.041844,0.18051,-0.014661
-0.17865,2.0006,-2.2751,8.7475,0.025962,0.20464,-0.025045
-0.17007,2.2948,-2.2163,9.0417,0.014661,0.18876,-0.028405
-0.16434,2.1771,-2.432,9.1202,0.0048869,0.1628,-0.023518
-0.16772,2.1575,-2.432,9.3163,-0.017104,0.14142,-0.054062
-0.17087,2.2948,-2.432,9.1594,-0.036957,0.11515,-0.057727
-0.15503,2.3732,-2.432,8.8652,-0.032681,0.093462,-0.0281
-0.15088,2.0594,-2.2948,8.7475,-0.029932,0.075136,-0.026573
-0.15164,2.2751,-1.824,8.7083,-0.034208,0.047342,-0.016188
-0.14975,2.1771,-1.6475,8.9437,-0.036041,0.024129,-0.0058032
-0.14691,2.0006,-1.6867,8.6887,-0.03879,0.011301,-0.0281
-0.13617,1.6083,-2.2751,8.6299,-0.029016,0.010996,-0.048258
-0.11835,1.6083,-2.687,8.7279,0.31001,-0.062614,-0.059559
-0.083893,1.7456,-2.432,8.6887,0.26939,-0.14722,-0.052229
-0.045563,1.6671,-1.6867,8.6495,0.24801,-0.23274,-0.069639
-0.0093689,1.7456,-1.471,8.6887,0.28711,-0.2584,-0.066279
0.02359,1.6867,-1.6475,8.7868,0.33017,-0.2416,-0.065668
0.049561,1.5298,-1.9613,8.8456,0.33078,-0.23243,-0.047647
0.07312,1.2356,-1.726,8.7083,0.30177,-0.23518,-0.018937
0.096161,1.1964,-1.1964,8.8064,0.29016,-0.1857,-0.024435
0.12839,1.118,-1.6279,9.1006,0.22083,-0.043371,-0.026267
0.16681,1.5298,-2.589,9.5125,0.22969,0.089492,0.029322
0.19702,1.0787,-3.4127,10.199,0.26267,0.16096,0.010385
0.22284,0.74531,-3.7854,10.12,0.3711,0.18021,0.023213
0.20959,1.1964,-2.3732,9.5125,0.42547,0.14844,-0.024435
0.1922,1.2945,-1.7456,9.434,0.33445,0.13836,-0.10599
0.16525,1.7064,-1.6475,9.3555,0.343,0.11759,-0.16035
0.12231,1.6083,-1.3533,9.6301,0.3149,0.072388,-0.1014
0.077026,2.5497,-1.5102,8.1591,-0.44135,0.026267,-0.04612
0.051239,2.9224,-0.41188,7.6296,-0.74984,-0.010996,0.033598
0.032959,2.2948,-0.56879,8.1787,-0.92943,-0.040623,0.096211
0.030823,2.2359,-1.1768,9.9636,-0.86804,-0.08827,0.13531
0.037781,2.7851,-0.80415,10.748,-0.59315,-0.16524,0.16188
0.081512,3.0008,0.13729,9.9636,-0.22205,-0.17593,0.14844
0.11905,2.9028,0.82376,8.7083,0.12584,-0.076358,0.054978
0.15701,2.4517,-0.39227,7.61,-0.13378,0.10293,-0.03879
0.19876,2.4713,-2.4713,7.4531,-0.08491,0.28314,0.097738
0.25702,3.1774,-2.4124,7.9434,-0.17471,0.36133,0.1127
0.29553,2.4909,-2.0986,8.8652,-0.17623,0.34208,0.10324
0.34009,2.1378,-2.1575,9.3555,-0.10843,0.30177,0.1069
0.38852,1.8437,-2.4124,9.1202,-0.026573,0.29047,0.078496
0.41754,0.90221,-2.6282,9.689,-0.0018326,0.30879,0.061392
0.41101,0.49033,-3.0008,9.8459,0.03207,0.31673,0.066584
0.3559,-0.27459,-3.1577,8.7083,0.037568,0.27367,0.081245
0.29263,-0.27459,-2.3732,11.14,-0.012828,-0.015272,0.036652
0.23154,2.0006,-1.6279,10.454,0.30299,0.040317,0.0067195
0.19016,2.3928,-1.5298,7.6884,0.66981,0.14936,-0.24526
0.14252,2.0594,-1.5298,7.2373,0.84758,0.20739,-0.22419
0.10205,1.9809,-2.1378,8.0611,0.76358,0.13744,-0.16432
0.083527,2.942,-2.8439,7.7473,0.52046,-0.020159,-0.083078
0.10931,2.4517,-2.687,7.2373,0.24679,-0.21197,-0.022907
0.15073,1.6083,-2.0594,8.0022,-0.050396,-0.36255,0.027794
0.17386,1.1768,-1.4318,9.3163,-0.91294,-0.50427,0.002138
0.19073,0.98067,-1.3729,9.0417,-1.3008,-0.64568,0.062003
0.18372,-0.05884,-1.118,8.4141,-1.4358,-0.72143,-0.0054978
0.17999,-2.4124,-0.78453,11.788,-1.3079,-0.75014,0.019853
0.18091,-0.21575,-1.118,11.454,-0.96578,-0.7138,0.01741
0.19827,0.41188,-2.3732,7.9042,-0.53481,-0.55008,-0.039095
0.20819,0.27459,-1.4318,7.1589,-0.099876,-0.33842,-0.084299
0.22458,0.41188,-0.94144,7.9238,0.25504,-0.16921,-0.07025
0.24945,0.92183,-1.4122,9.1202,0.45815,-0.013134,0.19792
0.29477,1.216,-0.64724,10.846,0.47831,0.084605,0.19059
0.3511,0.90221,-0.019613,12.199,0.35094,0.1292,0.097128
0.38132,1.3533,0.21575,12.886,0.12614,0.13439,0.11912
0.40228,2.2359,0.19613,10.827,-0.13347,0.094684,0.13011
0.39578,2.2751,-0.84337,8.5514,-0.3488,0.012523,0.15974
0.38083,2.0594,-2.432,7.0608,-0.46976,-0.073609,0.19517
0.36005,2.7851,-2.2751,6.3547,-0.5116,-0.10782,0.20953
0.3475,2.7459,-1.6867,7.2373,0.31673,0.33934,-0.16127
0.35281,2.687,-1.2553,8.4926,0.13042,0.068111,-0.21594
0.35861,2.3732,-0.8826,9.3359,-0.20281,-0.20403,0.13683
0.3558,2.0006,-0.84337,9.3359,-0.5003,-0.37507,0.048258
0.37305,2.0594,-1.471,8.7083,-0.55772,-0.39767,-0.065668
0.38657,2.1575,-1.9417,7.8649,-0.43402,-0.29474,-0.098044
0.38672,2.0594,-2.2948,7.61,-0.25565,-0.15485,-0.10721
0.38538,1.7456,-2.4517,8.0807,-0.14905,-0.058643,-0.13011
0.3844,1.5887,-2.432,8.9633,0.06017,0.11668,-0.0027489
0.3736,1.5298,-2.7262,9.5125,-0.019242,0.13989,0.010385
0.37189,1.5298,-2.7459,9.6497,-0.10324,0.12248,0.021075
0.34586,1.6867,-2.4517,9.4144,-0.15394,0.085216,0.027184
0.31442,1.8044,-2.5105,8.8652,-0.15455,0.054978,0.023824
0.27344,1.6867,-2.3144,8.8064,-0.12065,0.043371,0.01405
0.23392,1.6671,-2.432,8.9044,0.074526,0.047037,0.0027489
0.18616,1.7456,-2.5693,8.9437,0.10385,0.062003,-0.0058032
0.1478,2.0006,-2.3144,9.1202,0.031154,0.083994,-0.002138
0.12775,1.9809,-2.1967,9.2183,0.045204,0.096517,-0.0088575
0.10037,2.1182,-2.1575,9.0025,0.016188,0.093462,0.022602
0.078217,1.9025,-2.6086,8.7083,-0.02474,0.07758,0.030238
0.048615,1.824,-2.5105,8.9437,-0.066584,0.057727,0.029016
0.010559,1.6867,-2.1378,8.9437,-0.09163,0.056505,0.023518
-0.01474,1.6867,-1.6671,9.0417,-0.071777,0.064752,0.012217
-0.057617,1.4906,-1.5691,8.8064,-0.018326,0.0562,0.0042761
-0.090485,1.6867,-1.8044,8.6495,-0.032376,0.046426,-0.014661
-0.11838,1.8633,-2.1378,8.2376,-0.081245,0.047953,-0.019548
-0.14124,1.824,-2.1967,8.2572,-0.047037,0.053451,-0.014966
-0.15488,1.6867,-1.824,8.9437,-0.0018326,0.05681,-0.023213
-0.14938,1.6083,-1.7456,9.0613,0.049786,0.065363,-0.022602
-0.15247,1.4906,-2.0006,9.0417,0.084605,0.065363,-0.011301
-0.15005,1.6475,-2.3144,8.7279,0.078802,0.055283,0.00030543
-0.14853,1.7652,-2.5105,8.7083,0.032376,0.044288,-0.0045815
-0.13715,1.4514,-2.2751,8.9437,0.13714,-0.0076358,-0.022602
-0.12,1.6867,-2.2751,9.179,0.06017,-0.027184,0.0015272
-0.12201,1.7456,-2.1182,9.0025,-0.012828,-0.03879,-0.0281
-0.12402,1.8044,-2.2751,8.8064,-0.076969,-0.043982,-0.026878
-0.12244,1.6867,-2.2163,8.8652,-0.13378,-0.042761,-0.022297
-0.12384,1.6867,-2.3732,9.1202,-0.15363,-0.021686,-0.022297
-0.13953,1.8044,-2.1182,9.1986,-0.10782,0.01741,-0.034514
-0.13031,1.5298,-2.0594,9.0417,-0.014661,0.066584,-0.039095
-0.11923,1.4318,-2.4124,8.7083,-0.40378,-0.026573,0.22541
-0.10452,1.3533,-2.5693,8.8848,-0.60995,-0.13897,0.28008
-0.070343,1.5102,-2.3536,9.0613,-0.68631,-0.19426,0.045204
-0.025726,1.8044,-2.3732,9.179,-0.58857,-0.21258,0.058643
-0.00094604,1.7064,-1.9809,9.4732,-0.40684,-0.18815,0.08827
0.024933,1.9809,-2.3144,9.9636,-0.18754,-0.082772,0.10904
0.032318,2.2359,-2.7459,9.4144,0.073609,0.060781,0.11881
0.03363,2.4517,-3.6285,8.3945,0.40653,0.2529,0.16066
0.03241,2.3732,-3.2362,9.179,0.59284,0.47831,-0.036041
0.037567,2.4713,-0.56879,10.513,0.50519,0.51618,-0.026267
0.021698,2.4909,0.13729,9.9636,0.27489,0.32773,0.28069
-0.010376,2.2948,-0.68647,8.1787,-0.084605,0.051007,0.2135
-0.036743,2.2163,-1.0199,6.9627,-0.44135,-0.20281,0.10934
-0.076691,1.824,-1.2553,7.1785,-0.6802,-0.35125,-0.0012217
-0.074585,1.8633,-2.3536,7.3746,-0.75564,-0.39034,-0.073609
-0.063599,1.2945,-2.9028,7.7473,-0.67623,-0.36438,-0.065668
-0.044739,0.8826,-1.6279,8.6887,-0.10873,0.051924,-0.062308
-0.045807,0.41188,-1.1768,9.5713,-0.081551,0.11698,-0.04215
-0.040497,0.56879,-1.6475,10.513,-0.089492,0.17074,-0.077274
-0.074432,1.0787,-2.2948,9.9047,-0.04215,0.25229,-0.10201
-0.12378,1.2356,-1.3533,7.0608,0.1124,0.36041,-0.15149
-0.18097,-0.98067,-0.8826,9.5125,0.30299,0.48258,-0.17196
-0.23849,1.0787,-0.52956,9.8263,0.37293,0.5507,-0.17013
-0.27121,1.2945,-1.118,7.8649,0.25198,0.50671,-0.12553
-0.30148,2.2359,-1.8829,9.1594,-0.056505,0.39401,0.1573
-0.31284,3.2362,-2.7851,8.1199,-0.15424,0.27855,0.076053
-0.30658,2.2163,-2.5693,7.708,-0.17104,0.17654,-0.047953
-0.31396,-1.4318,-2.7851,13.455,-0.14355,0.10232,-0.022297
-0.30334,0.92183,-1.3337,12.807,-0.095906,0.085216,0.019853
-0.27524,2.2948,-0.49033,8.3357,-0.00030543,0.17226,0.058643
-0.25391,1.3925,-1.6475,6.1978,-0.080329,0.26145,0.10873
-0.23309,1.1964,-2.6674,6.1978,-0.23274,0.13195,0.15058
-0.19232,1.6083,-2.4517,7.5511,-0.041233,0.091935,0.0036652
-0.11655,1.0395,-2.1575,9.4928,-0.050091,0.060781,0.015577
-0.024719,0.76492,-1.9025,9.8459,-0.047037,0.039401,0.032376
0.088776,1.0395,-1.824,9.3359,-0.033903,0.027489,0.016493
0.1839,1.824,-2.432,8.1591,-0.020464,0.018937,0.0088575
0.25415,2.0006,-2.3732,7.8649,-0.0024435,0.01741,0.027794
0.30771,2.0006,-2.2948,8.316,0.044288,0.033292,0.027184
0.3414,1.824,-2.2751,8.8652,-0.0094684,0.07422,0.0073304
0.36542,1.7652,-2.1182,9.2771,0.16463,0.24404,-0.17226
0.38083,1.6867,-2.432,9.3752,0.19945,0.25748,-0.14508
0.36328,1.7456,-2.9028,8.5514,0.17654,0.24618,0.029932
0.32272,1.8437,-2.7655,8.4141,0.08491,0.17287,0.020769
0.27469,1.0591,-2.432,8.8848,-0.035736,0.070555,-0.0051924
0.20413,0.70608,-2.0986,9.4928,-0.11637,-0.01741,-0.042455
0.16467,1.118,-2.0986,9.6694,-0.12309,-0.058948,-0.095906
0.13013,1.824,-2.5105,9.179,-0.072693,-0.052534,-0.16005
0.0896,1.824,-2.2751,8.9044,0.0036652,-0.022602,-0.031765
0.077087,1.8437,-1.7456,9.1594,0.061392,-0.00030543,-0.0048869
0.062012,1.4318,-1.6475,9.5125,0.070555,0.013134,-0.1127
0.041534,1.7456,-2.1575,9.179,0.024129,0.00030543,-0.075747
0.059052,1.7064,-2.2751,8.4141,-0.051924,-0.04948,-0.043982
0.066071,1.1964,-2.2163,8.8064,-0.11484,-0.091019,-0.031154
0.07251,1.0787,-2.3144,8.5514,-0.13531,-0.08827,-0.039401
0.087311,1.1964,-2.2948,8.3945,-0.091935,-0.05284,-0.045509
0.08313,0.96105,-1.9809,8.4141,-0.0079412,-0.007025,0.028405
0.076874,0.76492,-1.9417,8.6887,-0.033903,0.018326,0.035125
0.089142,1.0591,-2.1182,9.0221,-0.016188,0.025656,0.007025
0.095795,0.90221,-2.2163,9.0613,0.034514,0.03146,-0.0058032
0.10208,1.3533,-2.5301,8.7083,0.083078,0.043677,-0.021075
0.10547,1.5102,-2.3732,8.0807,0.086132,0.077274,-0.032987
0.088776,1.5102,-2.1967,9.1594,-0.01741,0.11668,-0.0281
0.067657,1.3533,-2.2948,10.199,0.012828,0.11973,0.0045815
0.023712,1.8044,-2.9028,9.8851,0.068722,-0.041233,0.037874
-0.044922,2.1575,-3.4519,8.4141,-0.13225,-0.10843,0.092852
-0.13068,1.7652,-1.8829,6.5312,-0.28802,-0.1518,-0.11057
-0.20822,-1.1572,-1.2553,11.846,-0.36591,-0.1631,-0.11606
-0.25583,0.5884,-1.5298,12.494,-0.35064,-0.14661,-0.097128
-0.2963,1.6867,-1.9809,8.5514,-0.2306,-0.093768,-0.071777
-0.32132,0.8826,-1.7848,7.0019,-0.029016,-0.0039706,-0.044899
-0.33368,1.0591,-1.9417,6.9627,0.16157,0.099876,-0.012217
-0.32571,1.2356,-2.5105,8.0218,0.20006,0.16432,0.13164
-0.29614,0.90221,-1.9809,9.3163,0.071471,0.17593,0.15577
-0.25653,0.54917,-1.4906,9.3359,-0.058032,0.16768,0.10965
-0.20993,0.90221,-1.5102,8.7083,-0.11545,0.1573,0.10293
-0.15247,1.3729,-1.8437,8.4337,-0.10904,0.15974,0.10018
-0.12064,1.6867,-2.2163,8.1591,-0.072998,0.18082,0.09896
-0.084473,1.9025,-1.9417,8.0022,-0.020159,0.20708,0.1014
-0.054169,1.7456,-1.5298,8.3945,0.039706,0.219,0.10904
-0.039856,1.6867,-1.5102,8.6495,0.078191,0.22999,0.041844
-0.038818,2.0006,-1.9809,8.7083,0.090713,0.25381,0.029627
-0.042328,1.9221,-2.0594,8.7083,0.10415,0.24679,0.16677
-0.05954,1.7456,-2.2751,9.0221,0.11851,0.20525,0.1628
-0.05603,1.5495,-2.432,9.1006,0.11606,0.15791,0.15241
-0.054047,1.3925,-2.4713,9.5713,0.094684,0.10232,0.13714
-0.082428,1.5298,-2.5105,10.513,0.076664,0.023518,0.098349
-0.091431,1.3925,-2.687,10.827,0.06017,-0.062919,0.060476
-0.10919,2.1575,-2.4124,9.8851,0.040928,-0.12828,-0.14478
-0.12851,2.6086,-1.8829,8.2572,0.014661,-0.16157,-0.15821
-0.16687,2.4517,-1.5298,7.8061,-0.031765,-0.14203,0.014355
-0.20459,1.7456,-2.0594,8.2376,-0.074831,-0.094379,-0.0018326
-0.24069,2.2359,-2.5105,8.6299,-0.086437,-0.0079412,-0.025045
-0.26288,2.2948,-1.9025,9.1202,-0.085521,0.07086,-0.058338
-0.27332,1.6083,-1.6867,9.4928,-0.048258,0.078496,-0.076664
-0.27805,1.824,-1.6671,9.2575,0.053756,0.068722,-0.10354
-0.28101,1.4318,-2.1967,9.0613,-0.17043,0.026267,0.12034
-0.26077,1.5298,-2.6086,8.5514,-0.30024,-0.057727,0.11851
-0.23862,1.0395,-1.8437,9.434,-0.354,-0.12126,0.030543
-0.23355,0.33343,-1.6475,10.12,-0.33475,-0.15821,0.021991
-0.26691,0.27459,-2.2751,6.8058,-0.27245,-0.17104,0.040928
-0.30466,-1.1572,-2.432,9.5321,-0.19181,-0.16249,0.068722
-0.34683,-1.1572,-1.5102,11.376,-0.12798,-0.13775,0.08827
-0.38306,0.49033,-0.62763,9.4144,-0.092546,-0.1066,0.1069
-0.41818,0.56879,-1.0395,7.1589,-0.019853,-0.067195,-0.018631
-0.4332,0.8826,-1.0003,6.6685,-0.030238,-0.02138,-0.032376
-0.44232,1.216,-1.1964,7.9238,-0.015577,0.010385,0.098655
-0.4437,1.3533,-1.9809,8.5318,0.026267,0.029016,0.071777
-0.43964,1.4318,-2.1967,9.4928,0.073304,0.046731,0.042761
-0.42126,1.1964,-1.824,10.16,0.096822,0.062308,0.02138
-0.39868,1.5887,-1.9613,9.8459,-0.054978,0.068417,0.0067195
-0.36847,1.5887,-2.1967,9.4732,-0.020159,0.08094,-0.002138
-0.32047,1.7652,-2.1967,9.0417,0.18143,0.10965,-0.0042761
-0.2869,2.0202,-1.9809,9.0025,0.24618,0.1347,0.024129
-0.25632,2.1575,-1.8437,8.4337,0.29841,0.14111,-0.027489
-0.23441,1.8633,-1.8044,8.7083,0.32834,0.13561,-0.018937
-0.22409,1.8044,-1.9809,8.7083,0.34972,0.12065,-0.022297
-0.22186,1.824,-2.0986,8.9437,0.36713,0.10171,-0.019853
-0.21857,2.0006,-2.2751,8.7475,0.1066,0.10232,-0.011606
-0.21631,1.9221,-2.1967,8.7083,0.13286,0.089186,-0.010996
-0.21323,1.3925,-2.0594,9.179,0.33934,0.059865,-0.11179
-0.22717,1.4906,-2.0006,9.787,0.20189,0.01069,-0.12462
-0.23923,1.2945,-1.6671,9.7478,0.047647,-0.078496,0.036346
-0.25513,0.56879,-1.118,9.8851,-0.06353,-0.18295,0.009163
-0.2756,0.5884,-1.5102,10.199,-0.15547,-0.24557,-0.051924
-0.30173,1.5102,-1.5298,9.6497,-0.24526,-0.25412,-0.088575
-0.33737,1.9613,-1.5691,8.4729,0.36835,-0.22388,-0.093157
-0.36639,1.9613,-1.8044,7.4531,0.38393,-0.1854,-0.098655
-0.375,1.7456,-1.9809,7.1589,-0.1628,-0.24526,-0.2306
-0.3587,1.6867,-1.6867,9.3359,-0.1182,-0.16677,-0.23182
-0.35672,1.7456,-1.3337,9.4928,-0.10293,-0.11484,-0.14844
-0.36511,1.7652,-2.0594,9.179,-0.10446,-0.066584,-0.17746
-0.36517,1.6867,-2.3144,10.513,-0.082467,-0.028405,-0.20372
-0.34955,1.6867,-1.1768,10.454,0.011301,0.0094684,-0.2022
-0.34204,2.0594,-0.098066,8.3749,0.11332,0.069028,-0.22174
-0.3309,1.5495,-0.56879,6.9235,0.18051,0.12095,-0.24618
-0.32031,1.6867,-2.2751,7.9434,0.19853,0.17043,-0.17349
-0.28952,2.2948,-2.7655,9.3359,0.16921,0.21228,-0.13683
-0.25546,1.9221,-2.0594,9.5125,0.099876,0.22877,-0.24496
-0.18958,1.6475,-1.4318,9.2575,0.0051924,0.21991,-0.24068
-0.18256,1.824,-1.726,7.7669,-0.050396,0.19609,-0.22358
-0.21683,0.25497,-1.824,7.61,-0.036041,0.17043,-0.21472
-0.25333,-1.3925,-2.0398,11.886,0.012828,0.15241,-0.21594
-0.26602,1.0787,-2.2751,11.846,0.037568,0.13958,-0.20647
-0.28363,2.4517,-2.2948,8.3945,0.013134,0.12095,-0.04612
-0.28833,1.5298,-1.6475,7.5903,-0.037568,0.094073,-0.0048869
-0.30115,1.6867,-1.3533,7.8649,-0.10018,0.069333,-0.10965
-0.2897,1.7652,-2.0986,8.4141,-0.15149,0.054062,-0.085216
-0.2778,1.9221,-2.2948,8.7083,-0.13225,0.041233,-0.068417
-0.25089,1.7456,-1.8437,8.4141,-0.040012,0.040317,-0.067195
-0.21329,1.6867,-1.4318,8.316,0.069944,0.06353,-0.076358
-0.18008,1.3337,-1.4318,9.0025,0.12767,0.098044,-0.067501
-0.159,1.0787,-1.8829,9.1202,-0.081245,0.19975,-0.21197
-0.14484,1.118,-1.5298,9.1986,0.26573,0.34453,-0.17776
-0.13919,0.86299,-1.216,9.2183,0.48472,0.43585,0.1689
-0.15527,0.76492,-1.2553,9.0025,0.32406,0.25687,0.21411
-0.16257,0.8826,-1.4318,8.5318,0.02138,-0.036652,0.17715
-0.15625,1.0395,-1.3533,8.9437,-0.29627,-0.3091,0.064752
-0.16302,0.98067,-0.94144,9.8263,-0.4386,-0.41172,-0.049786
-0.16223,0.92183,-0.70608,9.689,-0.37293,-0.36133,-0.1689
-0.17081,1.5298,-1.7848,9.0025,-0.17043,-0.089492,0.036957
-0.15839,1.7456,-2.432,9.6694,-0.1295,-0.055589,0.029016
-0.13425,1.216,-1.7848,10.67,-0.09499,-0.030543,0.048869
-0.11719,1.1964,-0.90221,11.376,-0.073609,-0.019548,0.052229
-0.11066,1.3533,-0.62763,9.9636,-0.058643,-0.0033598,0.052229
-0.13452,1.9221,-0.68647,8.5514,-0.050091,0.024129,0.04612
-0.15625,1.6867,-1.3337,7.6884,-0.22205,0.04215,0.040317
-0.17017,1.7064,-2.1378,7.1589,-0.20403,0.037874,0.036041
-0.15912,1.824,-2.3732,7.6492,0.007025,0.02138,0.0048869
-0.13324,1.6671,-1.9417,8.5514,0.029932,0.0064141,0.0042761
-0.10608,1.5298,-1.9809,8.8652,0.046426,-0.0015272,0.013134
-0.092224,1.824,-2.4713,8.7279,0.050091,-0.010996,0.011606
-0.040558,1.8044,-2.3144,8.5906,0.043677,-0.018326,0.018937
-0.031525,1.5298,-2.1967,8.5514,0.026573,-0.02138,0.014355
-0.016205,1.7456,-1.9809,9.1006,-0.044593,-0.022297,0.0051924
0.0029602,1.6671,-2.0986,9.2575,-0.024129,-0.014966,0.0051924
0.0061646,1.7456,-2.0594,9.434,-0.31001,0.043677,0.037263
0.013763,1.6867,-1.8829,9.434,-0.29413,0.056505,0.037568
0.016418,1.824,-2.0986,9.1986,-0.26542,0.082161,0.013439
0.011322,1.7652,-2.1378,8.8848,-0.21991,0.092852,0.0281
-0.004425,1.8633,-2.1575,8.7083,-0.16432,0.086132,0.037568
-0.022308,1.7456,-2.1575,8.4926,-0.12309,0.074831,0.043677
-0.061005,1.5298,-2.3144,8.7868,-0.10293,0.057727,0.046731
-0.091736,1.8044,-2.4517,8.7083,-0.083078,0.035736,0.044593
-0.11105,1.5298,-2.5105,8.9044,-0.06353,0.013439,0.033903
-0.1373,1.6867,-2.5693,9.0417,-0.054367,-0.009163,0.043982
-0.16104,1.7456,-2.6086,9.0025,-0.071166,-0.03207,0.041233
-0.18073,1.8437,-2.2751,8.9044,-0.10843,-0.058948,0.041233
-0.20856,1.6867,-2.0594,8.7083,-0.16066,-0.080634,0.047037
-0.22623,1.6867,-1.9613,8.7083,-0.20769,-0.10018,0.046426
-0.24219,1.8044,-2.3732,8.7083,-0.22907,-0.11301,0.033292
-0.26291,1.824,-2.5301,8.6299,-0.22877,-0.11026,0.025962
-0.27814,1.7064,-2.589,8.5318,0.01069,0.045204,-0.01741
-0.28235,1.5298,-2.589,8.8064,0.0061087,0.048869,-0.015882
-0.29309,1.6867,-2.2555,8.8456,0.0048869,0.050396,-0.024129
-0.30273,1.8633,-2.1378,9.0221,0.0064141,0.051007,-0.028405
-0.30377,1.9025,-2.2751,8.9437,0.0051924,0.053756,-0.031765
-0.32114,1.824,-2.2751,8.7868,-0.0009163,0.04948,-0.0281
-0.34549,1.6867,-2.2555,8.7083,-0.0012217,0.036041,-0.019853
-0.36426,1.5298,-2.2751,8.9437,0.0042761,0.023518,-0.018631
-0.38214,1.6867,-2.1967,9.0613,0.0076358,0.01741,0.011301
-0.40112,1.7064,-2.0986,9.1594,0.0079412,0.020769,0.019853
-0.41663,1.5495,-2.1182,8.9044,0.010079,0.020769,-0.01405
-0.42657,1.7456,-2.2751,8.7279,-0.007025,0.010996,-0.0058032
-0.4364,1.6867,-2.3732,8.8652,-0.034819,0.0039706,0.0015272
-0.45578,1.5887,-2.0398,8.9437,-0.052534,0.0033598,0
-0.47339,1.5495,-1.9417,8.9437,-0.045204,0.011606,0.0012217
-0.48001,1.6475,-1.9809,8.8064,-0.016188,0.022602,0.0061087
-0.4736,1.6083,-2.1378,8.6299,0.0036652,0.0085521,-0.0009163
-0.46408,1.8044,-2.2948,8.5514,-0.045204,-0.0036652,0.0051924
-0.46628,1.824,-2.3732,8.5514,-0.075747,-0.0079412,-0.011912
-0.45886,1.5298,-2.1967,8.7868,-0.085827,-0.0064141,-0.013744
-0.45279,1.6867,-2.1967,8.8652,-0.081551,-0.0039706,-0.007025
-0.44162,1.4514,-2.2751,8.9437,-0.062308,0.0061087,0
-0.42667,1.7652,-2.432,8.9437,-0.019548,0.024435,-0.0012217
-0.42331,1.7064,-2.2751,8.9044,0.032376,0.050702,-0.0033598
-0.41165,1.9221,-2.1575,9.0221,0.072693,0.076664,-0.018326
-0.40729,1.8437,-2.0986,9.0417,0.055589,0.090713,-0.021686
-0.40576,1.6475,-2.1378,8.9044,0.013134,0.091019,0.014661
-0.39169,1.5298,-2.2751,8.9044,-0.030849,0.07758,0.017715
-0.3812,1.216,-2.1967,9.0025,-0.048869,0.05681,0.016188
-0.37988,1.3533,-2.2751,8.7279,-0.041539,0.042455,0.0082467
-0.37805,1.5102,-2.1182,8.8064,-0.01741,0.036957,-0.002138
-0.36377,1.3533,-2.0594,8.8064,0.0058032,0.039706,-0.010996
-0.3584,1.2945,-2.0594,8.9437,-0.00030543,0.044593,-0.018021
-0.34766,1.0787,-1.8829,8.9044,-0.030238,0.034208,-0.0030543
-0.31488,0.8826,-2.1575,8.8064,-0.050702,0.032681,-0.051618
-0.29834,1.5298,-2.432,8.6887,-0.043371,0.027184,-0.051007
-0.28662,1.5298,-2.3144,8.7083,-0.0048869,0.015272,-0.044593
-0.2897,1.5102,-2.0986,8.6887,0.047342,0.010996,-0.046426
-0.28433,1.824,-1.9025,8.8064,0.059254,0.017715,-0.05284
-0.2775,1.9809,-1.9809,8.8064,0.031765,0.032681,-0.041233
-0.26559,1.824,-1.9809,8.7475,-0.15944,-0.10263,-0.045815
-0.26477,1.6867,-2.2555,8.7083,-0.13775,-0.10904,-0.052534
-0.26379,1.6867,-2.5693,9.1202,-0.079718,-0.091935,-0.049786
-0.26257,1.9809,-2.8243,9.3163,-0.021686,-0.066279,-0.059865
-0.25699,1.9221,-2.5301,9.1986,0.015272,-0.045204,-0.061697
-0.25531,2.0006,-2.589,9.0221,0.024435,-0.0281,-0.065363
-0.25818,2.2359,-2.8243,8.8064,0.0094684,-0.016799,-0.063835
-0.2623,2.2948,-2.2751,8.8064,-0.023518,-0.014966,-0.051007
-0.27814,2.0006,-2.0594,8.9437,-0.031765,-0.024129,-0.066279
-0.28723,1.7456,-2.0594,9.0025,0.029016,-0.032376,-0.067501
-0.29596,1.824,-2.4124,8.5514,0.081551,-0.024435,-0.069028
-0.31052,2.1378,-2.5105,8.7083,0.099876,-0.0009163,-0.085827
-0.314,1.6671,-2.3536,8.9437,0.081856,0.022907,-0.093157
-0.33209,1.6867,-2.2751,8.8456,0.036652,0.034514,-0.086132
-0.33411,1.5102,-2.2555,8.7279,-0.059559,0.026267,-0.072693
-0.34137,1.4906,-2.4124,8.6495,-0.067195,0.0061087,-0.066279
-0.3569,1.5298,-2.4517,8.5514,-0.021686,-0.014966,-0.040317
-0.35431,1.4906,-2.2751,8.4141,-0.019548,-0.028405,-0.047953
-0.36618,1.4318,-2.1378,8.8064,-0.020159,-0.022907,-0.062919
-0.37143,1.3533,-2.0006,8.8652,0.0027489,-0.011606,-0.055589
-0.37634,1.3337,-2.0594,8.7475,0.041233,-0.0030543,-0.047342
-0.37555,1.1964,-2.2751,8.6299,0.065973,0.011912,-0.042455
-0.36139,1.2945,-2.3732,8.7868,-0.0082467,0.03146,-0.039401
-0.35413,1.2356,-2.2555,8.8652,-0.027794,0.04612,-0.034208
-0.32846,1.4318,-2.2555,9.0025,0.031765,0.081245,-0.03879
-0.29422,1.2749,-2.2751,9.2575,-0.015272,0.071471,-0.045815
-0.24484,1.5495,-1.9809,9.0025,-0.022907,0.062614,0.0082467
-0.20233,1.4906,-2.0594,9.1006,-0.0009163,0.06689,-0.013744
-0.17722,1.8437,-2.3144,8.9437,0.036346,0.087048,-0.036041
-0.15897,1.9221,-2.4124,8.9044,0.078191,0.11545,-0.050091
-0.14331,1.824,-1.9025,9.0025,0.11057,0.14111,-0.051313
-0.14438,1.7652,-1.9809,9.0417,0.11881,0.15363,-0.044288
-0.14371,2.079,-2.2751,8.8064,0.088881,0.14386,-0.10324
-0.14487,2.1575,-2.6086,8.5514,0.035125,0.11332,-0.091324
-0.12512,2.2751,-2.432,8.5318,-0.009163,0.074526,-0.065363
-0.1351,2.2163,-2.2751,8.6299,-0.011606,0.044593,-0.086743
-0.13431,2.1182,-2.1967,8.7083,0.033292,0.036346,-0.10843
-0.12436,2.0594,-2.5105,8.6299,0.091935,0.041233,-0.12187
-0.13498,2.2948,-2.6674,8.5514,0.11942,0.035736,-0.12034
-0.14294,2.1771,-2.432,8.6299,0.1014,0.015272,-0.11057
-0.13403,1.9221,-2.2163,8.9437,-0.015272,-0.018937,-0.020159
-0.12195,1.6083,-2.4713,9.179,-0.073304,-0.055283,-0.0036652
-0.11194,1.5298,-2.7459,9.0417,-0.09896,-0.08827,-0.078496
-0.09491,1.3533,-2.4713,8.9437,-0.090713,-0.10721,-0.07086
-0.078857,1.0591,-2.0594,8.9633,-0.057116,-0.10385,-0.062919
-0.075439,1.0787,-1.9809,9.0221,-0.023824,-0.083689,-0.055589
-0.070862,0.98067,-1.9809,8.8064,-0.0067195,-0.057116,-0.04612
-0.069397,1.2945,-2.3732,8.4926,-0.0073304,-0.030238,-0.035736
-0.070557,1.2356,-2.0594,8.6887,-0.030238,-0.00030543,0.063835
-0.074554,1.118,-1.8437,8.7083,-0.068722,0.020769,0.065668
-0.08136,1.1964,-1.9613,8.7475,-0.099571,0.023213,0.011301
-0.083038,1.0787,-2.0594,8.9437,-0.09896,0.018021,0.021075
-0.079071,1.3533,-2.0594,9.1594,-0.073304,0.016799,0.024129
-0.071228,1.6083,-2.2163,8.9437,-0.054672,0.018021,0.031765
-0.06778,1.6671,-2.1378,8.5318,-0.047953,0.012828,0.054367
-0.068665,1.7456,-2.1575,8.5906,-0.04215,0.009163,0.068722
-0.070953,1.9025,-2.0006,8.8456,0.28894,-0.095906,-0.10232
-0.059448,1.824,-2.0986,8.8848,0.2645,-0.15088,-0.07025
-0.049133,2.0006,-2.2948,8.8652,0.13989,-0.24801,-0.091935
-0.0336,1.9221,-2.432,8.9044,-0.01069,-0.33811,-0.083383
-0.036804,1.9809,-2.2751,9.1006,-0.1182,-0.37171,-0.1066
-0.046173,1.824,-2.0594,9.0417,-0.13683,-0.34086,-0.146
-0.055695,1.824,-2.0006,8.9437,-0.092241,-0.27855,-0.1576
-0.065186,1.6083,-2.0986,8.8652,-0.057421,-0.21014,-0.13531
-0.056183,1.6475,-2.0594,8.5514,-0.0036652,-0.1463,-0.071471
-0.05835,1.6867,-1.8829,8.7083,0.032376,-0.083383,-0.050396
-0.050049,1.5495,-1.5691,8.6299,0.043371,-0.012828,-0.047037
-0.028107,1.4906,-1.4318,9.0417,0.040623,0.043371,-0.031154
-0.011261,1.5298,-1.9613,9.4928,0.042455,0.069639,-0.030238
0.025482,1.5102,-3.0597,9.8459,0.059254,0.093157,-0.043066
0.064636,1.3533,-3.3931,9.8066,-0.052229,0.12065,-0.064752
0.10287,1.7456,-2.6674,10.062,-0.036957,0.15211,-0.078191
0.14063,1.2945,-1.6475,10.101,0.068111,0.18143,0.12278
0.14691,2.0006,-1.8044,8.8064,0.074831,0.18326,0.14416
0.17416,2.1771,-1.6279,7.8649,0.11423,0.17685,-0.025351
0.17639,1.8633,-1.6279,7.5511,0.16249,0.17929,-0.014661
0.19128,1.6475,-2.0006,7.6884,0.1854,0.19059,-0.0048869
0.20966,1.5495,-2.3732,7.9434,0.16768,0.20953,0.018326
0.24863,1.3337,-2.7459,8.0022,0.086132,0.21044,0.049786
0.28506,1.118,-2.687,8.4337,0.085216,0.19334,0.087659
0.31512,1.2945,-2.432,8.4141,0.058032,0.12339,0.021991
0.34103,1.1964,-2.0986,8.316,0.013134,0.12981,-0.04215
0.35846,1.3729,-1.824,8.4141,-0.047953,0.12431,0.12004
0.37711,0.98067,-1.5102,9.0221,-0.11606,0.086743,0.135
0.3782,1.0199,-1.5102,9.3555,-0.17104,0.029932,0.13256
0.3576,1.2945,-1.8044,9.3752,-0.135,0.010996,0.10293
0.35031,1.6083,-1.9613,9.8851,0.019853,-0.007025,0.060781
0.33615,1.9809,-2.2555,10.375,0.20067,-0.053451,0.03879
0.28506,2.5497,-2.687,8.218,-0.48625,-0.20586,0.097128
0.24335,1.9613,-3.0008,10.415,-0.46365,-0.19945,0.11057
0.21774,2.1182,-1.7848,11.297,-0.39309,-0.208,-0.019242
0.20251,3.0008,-0.94144,9.6694,-0.31429,-0.17654,-0.080634
0.18417,2.6086,-0.64724,7.7473,-0.24404,-0.14783,-0.094073
0.16867,2.3732,-1.6475,7.4531,-0.17532,-0.13256,-0.057727
0.18018,2.6478,-3.1381,8.0022,-0.1576,-0.12798,-0.014355
0.1861,2.1575,-3.5304,8.5514,-0.22449,-0.14875,0.048869
0.20898,1.8044,-1.9809,8.7475,-0.34178,-0.19792,0.11087
0.23627,1.4318,-1.3729,8.5318,-0.44563,-0.26695,0.081245
0.27448,1.5495,-1.6671,8.0611,-0.48381,-0.31154,0.11209
0.29306,1.3533,-1.824,7.7865,-0.4331,-0.29902,0.099266
0.29367,1.0395,-1.4318,8.4141,-0.3204,-0.23427,0.082467
0.26147,-0.13729,-1.6475,7.7865,-0.20861,-0.14416,0.090408
0.22186,-2.6478,-2.2751,11.69,-0.13836,-0.059865,0.1179
0.20596,-1.0199,-1.824,12.964,-0.11484,-0.0018326,0.1292
0.19687,1.7456,-1.6475,9.689,-0.12156,0.033903,0.09163
0.18307,0.92183,-1.1768,7.5511,-0.12614,0.055894,0.10476
0.19778,0.54917,-0.78453,7.3942,-0.11148,0.074526,0.06353
0.21655,0.35304,-1.5102,8.0218,-0.082772,0.095906,0.058032
0.2746,1.2749,-2.5105,8.9437,-0.059865,0.11148,0.063835
0.36743,1.3729,-2.5105,9.5713,-0.045815,0.11087,0.076664
0.48618,1.6083,-2.0594,9.8263,-0.030849,0.1127,0.088575
0.58691,1.824,-2.0986,9.3752,-0.015577,0.11301,0.088575
0.67807,2.079,-2.432,8.5514,0.35461,0.42486,0.055283
0.7478,2.589,-2.5693,7.8453,0.11484,0.18143,0.035736
0.79108,2.1378,-2.1967,8.0022,-0.12645,-0.10629,0.22541
0.81696,2.2948,-2.0986,8.0807,-0.35003,-0.35613,0.077274
0.8486,2.4517,-2.2751,8.4729,-0.52076,-0.49388,-0.019242
0.8638,2.1575,-2.5693,8.7279,-0.53787,-0.47067,-0.071777
0.86328,1.7652,-2.687,9.1006,-0.48075,-0.36102,-0.073304
0.87009,1.6083,-2.6086,8.8848,-0.46487,-0.25962,0.0061087
0.86487,1.3729,-2.3732,9.0613,0.23976,0.11973,-0.07758
0.87665,1.3533,-2.2751,9.1202,0.15333,0.13164,-0.078802
0.89148,1.6475,-2.3144,9.1986,0.06353,0.11026,-0.10599
0.88336,1.3533,-2.432,9.1202,-0.0073304,0.075136,-0.094073
0.89011,1.6083,-2.4713,9.1202,-0.052229,0.050091,-0.092241
0.86877,1.6867,-2.3732,8.9044,-0.079718,0.036652,-0.089492
0.85971,1.5298,-2.432,8.5514,0.27061,0.030849,-0.085827
0.83609,1.3925,-2.432,8.8456,0.28924,0.03207,-0.079718
0.8147,1.7456,-2.942,8.5318,0.045815,0.04215,-0.07422
0.79507,1.6867,-3.0597,8.2768,0.11759,0.061697,-0.076053
0.77002,1.824,-2.5301,8.4141,0.14813,0.10018,-0.079107
0.74246,1.7064,-2.2751,8.6299,0.13622,0.13958,-0.076664
0.71851,2.1378,-2.5693,8.316,0.094073,0.1518,-0.070555
0.69034,2.4713,-2.9028,8.1787,0.032987,0.135,-0.069028
0.67401,2.2948,-3.0793,8.0807,-0.076969,0.10812,-0.073304
0.64505,2.0594,-3.5304,8.3945,-0.032376,0.072693,-0.074831
0.63052,2.2359,-3.2362,8.6887,-0.20708,-0.069028,-0.11698
0.59021,1.9221,-2.7459,9.0417,-0.22419,-0.043982,-0.10629
0.56647,1.7456,-2.432,9.0613,-0.20372,0.002138,-0.03207
0.53806,1.6083,-2.4517,8.8064,-0.15669,0.039401,-0.036346
0.51257,1.7456,-2.5105,8.6299,-0.084605,0.057116,-0.040928
0.48254,1.4514,-2.2948,8.8456,0.019548,0.07758,-0.064752
0.45935,1.4318,-1.9417,9.1986,0.12828,0.11362,-0.099266
0.43417,1.4318,-1.8829,9.1202,0.19639,0.14325,-0.12004
0.38693,1.4906,-1.8437,8.8848,0.062919,0.14325,-0.15608
0.36185,1.6475,-1.9613,8.8064,-0.012828,0.11759,-0.12981
0.36887,1.824,-2.5105,8.4141,-0.036346,0.086132,-0.10812
0.35278,1.8633,-2.3536,8.5514,0.0027489,0.054367,-0.11942
0.35358,1.5298,-2.3732,8.9633,0.090408,0.030849,-0.13286
0.37433,1.7064,-2.3732,9.1202,0.19364,0.029016,-0.14875
0.3985,1.3533,-2.432,9.0025,0.20128,0.057116,-0.15944
0.41431,1.5495,-2.5105,8.8848,0.14997,0.092241,-0.16493
0.436,1.5102,-2.5105,8.7279,0.29138,0.16707,-0.12553
0.47458,1.3533,-2.432,8.9044,0.20189,0.12828,-0.062614
0.50705,1.6671,-1.9809,8.6887,0.1011,0.04215,0.016493
0.53412,1.824,-2.2948,8.4926,0.11912,-0.057421,0.019853
0.55191,2.0006,-2.5105,8.5514,0.35736,-0.14203,-0.015577
0.5542,2.0594,-2.5693,8.6495,0.64202,-0.15302,-0.068722
0.5679,2.0202,-2.432,8.8064,0.70036,-0.069639,-0.1014
0.56384,1.7456,-2.5105,8.8652,0.48839,-0.054367,-0.13744
0.56305,1.6475,-2.432,8.9044,0.039401,0.0076358,0.039401
0.57718,1.5298,-2.3144,9.179,0.04215,0.014661,0.026573
0.58432,1.4906,-2.2555,9.1594,0.023824,0.014661,0.009163
0.57965,1.6475,-2.4124,8.8652,-0.01741,0.01741,0.027184
0.58566,1.5298,-2.0594,8.8064,-0.073609,0.024129,0.033903
0.58328,1.3925,-1.8437,8.7279,-0.12614,0.015577,0.039706
0.57413,1.2945,-1.9809,8.7083,-0.14844,0.0030543,0.048258
0.56769,1.5102,-2.5105,8.7083,-0.12095,0.0012217,0.049786
0.56821,1.5495,-2.7262,8.8064,0.0281,0.022907,-0.043371
0.55383,1.5887,-2.432,8.8064,0.095906,0.051007,-0.047342
0.54501,1.6867,-2.2555,8.6887,0.10965,0.063225,0.023824
0.53696,1.6867,-2.2948,8.6299,0.079107,0.053145,0.026878
0.51395,1.5102,-2.2555,8.7083,0.042761,0.040928,0.01741
0.49408,1.824,-2.3732,8.8064,0.025045,0.044899,-0.011912
0.45865,1.7456,-2.5105,8.6887,0.016493,0.068111,-0.034514
0.43311,2.0006,-2.3732,8.6887,0.018631,0.096822,-0.040928
0.39813,2.0202,-2.0594,9.3555,0.023518,0.11484,-0.035736
0.38773,2.0006,-2.3144,10.454,0.0061087,0.12706,-0.0030543
0.39496,2.1378,-3.1381,10.513,-0.011606,0.1292,-0.056505
0.39185,2.0202,-3.55,9.5125,0.0079412,0.12065,-0.074831
0.39218,2.6478,-1.2553,10.042,0.082161,0.12187,-0.094073
0.37439,1.7456,-0.49033,10.12,0.18295,0.1405,-0.10201
0.34799,2.4713,-1.0003,8.6299,0.27,0.16188,-0.090713
0.30737,2.1771,-1.5102,7.2373,0.31521,0.17501,-0.067501
0.28604,1.9809,-1.5887,6.8254,0.18906,-0.028405,0.025962
0.28534,1.3729,-2.2751,7.3158,-0.10385,-0.0009163,0.03207
0.33197,1.2945,-2.7459,8.0807,-0.072998,0.0067195,0.07086
0.37238,0.92183,-3.0793,8.6299,-0.069333,-0.00061087,0.073304
0.42273,1.0395,-2.1967,8.7083,-0.063835,-0.0094684,0.062003
0.47177,0.74531,-1.216,8.4141,-0.029932,-0.002138,0.045509
0.50259,0.74531,-1.0003,8.3749,0.045815,0.021686,0.029932
0.52628,1.0395,-1.2553,8.9437,0.13408,0.047647,0.02138
0.54391,1.118,-0.90221,9.6497,-0.28497,-0.19456,0.038179
0.54462,1.1768,-1.2553,9.3752,-0.19242,-0.17226,0.040012
0.51245,1.5102,-1.5691,6.3939,-0.094684,-0.14722,0.026878
0.47531,-0.60801,-1.9417,10.768,0.0058032,-0.091324,-0.0058032
0.46371,0.17652,-2.6086,12.043,0.077885,-0.034514,-0.018631
0.45688,2.1378,-3.3931,9.179,0.040012,-0.043677,0.019548
0.45215,1.3337,-2.687,7.8649,-0.080023,-0.094073,0.04948
0.45029,1.0591,-1.9809,7.5511,-0.23213,-0.14905,0.041539
0.45749,1.5298,-1.9417,8.1003,-0.60079,-0.20311,0.009163
0.47006,0.8826,-2.0986,9.5321,-0.57177,-0.24832,0.024435
0.49829,1.1376,-2.1575,9.8851,-0.4441,-0.27764,0.045204
0.53619,1.6083,-2.3144,9.5125,-0.28191,-0.27367,0.04948
0.56528,1.7652,-2.432,8.7279,-0.14936,-0.23274,0.036652
0.62418,1.9809,-2.6282,8.4337,-0.06017,-0.17196,0.012523
0.65222,2.1575,-2.8243,8.4926,-0.39126,-0.11026,-0.0094684
0.66422,1.9221,-2.2948,8.6887,-0.52931,-0.056505,-0.0079412
0.67117,2.1575,-1.8044,8.8064,-0.11332,-0.013439,0.05284
0.65942,2.2948,-1.8044,8.9437,-0.21472,0.0036652,0.058643
0.64899,2.3732,-2.2555,8.8652,-0.28008,-0.011301,0.032681
0.64035,2.1575,-2.5301,8.7083,-0.29077,-0.051007,0.036346
0.64642,1.9613,-2.589,8.8652,-0.26756,-0.082161,0.032987
0.6376,1.8437,-2.687,8.7083,-0.20372,-0.084299,0.028711
0.62708,1.6867,-2.7655,8.5514,-0.015272,-0.072082,0.031765
0.60522,2.0006,-2.8243,8.5318,-0.032376,-0.055894,0.047342
0.57657,1.8437,-2.5693,8.5514,0.1909,0.05284,-0.029932
0.54712,1.6475,-2.687,8.8064,0.18967,0.050396,-0.033292
0.51843,1.824,-2.687,8.5514,0.13378,0.028711,0.034208
0.47644,1.9221,-2.8243,8.7868,0.048869,0.0067195,0.037263
0.42529,1.7064,-2.7459,8.7083,-0.048564,-0.012217,0.03207
0.3692,1.8044,-2.6086,8.7083,-0.12981,-0.023518,0.018631
0.33694,1.4906,-2.687,8.8064,-0.15363,-0.021075,-0.0012217
0.30188,1.824,-2.6086,8.6299,-0.10385,0.0012217,-0.018326
0.26556,1.6867,-2.4124,8.8652,0.032681,0.03543,-0.00061087
0.24173,1.6867,-1.9025,9.0025,0.09163,0.068722,0.0018326
0.23856,1.7456,-2.0006,8.9437,0.12156,0.091324,-0.023518
0.23254,1.8437,-2.5693,8.7083,0.11637,0.1011,-0.017104
0.2554,1.5298,-2.7459,8.6299,0.071777,0.10263,-0.012217
0.24484,1.7456,-2.589,8.8064,0.0009163,0.092241,0.0012217
0.25327,1.5495,-2.2948,8.9437,-0.064752,0.076664,0.012523
0.25589,1.4906,-2.1378,8.8848,-0.10568,0.064446,0.0064141
0.25604,1.3925,-2.5105,8.7083,-0.10843,0.06017,0.022907
0.25934,1.6475,-2.687,8.3749,-0.061392,0.055589,0.033903
0.25769,1.6475,-2.6282,8.4141,0.016188,0.052534,-0.0018326
0.25348,1.5298,-2.3536,8.7475,0.097128,0.051618,-0.0064141
0.23294,1.5298,-2.0986,8.9437,0.16493,0.050396,-0.0027489
0.2114,1.7064,-2.0398,8.8064,0.19884,0.04612,0.0054978
0.20541,1.7064,-2.4124,8.7083,0.18295,0.046426,0.0079412
0.18735,1.2945,-2.5105,8.8848,0.11148,0.047647,0.010385
0.18463,1.6083,-2.589,9.179,-0.0097738,0.033292,-0.015272
0.18994,1.5102,-2.2163,9.2575,-0.13256,0.0045815,-0.01405
0.18506,1.7064,-1.7456,9.0613,-0.19028,-0.022907,0.033598
0.18188,1.824,-1.8044,8.8848,-0.15241,-0.027489,0.015882
0.16479,1.6671,-2.589,8.2768,-0.045815,0.0012217,-0.0054978
0.16806,1.6867,-2.8243,8.3749,0.060476,0.03879,-0.016799
0.17059,1.824,-2.7459,8.8652,0.13317,0.060781,-0.021075
0.1734,1.6671,-2.6086,8.9437,0.17685,0.066279,-0.016493
0.15897,1.9025,-2.4124,8.5514,-0.10568,0.002138,-0.029322
0.1665,1.5102,-2.4517,8.8652,-0.1124,-0.012523,-0.019853
0.20322,1.3729,-2.1967,9.1006,-0.096517,-0.018937,-0.026878
0.18649,1.3337,-1.824,9.3555,-0.054672,-0.017104,-0.027489
0.17654,1.4514,-1.824,9.1594,-0.0027489,-0.0054978,-0.025962
0.16541,1.7064,-1.6867,8.7083,0.025045,0.014355,-0.032681
0.16269,1.7456,-1.9417,8.218,-0.049786,0.032681,-0.036346
0.14566,1.6867,-2.2751,7.7865,-0.08827,0.040928,-0.034208
0.13287,1.4318,-2.5301,8.4926,-0.062614,0.026267,-0.0039706
0.12238,1.4906,-2.5105,9.3359,-0.076664,-0.010996,-0.0054978
0.10699,1.3533,-2.2555,9.6694,-0.081856,-0.043677,-0.013134
0.098785,1.6083,-1.9809,9.3752,-0.085521,-0.058948,-0.014966
0.076813,1.5495,-2.2751,8.9044,-0.078802,-0.057421,-0.015882
0.070496,1.6867,-2.589,8.5514,-0.062003,-0.050091,-0.013439
0.065033,1.824,-2.5693,8.8064,0.013439,-0.040928,-0.0088575
0.066223,1.6671,-2.1967,8.9633,-0.025656,-0.030238,-0.0076358
0.068909,1.7456,-2.1182,8.8652,-0.048869,-0.024129,-0.0015272
0.07782,1.7456,-2.0594,8.7475,-0.025656,-0.01405,-0.0045815
0.094086,1.6671,-2.4124,8.7279,0.011301,0.00061087,-0.02138
0.10318,1.6083,-2.6086,8.6299,0.038179,0.021991,-0.03879
0.12784,1.5495,-2.6086,8.8064,0.036041,0.044899,-0.047342
0.14197,1.1964,-2.2555,9.179,0.019548,0.054672,-0.040928
0.14474,1.3533,-2.2948,8.9437,-0.046731,0.040928,-0.028711
0.15125,1.5298,-2.3536,8.5514,-0.046426,0.0018326,-0.013439
0.14517,1.5298,-2.2751,8.5514,-0.16799,-0.059865,-0.013134
0.15051,1.6083,-2.432,8.7475,-0.18815,-0.058643,-0.019853
0.12555,1.824,-2.5105,8.7083,-0.15333,-0.04215,-0.022907
0.12057,1.824,-2.5105,8.8652,-0.07422,-0.01069,-0.040012
0.098602,1.5102,-2.1182,9.3359,0.007025,0.019853,-0.040623
0.082581,1.3533,-2.1967,9.1986,0.048869,0.032987,-0.029932
0.066406,1.3925,-2.2751,9.0417,0.045815,0.029932,-0.022602
0.055328,1.5102,-2.1378,8.8064,0.0036652,0.018937,-0.016799
0.044373,1.7456,-2.1967,8.5514,-0.45723,-0.25473,0.069333
0.033173,1.6867,-2.7851,8.6299,-0.54825,-0.29077,0.071166
0.031128,2.0006,-2.5693,8.7083,-0.47831,-0.28039,-0.11454
0.026947,1.824,-2.5105,8.6887,-0.27306,-0.23182,-0.11515
0.015656,1.9221,-2.3144,8.7083,-0.01405,-0.14569,-0.097433
-0.0063477,1.7064,-2.2751,8.5514,0.22571,-0.039095,-0.062919
-0.028961,1.6475,-2.3732,8.6299,0.32284,0.048869,-0.029322
-0.052765,1.6867,-2.4124,8.5318,0.27306,0.084299,0.021686
-0.089172,1.824,-2.3732,8.6299,0.12767,0.089492,-0.020769
-0.12064,1.4906,-2.0594,8.7279,-0.05681,0.079107,-0.035125
-0.15265,1.6867,-1.9809,8.7475,-0.21655,0.064141,0.058643
-0.1734,1.2945,-1.6475,9.179,-0.29841,0.059254,0.043371
-0.21136,1.3337,-1.5691,9.5125,-0.29444,0.067195,0.027184
-0.19955,1.1768,-1.9613,10.003,-0.24129,0.094379,0.013134
-0.19797,1.5298,-2.0986,9.7478,-0.15363,0.12187,-0.00030543
-0.20016,1.9613,-2.1771,7.0608,-0.014355,0.12339,-0.0097738
-0.20471,0.76492,-3.6873,8.4141,0.2306,0.13286,0.08827
-0.19897,1.8633,-3.0793,10.297,0.17318,0.12737,0.11881
-0.20532,1.7456,-1.6475,10.356,0.018937,0.080023,0.096517
-0.23578,1.8437,-1.0199,9.2575,-0.12156,0.02138,0.087048
-0.27252,2.1575,-1.5102,7.7669,-0.19884,-0.032681,0.093768
-0.255,2.1182,-2.2948,7.4334,-0.25259,-0.07422,0.11332
-0.25842,2.1575,-2.7655,7.708,-0.32773,-0.096822,0.11362
-0.25046,2.0202,-2.4517,8.4926,-0.40317,-0.074526,0.091019
-0.23059,2.0006,-2.1182,8.8064,-0.37568,-0.020159,-0.072693
-0.20776,1.824,-2.0006,8.3945,-0.14936,-0.0094684,-0.095295
-0.19443,1.7652,-2.432,8.1787,0.19639,0.002138,0.11393
-0.17676,1.3925,-2.9028,8.2572,0.52534,0.043066,0.027489
-0.1615,1.3533,-3.3146,8.7475,0.68111,0.082467,-0.09896
-0.14917,1.3533,-2.9028,9.2771,0.59437,0.06353,-0.12859
-0.12778,1.3337,-1.9809,9.5713,0.33017,-0.03146,-0.077885
-0.12604,1.2356,-1.6279,9.5125,0.0088575,-0.1573,-0.057116
-0.1185,1.5298,-1.9025,9.0417,0.45387,-0.045509,0.026573
-0.125,1.7652,-2.1182,8.8848,0.43707,0.08491,0.057116
-0.12054,1.6475,-2.1378,8.5514,0.34544,0.18937,-0.029322
-0.12558,1.6671,-1.8044,8.9437,0.19761,0.24404,-0.0009163
-0.12772,1.4318,-1.6867,9.3359,0.026878,0.27153,0.012523
-0.14026,1.5298,-1.9417,9.0613,-0.10812,0.29047,-0.0073304
-0.13962,1.6475,-2.1967,8.7083,0.20006,0.30604,-0.015272
-0.14737,1.9221,-2.4517,8.4141,0.37263,0.30665,-0.00030543
-0.16159,1.6083,-2.3732,8.7279,-0.13408,0.29841,0.072082
-0.17203,1.6867,-2.3144,8.9437,-0.10629,0.29169,0.076664
-0.17874,1.5102,-2.4517,8.9044,-0.043371,0.27886,0.078802
-0.19525,1.7456,-2.4124,8.7083,0.15913,0.24923,0.09163
-0.20087,1.6671,-2.432,8.4926,0.36011,0.20097,0.10232
-0.22382,1.8633,-2.3536,8.2572,0.40989,0.16402,0.10599
-0.2323,1.6867,-2.1967,8.8848,-0.16952,0.16402,0.099876
-0.23425,1.5102,-2.7459,10.375,-0.16646,0.16707,0.095295
-0.24753,1.8044,-3.4519,10.63,0.0015272,0.12126,-0.11179
-0.25662,1.4318,-3.3931,10.14,0.05284,0.12675,-0.1628
-0.26437,1.6671,-2.0594,10.768,0.062308,0.087965,0.0073304
-0.27921,2.0006,-0.86299,9.9636,0.052534,0.020159,0.009163
-0.31784,2.1575,-0.72569,7.5315,0.078496,-0.030238,-0.026573
-0.35217,2.0594,-1.0591,6.3939,0.13958,-0.11515,-0.080329
-0.36954,1.9221,-1.6475,6.7077,0.32162,-0.18906,-0.07758
-0.3775,2.0202,-2.1378,7.4531,0.5284,-0.22724,-0.068417
-0.37726,2.0202,-1.9025,8.0022,-0.050396,-0.31093,-0.078191
-0.37271,1.7652,-1.824,8.4926,-0.30879,-0.4328,-0.053756
-0.36621,1.6867,-1.7456,8.3945,-0.42516,-0.51221,-0.19578
-0.35507,0.8826,-1.7456,8.4729,-0.34575,-0.53176,-0.18387
-0.35419,1.3337,-1.9417,8.6495,-0.17196,-0.51129,-0.19059
-0.34821,1.0787,-2.9028,9.434,0.002138,-0.41966,-0.19181
-0.34686,1.5887,-3.4519,10.689,0.46792,-0.27886,-0.15547
-0.36493,1.9613,-2.0986,10.375,0.23121,-0.15485,-0.11148
-0.3761,1.5102,-1.118,10.101,0.020769,0.014661,-0.029322
-0.38406,2.1575,-1.3337,9.6694,-0.10385,-0.0094684,-0.026878
-0.39078,2.3732,-1.7848,8.5514,-0.19792,-0.030849,-0.057727
-0.38635,2.4713,-2.0006,7.5903,-0.22633,-0.030849,-0.059865
-0.3671,2.6086,-2.432,7.5511,-0.20006,-0.032987,-0.057421
-0.36252,1.9221,-1.5691,7.7865,-0.14233,-0.040928,-0.039401
-0.33774,1.5887,-1.6671,8.5318,-0.065363,-0.03207,-0.028405
-0.32257,1.6083,-2.2751,9.179,0.020769,0.011301,-0.027184
-0.30475,1.2356,-2.0398,8.9044,-0.0064141,-0.11332,0.033598
-0.30127,0.90221,-1.6475,8.0807,-0.1689,-0.20189,0.040317
-0.3158,0.078453,-1.824,8.7083,-0.28924,-0.24893,0.19303
-0.31161,-0.37265,-2.1182,10.925,-0.36408,-0.25779,0.18143
-0.30234,0.098066,-1.4906,11.513,-0.35491,-0.21441,0.14233
-0.29388,0.45111,-1.1572,9.7478,-0.22083,-0.14997,0.1011
-0.27969,0.60801,-1.4318,8.8064,-0.035736,-0.062003,0.089492
-0.27625,0.90221,-1.824,8.4337,0.13592,0.029627,0.086743
-0.25632,1.0199,-2.5105,8.0807,0.30329,0.095906,0.063225
-0.24152,0.66685,-2.2948,9.2575,0.24465,0.069028,0.072693
-0.22714,0.35304,-1.5298,11.003,0.036652,-0.018021,0.11637
-0.19708,0.74531,-1.0199,11.062,-0.29871,-0.1518,0.11515
-0.15515,1.3925,-1.6475,9.1986,-0.62461,-0.30757,0.079412
-0.11514,1.3729,-2.1378,7.7865,-0.83169,-0.41966,0.065973
-0.086029,1.4318,-2.9224,7.2765,-0.89492,-0.46731,0.065973
-0.051636,1.7456,-3.5304,7.6296,-0.85338,-0.4554,0.065057
-0.040405,2.2163,-3.5304,8.2572,-0.74526,-0.41936,-0.044593
-0.023773,2.0594,-3.0793,8.7868,-0.58857,-0.38332,-0.061392
-0.022644,1.9613,-2.1575,8.9633,-0.38149,-0.33537,0.076358
-0.028625,2.1575,-1.8437,8.6495,-0.18326,-0.2645,0.061087
-0.060608,1.824,-1.6475,8.316,-0.023213,-0.17562,0.03879
-0.085205,2.2359,-1.9613,8.2376,0.10018,-0.090103,0.021686
-0.11884,2.7851,-2.2555,8.0807,0.14875,-0.024129,-0.0012217
-0.15317,2.6282,-2.1967,8.2572,0.11698,0.011606,-0.019548
-0.18558,2.6086,-1.9809,8.8064,-0.15363,-0.19212,-0.23732
-0.20447,2.6478,-1.9613,9.0417,-0.36774,-0.28466,-0.21166
-0.21967,2.687,-2.432,8.8652,-0.39645,-0.25473,-0.09896
-0.2674,2.589,-3.0008,8.4926,-0.30604,-0.14294,-0.19517
-0.30133,1.8633,-2.942,8.5318,-0.1744,-0.0051924,-0.21594
-0.3259,1.4318,-2.1967,9.8851,0.0027489,0.098655,-0.20861
-0.36795,0.96105,-1.8829,9.9832,0.26756,0.15516,-0.20708
-0.40695,1.5298,-2.1967,9.3359,0.6298,0.21075,-0.22235
-0.45538,1.3533,-2.687,8.7083,0.9276,0.29383,-0.043371
-0.50757,1.118,-2.432,7.6296,0.47953,0.32284,0.0036652
-0.56107,-0.45111,-2.0398,9.5713,-0.010996,0.21472,-0.10599
-0.60162,-0.60801,-1.9417,10.728,-0.40195,0.0097738,-0.024435
-0.62335,0.41188,-2.2163,8.7083,-0.63072,-0.20464,-0.010385
-0.62912,0.66685,-2.0594,6.7077,-0.70769,-0.38851,0.0033598
-0.61655,0.56879,-1.7848,6.5116,0.96944,-0.52382,-0.013134
-0.5867,0.72569,-2.4517,8.5514,1.1237,-0.56536,-0.039706
-0.55145,0.96105,-1.3337,10.728,-0.91324,-0.48075,0.18051
-0.50876,0.66685,0.05884,12.082,-0.82986,-0.38118,0.24435
-0.46823,0.74531,0.31381,11.631,-0.49999,-0.37385,0.091935
-0.44434,1.216,-0.56879,10.317,-0.020159,-0.36072,0.14325
-0.41122,2.4517,-0.96105,8.7083,0.4612,-0.28863,0.10751
-0.40106,2.2359,-1.1964,7.9238,0.74281,-0.12095,0.067195
-0.38156,2.0006,-2.7459,7.7865,-0.73548,0.09163,0.037263
-0.36893,2.687,-3.6873,7.7865,-0.81551,0.23763,0.072388
-0.3414,2.1771,-2.4713,8.1787,0.29505,0.29352,0.0562
-0.32846,1.6671,-1.4906,9.179,0.01405,0.2697,-0.065057
-0.33939,1.1964,-1.1768,9.689,-0.20556,0.17776,0.25656
-0.36966,1.8044,-1.7456,7.0608,-0.21472,0.06353,0.26145
-0.39127,0.56879,-2.9224,8.6299,-0.03879,0.0079412,0.27519
-0.39688,0.74531,-4.1776,11.042,-0.015882,0.11026,0.27214
-0.39023,2.2948,-3.2558,11.16,0.76205,0.25076,0.23518
-0.38153,2.1378,-1.4318,8.9044,0.57941,0.15882,0.18326
-0.38022,1.8044,-0.11768,7.8649,-0.24007,-0.043982,0.065057
-0.36801,1.5102,-1.3337,7.9434,-0.30849,-0.057421,0.058643
-0.35809,1.9221,-2.5105,7.963,-0.36805,-0.080329,0.08827
-0.32803,1.9613,-2.7459,8.7279,-0.40348,-0.10965,0.093768
-0.29929,1.8437,-2.1182,9.0613,-0.40256,-0.12401,0.089797
-0.26923,1.8044,-1.8437,8.8064,-0.35858,-0.11423,0.07025
-0.2579,1.6083,-1.9809,8.8652,-0.28955,-0.095295,0.053451
-0.25281,1.3533,-1.8829,9.1202,-0.219,-0.085216,0.054062
-0.26123,1.216,-1.6475,9.0417,-0.13867,-0.091935,-0.038179
-0.28149,1.118,-1.6867,8.8652,-0.097433,-0.1014,-0.054672
-0.29733,1.0199,-1.6475,9.5321,-0.055894,-0.099571,0.024435
-0.31415,0.86299,-2.0986,9.8066,-0.015272,-0.084299,-0.013744
-0.3273,1.2356,-2.2751,9.3359,-0.014661,-0.057727,-0.03879
-0.34024,1.6083,-1.9417,8.9437,-0.073609,-0.041844,-0.049175
-0.3559,1.3925,-1.6475,9.0417,-0.17013,-0.050702,-0.040317
-0.36069,1.6083,-1.7848,9.179,-0.25565,-0.080634,-0.034208
-0.37659,1.6867,-2.2555,9.0221,-0.28711,-0.12034,-0.016493
-0.3808,1.7064,-2.687,8.4337,-0.24801,-0.14569,-0.012828
-0.36804,1.8437,-2.7459,8.4926,-0.14936,-0.14264,-0.074831
-0.33133,2.0202,-3.0401,8.6887,-0.014966,-0.11729,-0.082467
-0.28992,2.2163,-3.5108,8.7083,0.099266,-0.072082,-0.075136
-0.24042,2.2359,-3.2362,8.7475,0.15944,-0.025045,-0.054672
-0.19482,2.0006,-2.7851,8.5514,0.17532,0.011912,-0.033292
-0.15396,1.5298,-2.687,8.4141,0.14752,0.025351,-0.025656
-0.12793,1.6867,-3.0008,8.2572,0.1741,0.02138,0.0064141
-0.10431,1.6475,-3.0008,8.1787,0.12248,0.009163,0.011606
-0.084351,1.7456,-2.942,8.2572,0.073609,0.0018326,-0.025962
-0.064056,1.2749,-2.3732,8.5514,0.045204,0.0027489,-0.03879
-0.050995,1.5298,-2.2163,8.5906,0.043371,0.0094684,-0.037874
-0.061432,1.7064,-2.2751,8.8652,0.067195,0.026878,-0.037874
-0.068085,1.6867,-2.432,8.8652,0.11148,0.048869,-0.03543
-0.070648,1.4318,-2.3732,8.8652,0.15669,0.061697,-0.014355
-0.09613,1.4906,-2.1967,8.6299,-0.15424,-0.146,-0.049175
-0.10257,1.5887,-2.0986,8.7083,-0.023518,-0.15088,-0.050091
-0.1235,1.6867,-2.1575,8.7083,0.10049,-0.11576,-0.034514
-0.13345,1.6083,-2.687,8.6887,0.18326,-0.047953,-0.066279
-0.16772,1.6083,-2.7655,8.7475,0.21747,0.02474,-0.078191
-0.18756,1.6867,-2.432,8.7083,0.20739,0.07086,-0.074526
-0.19037,1.6867,-1.9809,8.7868,-0.20159,0.089797,-0.063225
-0.20813,1.3925,-1.8829,8.7083,-0.22602,0.096211,-0.053451
-0.21643,1.5298,-2.1967,8.6299,0.033598,0.089492,-0.049786
-0.23102,1.6867,-2.942,8.7279,0.0048869,0.069333,-0.055283
-0.24265,1.8044,-3.0793,8.8652,-0.00030543,0.039095,-0.057421
-0.2536,1.824,-2.432,9.0221,-0.0076358,0.025045,-0.069944
-0.25317,1.4318,-2.6086,9.0025,-0.033598,0.036346,-0.077885
-0.2507,1.7456,-2.8439,8.9437,-0.059254,0.054062,-0.071166
-0.2352,2.0594,-2.7851,8.8848,0.16035,0.058338,-0.057421
-0.22302,1.5102,-2.5693,8.9437,0.090713,0.054367,-0.04948
-0.2081,1.4318,-1.7456,9.2575,-0.013134,0.045204,-0.04215
-0.19019,1.4318,-1.5887,9.179,0.015272,0.047953,-0.029932
-0.1969,1.8044,-2.4517,8.5514,0.045204,0.063835,-0.062003
-0.19034,1.9221,-3.0401,8.0807,0.067806,0.078191,-0.073304
-0.19086,2.2359,-2.8832,8.316,0.098655,0.083078,-0.07025
-0.20114,1.9221,-2.3732,8.6299,0.14752,0.092852,-0.06017
-0.21545,1.6867,-2.0986,8.8064,-0.064141,0.10782,-0.059559
-0.24011,1.3729,-2.2751,8.8848,-0.044899,0.1237,-0.054672
-0.27017,1.5298,-2.2751,8.8652,-0.029016,-0.00030543,0.026878
-0.29776,1.1964,-2.2163,8.8064,0.018631,0.022297,0.0061087
-0.33652,1.1768,-2.432,8.7083,0.053451,0.023518,-0.059865
-0.37653,1.1964,-2.5105,8.4926,0.087965,0.014661,-0.051313
