0.1839,3.0793,-4.1972,7.4923,0.00030543,0.036346,-0.012217
0.19131,3.3735,-4.2561,7.4531,-0.022297,0.028405,-0.015272
0.19977,3.1185,-4.1972,7.4923,-0.032681,0.012523,0.014661
0.19241,3.2166,-4.3149,7.4334,-0.034208,0.0030543,0.0030543
0.17984,3.2558,-4.3542,7.2373,-0.0067195,0.020159,-0.015272
0.1665,3.3735,-4.2953,7.3158,0.025962,0.029627,-0.025962
0.15588,3.4127,-4.3542,7.4531,0.033292,0.036957,-0.016799
0.14575,3.4323,-4.3345,7.4531,0.016799,0.027794,-0.0054978
0.146,3.4323,-4.3345,7.4531,-0.022602,0.011606,-0.011301
0.1416,3.4912,-4.1972,7.2765,-0.054367,-0.0054978,-0.010996
0.12753,3.1577,-4.0207,7.0019,-0.071777,-0.022297,-0.016799
0.11609,3.1185,-4.0796,7.2373,-0.064446,-0.02474,-0.022907
0.10269,3.0793,-4.5699,7.5315,-0.033903,-0.01741,-0.026878
0.091583,3.4323,-4.3345,7.3158,-0.0012217,-0.0030543,-0.023213
0.10461,3.1774,-4.1384,7.3354,0.019548,0.009163,-0.012828
0.095001,3.4127,-4.158,7.3158,0.019242,0.015577,-0.0082467
0.10031,3.3343,-4.3542,7.3158,0.007025,0.014966,-0.0027489
0.092072,3.5304,-4.7268,7.3354,-0.016188,0.0094684,0.0027489
0.091095,3.3931,-4.3934,7.3158,-0.039706,0.0030543,-0.0079412
0.07785,3.3146,-4.2561,7.4531,-0.050702,-0.00061087,-0.0094684
0.074646,3.0597,-4.158,7.4531,-0.046731,0.0015272,-0.014966
0.05722,3.3146,-4.3345,7.4334,-0.029627,0.0082467,-0.016188
0.043579,3.4127,-4.668,7.3746,-0.0027489,0.018021,-0.015272
0.023834,3.4323,-4.4914,7.4923,0.024435,0.029322,-0.011606
0.020905,3.2362,-4.2561,7.4923,0.048258,0.04215,-0.0042761
-0.0023193,3.2558,-4.1384,7.3746,0.058338,0.049175,-0.0097738
-0.015137,3.1774,-4.1776,7.4923,0.049786,0.053451,0.0045815
-0.02066,3.2558,-4.1972,7.3746,0.03207,0.055283,0.0061087
-0.038147,3.3931,-4.3345,7.3158,0.0012217,0.041539,0.0067195
-0.047852,3.2166,-4.3345,7.3746,-0.033598,0.034208,0.011912
-0.045929,3.3146,-4.2561,7.4334,-0.044899,0.028405,0.0064141
-0.073181,3.0793,-4.158,7.4727,-0.050396,0.022297,-0.0058032
-0.062012,3.2166,-4.2561,7.3746,-0.034514,0.015577,-0.002138
-0.05127,3.0597,-4.6484,7.3354,-0.018326,0.020769,-0.0051924
-0.033569,3.3146,-4.3149,7.3158,-0.0042761,0.023824,-0.019548
-0.023895,3.0597,-4.1972,7.4531,0.0033598,0.024129,-0.015577
-0.023438,3.0008,-4.158,7.4531,0.007025,0.019853,-0.011301
-0.021667,3.3146,-4.3149,7.5511,0.0051924,0.013744,-0.0054978
-0.027344,3.2754,-4.2953,7.4334,-0.0042761,0.0036652,-0.0067195
-0.026672,3.3735,-4.3738,7.3746,-0.017715,-0.0073304,-0.0054978
-0.016632,3.4716,-4.4914,7.3158,-0.037874,-0.014355,0.01405
-0.0084229,3.2754,-4.3345,7.3746,-0.03543,-0.014355,0.018937
-0.014038,3.3146,-4.3345,7.4531,-0.022907,-0.015577,-0.0054978
-0.011841,3.3735,-4.4718,7.4531,-0.016188,-0.015882,0.0018326
-0.01474,3.1774,-4.3345,7.4334,-0.015272,-0.012217,0.0073304
-0.02713,3.0793,-4.2561,7.3354,-0.017715,-0.0094684,0.011912
-0.018585,3.2362,-4.2953,7.2765,-0.017104,-0.0094684,0.015577
-0.028015,3.3146,-4.2953,7.3746,-0.013134,-0.0064141,0.013439
-0.025909,3.2166,-4.3345,7.5315,-0.007025,0.0018326,-0.0082467
-0.040009,3.3343,-4.3149,7.4531,-0.009163,0.013439,-0.01405
-0.042389,3.295,-4.3345,7.3158,-0.016493,0.015577,0.022297
-0.051147,3.4127,-4.2561,7.3746,-0.025045,0.014966,0.019242
-0.047974,3.1774,-4.2561,7.3354,-0.030849,0.013134,0.010996
-0.044586,3.2754,-4.3542,7.3746,-0.032681,0.013439,0.0067195
-0.052948,3.2558,-4.3934,7.4531,-0.028711,0.01405,0.0039706
-0.061188,3.2558,-4.3345,7.4727,-0.021991,0.01741,-0.0015272
-0.072052,3.3146,-4.2953,7.2373,-0.013439,0.026573,-0.0082467
-0.069397,3.4912,-4.1776,7.3746,-0.011912,0.033903,-0.0088575
-0.083069,3.2362,-4.2953,7.4531,-0.013744,0.039706,-0.017715
-0.077484,3.3146,-4.3345,7.3158,-0.013439,0.040928,-0.021686
-0.080719,3.3931,-4.2953,7.3942,-0.010385,0.037568,-0.022907
-0.087189,3.0793,-4.3345,7.3158,-0.0079412,0.037568,-0.021686
-0.090851,3.3931,-4.3345,7.4531,-0.0082467,0.033903,-0.020769
-0.0896,3.4323,-4.3345,7.4727,-0.011301,0.026878,-0.01405
-0.090668,3.3146,-4.3345,7.3746,-0.50274,-0.069333,-0.026573
-0.072601,3.1774,-4.2365,7.4923,-0.405,-0.093462,-0.027794
-0.056641,3.2558,-4.3542,7.3354,-0.30452,-0.084299,0.064752
-0.038696,3.1774,-4.3345,7.1589,-0.20983,-0.047647,0.022907
-0.0289,3.2754,-4.0796,7.3354,-0.14783,-0.0094684,-0.0076358
-0.039703,3.1577,-4.1776,7.4531,-0.13073,0.018021,-0.023213
-0.021454,3.4127,-4.2953,7.3746,-0.51893,0.031154,-0.025045
-0.015442,3.4127,-4.2561,7.3354,-0.55528,0.028711,-0.023213
-0.038086,3.2558,-4.5699,7.1589,-0.14386,0.017715,-0.018937
-0.11014,3.4323,-5.1975,6.9235,-0.094684,0.0088575,-0.018937
-0.27536,3.5696,-5.3348,7.1392,-0.037874,0.01069,-0.026878
-0.54892,3.2754,-4.158,7.9434,0.012523,0.037874,-0.037263
-0.86514,2.7066,-2.9028,8.2376,0.057116,0.071471,-0.048869
-0.99997,3.0793,-2.6282,8.0611,0.083994,0.092852,-0.051007
-0.99997,3.1185,-3.2166,7.4923,-0.14539,0.10415,-0.041233
-0.99997,3.2362,-3.4519,7.3354,-0.15913,0.10599,-0.024435
-0.99997,2.7851,-3.8638,7.6884,0.027794,0.094073,0.019853
-0.99997,3.1185,-4.2953,8.0022,-0.0045815,0.069639,0.017104
-0.99997,3.5696,-4.9229,7.4531,-0.023518,0.047342,-0.01741
-0.99997,3.5304,-4.766,7.5315,-0.039706,0.023518,-0.022907
-0.99997,3.4127,-4.413,7.5511,-0.061697,-0.0015272,-0.025656
-0.99997,3.4127,-4.3149,7.3354,-0.093157,-0.023213,-0.019548
-0.99997,3.4127,-4.1776,7.3158,0.087965,-0.037874,-0.0018326
-0.93933,3.4127,-4.4718,7.0019,0.066584,-0.052229,0.015577
-0.8143,3.3735,-4.6091,7.1589,0.4215,0.093462,0.13806
-0.69427,3.2558,-4.4522,7.3354,0.17043,0.0018326,0.10873
-0.58041,3.0008,-4.158,7.5511,-0.06017,-0.068722,0.047953
-0.4942,3.2754,-4.1972,7.4531,-0.20128,-0.1011,0.071777
-0.4191,3.0793,-4.158,7.4531,-0.25229,-0.087965,0.076969
-0.35562,3.2362,-4.0796,7.5511,-0.2755,-0.048869,0.062919
-0.30859,3.2558,-4.158,7.4531,-0.33659,-0.0281,0.075442
-0.26648,3.3735,-4.2953,7.3746,-0.42913,-0.040623,0.12065
-0.24133,3.4127,-4.2561,7.3158,-0.026573,0.030543,-0.0088575
-0.19104,3.1774,-4.6091,7.4923,-0.036652,0.027489,-0.0073304
-0.14893,3.2166,-4.2561,7.3158,-0.050702,0.013744,-0.036346
-0.10727,3.2558,-4.2561,7.3746,-0.065668,-0.00030543,-0.034514
-0.074158,3.4127,-4.158,7.3746,-0.083383,-0.01405,-0.031765
-0.045868,3.3146,-4.1384,7.3746,-0.094379,-0.024435,-0.024435
-0.0077209,3.1185,-4.2953,7.4531,-0.097128,-0.030543,-0.019242
0.0074768,3.3735,-4.2561,7.3942,-0.089797,-0.03207,-0.013744
0.03894,3.2558,-4.2561,7.3746,-0.075442,-0.029627,-0.002138
0.060394,3.0793,-4.3345,7.2961,-0.063225,-0.024435,0.002138
0.072876,3.2754,-4.3345,7.4334,-0.059559,-0.017104,-0.009163
0.086365,3.2558,-4.3542,7.3942,-0.061087,-0.012828,-0.0076358
0.093262,3.1774,-4.3542,7.3158,-0.061087,-0.011912,-0.0045815
0.11206,3.3735,-4.3149,7.4531,-0.05284,-0.013744,-0.0079412
0.12735,3.3735,-4.3149,7.4531,-0.041233,-0.011606,-0.011606
0.14035,3.2754,-4.3345,7.2961,-0.033292,-0.0061087,-0.010385
0.15424,3.4127,-4.1972,7.3746,-0.043982,-0.0281,0.0015272
0.1734,3.3146,-4.3345,7.2961,-0.039095,-0.026267,-0.0027489
0.1799,3.4127,-4.4914,7.3746,-0.031765,-0.024435,0.016188
0.18668,3.55,-4.3345,7.3158,-0.03879,-0.027184,0.019242
0.20908,3.1774,-4.3345,7.4334,-0.043677,-0.014966,0.01741
0.22192,3.1774,-4.2561,7.3746,-0.041539,-0.009163,0.0042761
0.2457,3.2362,-4.2953,7.4334,-0.04215,0.00061087,0.0030543
0.23282,3.0989,-4.3934,7.2373,-0.045204,0.0097738,0.01069
0.24399,3.3146,-4.3934,7.3746,-0.048564,0.01069,-0.037263
0.24774,3.2558,-4.4522,7.3158,-0.050396,0.011301,-0.036957
0.24731,3.4127,-4.3345,7.3158,-0.048258,0.015272,-0.0054978
0.24536,3.4127,-4.2561,7.3354,-0.040928,0.018937,-0.010996
0.26306,3.3931,-4.3934,7.4334,-0.033598,0.024435,-0.014355
0.26575,3.3735,-4.3345,7.3158,-0.027794,0.028405,-0.022297
0.26367,3.3735,-4.3934,7.3158,-0.022907,0.030849,-0.028405
0.27036,3.4127,-4.6091,7.2961,-0.021991,0.031765,-0.032987
0.27017,3.2754,-4.4718,7.3158,0.8378,0.42516,-0.0039706
0.26709,3.3931,-4.4522,7.3354,0.74067,0.4777,-0.047647
0.289,3.3931,-4.3345,7.2765,0.42944,0.52443,0.052229
0.29764,3.3146,-4.3345,7.3158,0.0036652,0.48778,0.099266
0.30505,3.2558,-4.4522,7.2373,-0.37996,0.33384,0.12217
0.31009,3.4912,-4.3542,7.3158,-0.58368,0.11545,0.13622
0.31638,3.4519,-4.3934,7.1589,0.48503,-0.07758,0.12859
0.32611,3.4127,-4.4914,7.1392,0.70799,-0.1909,0.071166
0.32715,3.2754,-4.5111,7.0216,-0.035125,-0.2025,0.058338
0.33704,3.3146,-4.3934,7.1785,-0.56077,-0.14844,0.040012
0.32822,3.2558,-4.3934,7.2177,-0.41081,-0.091019,-0.031765
0.33487,3.2558,-4.4718,7.1589,-0.24709,-0.054367,0.022297
0.33002,3.2558,-4.3542,7.2961,-0.1292,-0.05284,0.068722
0.33636,3.3146,-4.4522,7.3746,-0.07758,-0.075442,0.096822
0.33029,3.4912,-4.6287,7.2961,-0.062919,-0.090408,0.10751
0.3194,3.55,-4.5699,7.2373,-0.053451,-0.075747,0.088575
0.33347,3.2558,-4.6287,7.2373,-0.087048,-0.012523,0.011912
0.32513,3.1774,-4.4914,7.1785,-0.088575,-0.025656,0.018631
0.31558,3.4127,-4.4914,7.1196,-0.078802,-0.022602,-0.013439
0.29639,3.4912,-4.6287,6.9823,-0.06017,-0.011301,-0.021075
0.26761,3.4323,-4.7072,6.8647,-0.036957,-0.00030543,-0.019242
0.25223,3.4912,-4.6484,6.747,-0.014966,0.010079,-0.0067195
0.20764,3.7461,-4.7856,6.2959,0.0079412,0.022602,0.0012217
0.1778,3.805,-4.9622,5.884,0.026267,0.034819,0.0076358
0.16037,3.4323,-4.1384,7.3746,-0.013134,0.050396,0.018937
0.16446,2.7459,-3.197,9.0613,0.023824,0.065057,0.019853
0.18314,2.2359,-3.295,9.0025,0.093462,0.068722,0.0281
0.19113,2.9224,-4.0796,7.5903,0.15852,0.10446,0.026878
0.23325,3.2558,-4.7072,7.0019,0.22144,0.16493,0.018021
0.29428,3.0793,-4.5699,7.8061,0.31734,0.2361,0.027184
0.38165,2.8439,-4.3345,7.9434,0.025962,0.31734,0.043677
0.45819,2.942,-4.2365,7.4531,0.0027489,0.38026,0.036652
0.54074,3.0989,-4.4914,7.1589,0.72265,0.43768,0.092852
0.65787,2.8635,-4.668,7.4531,0.41966,-0.0094684,0.22938
0.76227,2.5497,-3.9815,8.1591,0.25504,-0.34789,-0.2419
0.85873,2.3732,-4.2953,7.963,0.23549,-0.50519,-0.3598
0.95551,3.2558,-4.766,7.1589,0.36713,-0.4667,-0.2532
1,3.4912,-4.6091,6.8254,0.48075,-0.25259,-0.15547
1,3.3146,-4.3934,7.3746,0.41172,0.024129,-0.1799
1,3.4912,-4.2365,7.7669,0.073609,0.23671,-0.10018
1,3.5304,-4.2561,8.0807,0.18357,0.024129,-0.040317
1,3.3146,-4.3345,7.8649,0.092546,-0.040623,-0.061392
1,3.805,-4.4522,7.0608,0.051924,-0.069639,-0.089797
1,3.4127,-4.3345,6.6097,0.045815,-0.082467,-0.076969
1,2.8439,-4.0796,7.708,0.051007,-0.10782,-0.051007
1,2.4517,-4.0207,8.4926,0.01069,-0.16035,-0.042455
1,2.7851,-3.8834,8.2572,-0.069944,-0.23793,-0.031765
1,3.0597,-3.6677,8.1199,-0.1631,-0.30055,-0.025045
1,2.9224,-3.7658,8.7868,-0.27061,-0.32865,-0.12645
1,3.1774,-4.1384,8.8064,-0.25595,-0.32956,-0.18265
1,3.6873,-3.6677,7.8649,-0.21197,-0.30879,-0.057727
1,3.4127,-3.4519,7.2373,-0.16096,-0.27642,-0.048258
1,3.3735,-4.0796,7.1589,-0.096822,-0.2419,-0.058032
1,3.2754,-4.7072,6.8058,-0.012217,-0.19731,-0.07758
1,3.6285,-4.9426,6.9235,0.11973,-0.14691,-0.093157
1,3.5696,-4.7072,7.1589,0.27611,-0.072388,-0.099266
1,3.805,-5.2564,5.8644,0.38026,0.041844,-0.27886
0.96759,4.2561,-3.5304,4.7268,0.44318,0.14172,-0.15608
0.56741,1.4906,-1.824,13.337,0.551,0.20281,-0.2138
-0.053528,1.3337,-1.5102,12.513,0.77824,0.24404,-0.22266
-0.68405,3.0793,-1.5298,8.1591,1.1802,0.35033,-0.26176
-0.99997,4.2561,-1.2553,5.5702,1.7223,0.55192,-0.34514
-0.99997,3.0793,-0.72569,5.6682,1.6674,1.0208,-0.43371
-0.99997,1.5298,-1.3533,7.5903,1.0721,1.0153,-0.45357
-0.99997,1.6475,-3.4519,8.4926,0.956,0.50457,0.0009163
-0.99997,3.5696,-5.3937,8.0022,0.59254,0.35613,0.11729
-0.96164,4.0403,-5.3348,8.6887,0.26756,0.21441,-0.17135
-0.67148,3.5696,-4.4914,8.8652,0.01069,0.1011,-0.18234
-0.31982,3.2754,-3.3146,8.0807,-0.1573,0.0058032,-0.1518
-0.0056152,3.3735,-2.4713,7.9042,-0.18448,-0.03543,-0.10446
0.25369,3.4716,-2.1575,7.5511,-0.073304,0.015882,-0.088575
0.4931,3.5696,-3.3539,7.9434,0.04215,0.13683,-0.071166
0.71939,3.5696,-4.0992,7.7865,-0.019853,0.23121,0.061697
0.92627,3.55,-3.2166,8.218,-0.32406,0.21777,0.17257
1,3.3735,-2.1967,7.8649,-0.74159,0.092852,0.20953
1,2.687,-1.5298,8.2376,-1.0886,-0.10079,0.23335
1,2.7459,-1.4318,9.0417,-1.2413,-0.27,0.20556
1,2.589,-1.3533,9.3163,-1.1096,-0.3149,0.12248
1,2.7851,-1.824,9.0613,-0.74251,-0.22633,0.0048869
1,3.0793,-2.2751,7.6492,-0.30238,-0.076358,-0.031154
1,3.1774,-1.5102,7.5903,0.31734,0.060476,0.20525
0.98178,2.6086,-1.118,8.0807,0.18906,0.13378,0.20525
0.88043,1.5495,-2.2555,8.4337,-0.045204,0.12981,0.20983
0.76028,1.9221,-4.158,8.4141,-0.32254,0.060781,0.21258
0.66864,2.4909,-4.5699,8.2572,-0.57513,-0.054367,0.22785
0.56738,2.1182,-3.8442,8.6299,-0.75045,-0.20464,0.24679
0.44339,1.9221,-2.0006,9.0417,0.071471,-0.34758,0.24465
0.26227,1.824,-0.90221,9.434,0.28711,-0.44868,0.22205
0.04361,1.9613,-1.3141,9.2183,-0.83383,-0.49755,0.024129
-0.16202,2.6086,-2.2555,8.9044,-0.73579,-0.51557,0.047953
-0.34308,3.1185,-3.0989,8.5514,-0.54947,-0.51557,0.20647
-0.48883,3.6285,-4.1972,7.8061,-0.27581,-0.49633,0.20067
-0.58954,3.8638,-4.7856,7.3746,0.045204,-0.43768,0.1689
-0.6918,3.6285,-3.8638,8.5514,0.23518,-0.33872,0.10751
-0.85699,2.6282,-3.0008,9.0417,-0.83902,-0.135,0.0562
-0.99463,2.8635,-1.824,9.0025,-0.86315,0.07758,0.018937
-0.99997,2.4713,-1.6475,8.7083,-0.50457,-0.23274,0.065363
-0.99997,2.5497,-1.9417,8.2572,-0.66798,-0.3204,0.057421
-0.99997,2.687,-1.9809,8.1787,-0.7645,-0.35216,0.054062
-0.99997,2.7851,-2.7459,8.4729,-0.80268,-0.35613,0.082467
-0.99997,3.0008,-4.766,7.4727,-0.77885,-0.34025,0.094073
-0.99997,4.3149,-4.6287,7.4334,-0.67501,-0.29932,0.08827
-0.99997,3.5696,-3.5304,8.218,-0.50305,-0.22205,0.083383
-0.99997,2.9224,-1.9809,8.7083,-0.31551,-0.12798,0.077885
-0.99997,2.4517,-1.4906,8.5514,-0.025351,-0.041539,0.019242
-0.99997,2.4517,-2.1967,7.9434,0.098655,0.038485,0.03207
-0.99997,2.7459,-3.2362,7.3158,0.15027,0.092241,0.050396
-0.99997,3.0793,-3.5696,7.4531,0.14416,0.11148,0.036957
-0.99997,2.7655,-3.295,8.0022,0.099876,0.10415,0.027794
-0.99997,2.6478,-2.5105,9.0025,0.033292,0.075747,0.019548
-0.99997,2.3732,-1.726,10.689,-0.042455,0.043982,0.009163
-0.88232,2.6478,-1.9417,9.5713,-0.12645,0.0073304,0.0064141
-0.72855,3.1774,-2.687,8.2768,-0.20464,-0.03207,0.016493
-0.57007,3.0793,-3.2362,7.7865,-0.25259,-0.068111,0.011301
-0.41711,3.2558,-3.8638,7.61,-0.25015,-0.096517,0.030543
-0.28308,3.4127,-4.158,7.5315,-0.208,-0.092241,0.020769
-0.16135,3.4323,-3.9423,7.6884,-0.15699,-0.064752,0.012523
-0.070801,2.9224,-3.3146,8.2768,-0.1069,-0.034514,0.01069
-0.012543,3.0597,-2.8243,8.4926,-0.06689,-0.0088575,0.017104
-0.016693,2.9224,-2.6086,8.5514,-0.042455,0.0085521,0.020769
-0.038818,2.6282,-2.7459,8.316,-0.063225,0.065057,0.14142
-0.082306,2.9616,-3.3146,8.0807,0.20525,0.18754,0.07422
-0.1062,2.9224,-3.5108,7.8649,0.47525,0.30299,0.042761
-0.15137,3.0989,-3.5304,7.963,0.66951,0.39951,0.072998
-0.17557,3.2166,-3.5304,8.0022,0.68814,0.41325,0.099876
-0.19916,3.1774,-3.3146,8.0022,0.50427,0.34117,0.12981
-0.22592,3.1774,-3.3931,8.0218,0.15944,0.17532,0.15211
-0.25351,3.0793,-3.4127,8.1003,-0.21747,-0.050702,0.16616
-0.27896,3.1774,-3.3539,8.1199,-0.08827,-0.026267,0.0079412
-0.28571,2.8635,-3.2558,8.2572,-0.08827,-0.024129,0.013439
-0.30194,3.0008,-3.3735,8.2376,-0.086743,-0.027184,0.007025
-0.32379,2.7459,-3.197,8.1787,-0.084299,-0.027794,0.0054978
-0.33124,2.9224,-3.1577,8.0807,-0.077885,-0.029932,0.0061087
-0.33337,2.9616,-3.2558,7.963,-0.071166,-0.031154,0.0082467
-0.3493,3.1577,-3.3931,8.0022,-0.080634,-0.029627,0.0058032
-0.35394,3.2362,-3.4519,8.0807,-0.085216,-0.028405,0.0051924
-0.34473,3.1774,-3.4519,8.0611,-0.073915,-0.026573,-0.0082467
-0.36349,3.2166,-3.4519,8.0218,-0.076053,-0.024435,-0.0088575
-0.36044,3.0008,-3.3539,7.963,-0.072998,-0.02138,0.014966
-0.36118,2.9224,-3.2362,8.0807,-0.064141,-0.015577,0.012523
-0.36734,3.0008,-3.2558,8.0611,-0.050702,-0.011912,0.0082467
-0.37521,3.0989,-3.4519,7.9434,-0.038485,-0.0067195,0.0018326
-0.38876,2.8635,-3.3931,8.1199,-0.07025,0.0018326,-0.0042761
-0.39227,3.0008,-3.3735,8.0022,-0.071471,0.0097738,-0.0082467
-0.39676,2.9224,-3.3931,8.0807,-0.040928,0.014355,-0.013439
-0.39954,3.1774,-3.5304,7.8649,-0.051313,0.013744,-0.012523
-0.4028,3.1185,-3.5696,7.9434,-0.061087,0.0067195,-0.010996
-0.3959,3.1185,-3.4519,8.0022,-0.064446,-0.00061087,-0.011606
-0.38803,3.2362,-3.4519,8.0022,-0.062003,-0.0079412,-0.011301
-0.3895,3.1774,-3.4519,8.0022,-0.054978,-0.013744,-0.013134
-0.39285,3.0793,-3.4519,7.963,-0.032681,-0.016188,-0.016188
-0.37689,3.1774,-3.4716,7.9042,-0.033903,-0.01405,-0.017104
-0.39993,3.0597,-3.5696,8.0022,-0.071166,-0.013744,0.0064141
-0.40704,3.0793,-3.5696,7.9238,-0.077885,-0.01741,0.0076358
-0.41995,3.0793,-3.5304,7.9434,-0.088575,-0.021991,0.015272
-0.41898,3.2558,-3.5304,7.9238,-0.094684,-0.026878,0.010996
-0.41275,3.2362,-3.4127,8.0022,-0.098655,-0.029627,0.0039706
-0.4119,3.0989,-3.4127,7.9434,-0.096822,-0.030238,0.0009163
-0.41379,2.9616,-3.6285,7.7865,-0.086437,-0.029016,0.0030543
-0.42154,3.2166,-3.6677,7.9042,-0.079412,-0.027489,0.0048869
-0.4108,3.2754,-3.6873,7.9238,-0.076358,-0.0045815,-0.097128
-0.3869,3.1774,-3.7658,8.1003,-0.097433,-0.011301,-0.08094
-0.36758,3.0989,-3.5304,8.0807,-0.099876,-0.020159,-0.010385
-0.35706,3.0793,-3.4127,7.9434,-0.051313,-0.037263,-0.0073304
-0.35446,3.2558,-3.6285,7.7865,0.086132,-0.060781,-0.010079
-0.34564,2.942,-3.55,7.9042,0.30849,-0.044288,-0.026573
-0.33719,3.2558,-3.6873,7.8649,0.54825,0.037568,-0.058643
-0.33908,3.2362,-3.6285,7.8649,0.74739,0.13989,-0.088575
-0.32205,3.0793,-3.5304,8.0218,0.84605,0.22969,0.048869
-0.3147,3.1577,-3.5108,8.0807,0.8094,0.28497,0.039706
-0.3028,3.2558,-3.4127,7.9042,0.65301,0.2813,-0.056505
-0.29208,3.2558,-3.6677,7.7865,0.43402,0.21655,-0.023213
-0.29117,3.0204,-3.6873,7.7865,0.15608,0.12278,0.015272
-0.2709,3.2558,-3.7069,7.7865,-0.13317,0.009163,0.03543
-0.26678,3.0597,-3.5304,7.9042,-0.3824,-0.10293,0.042455
-0.23581,3.0793,-3.5108,8.1591,-0.57116,-0.18357,0.049786
-0.21234,3.2558,-3.4519,7.9434,0.010079,0.02138,-0.0048869
-0.20145,3.2558,-3.5108,7.9042,0.04612,0.038179,-0.0067195
-0.1908,3.3146,-3.6285,7.7865,0.063225,0.04612,-0.016493
-0.17761,3.0597,-3.6677,7.8649,0.057421,0.038485,-0.010385
-0.15958,3.2558,-3.5696,7.9434,0.031765,0.024435,-0.0012217
-0.15744,3.1774,-3.5108,7.9042,-0.0076358,0.007025,0.0027489
-0.15109,2.942,-3.4519,8.0022,-0.044899,-0.011301,0.0015272
-0.1539,3.2558,-3.6873,7.8649,-0.072998,-0.025962,-0.0024435
-0.19455,3.2558,-4.3934,7.5511,-0.090713,-0.034208,-0.011912
-0.29138,3.5696,-4.4914,7.3746,-0.085216,-0.033598,-0.012828
-0.4628,3.2558,-3.8442,7.9238,-0.072082,-0.027794,-0.0094684
-0.69266,2.8439,-2.687,8.5514,-0.061087,-0.018021,-0.01069
-0.9361,2.6086,-1.824,8.5318,-0.049786,-0.007025,-0.014661
-0.99997,2.7459,-1.9613,8.3945,-0.043677,-0.0012217,-0.016493
-0.99997,3.0793,-2.6674,8.0022,-0.047953,0,-0.015882
-0.99997,3.0793,-3.4127,7.8649,-0.059865,-0.0015272,-0.012523
-0.99997,3.4127,-4.0796,7.61,-0.068417,-0.00030543,-0.0024435
-0.99997,3.4912,-4.3934,7.4727,-0.097738,-0.0064141,0.0009163
-0.99997,3.55,-4.158,7.7865,-0.10354,-0.023213,-0.0012217
-0.96893,3.2754,-3.5108,8.0807,-0.088881,-0.037263,0
-0.81448,2.9224,-3.1381,8.4926,-0.066279,-0.047037,-0.0009163
-0.65878,3.0597,-3.0989,8.2376,-0.048258,-0.042455,-0.0058032
-0.54379,3.0793,-3.3931,7.963,0.0082467,-0.027794,-0.009163
-0.43784,3.4127,-3.6873,7.708,-0.029016,-0.01405,-0.0067195
-0.34918,3.4127,-3.8834,7.61,-0.021075,0.018021,-0.0082467
-0.26019,3.2558,-3.8638,7.7669,-0.069028,-0.010996,-0.007025
-0.19904,3.2754,-3.6873,7.8649,-0.10812,-0.028711,-0.036041
-0.13638,3.0793,-3.3146,8.0022,-0.12401,-0.03543,-0.033903
-0.10059,3.1185,-3.5304,8.0807,-0.11393,-0.030238,-0.032681
-0.053314,3.3931,-3.6285,7.7473,-0.087659,-0.011912,-0.03207
-0.03183,3.2558,-3.6873,7.7473,-0.061087,0.0061087,-0.029322
-0.0020142,3.2558,-3.6677,7.6884,-0.043371,0.014661,-0.019548
0.014923,3.3146,-3.6873,7.9434,-0.036041,0.012217,0.0042761
0.027618,3.3735,-3.7069,8.0807,-0.033292,0.0033598,0.00061087
0.03241,3.3146,-3.6873,7.9042,-0.03207,-0.0082467,-0.0076358
0.034943,3.0793,-3.6088,7.963,-0.032376,-0.016493,-0.0054978
0.041809,3.3735,-3.5304,7.7669,-0.029932,-0.023824,-0.0073304
0.037079,3.3146,-3.6285,7.7473,-0.031765,-0.031765,-0.0076358
0.040344,3.4127,-3.8246,7.7865,-0.040012,-0.037568,0.00030543
0.046967,3.2558,-3.7658,7.6884,-0.048564,-0.043677,0.007025
0.051147,3.3931,-3.4127,7.8061,-0.026878,-0.047647,-0.007025
0.065155,3.2558,-3.295,7.7865,0.00030543,-0.044593,-0.0024435
0.067444,3.2558,-3.5108,7.9238,0.030849,-0.039706,-0.0009163
0.082153,3.4127,-3.7265,7.9042,0.050702,-0.029627,-0.0039706
0.088715,3.3146,-3.9227,7.8649,0.050702,-0.019242,-0.0097738
0.084442,3.55,-3.6285,7.7473,0.034819,-0.010385,-0.014661
0.10443,3.4912,-3.5696,7.8061,-0.052534,-0.0024435,-0.017104
0.1037,3.2754,-3.6285,7.7473,-0.044593,-0.0012217,-0.012523
0.11154,3.3146,-3.8638,7.6296,0.009163,-0.0012217,-0.0009163
0.11874,3.0793,-4.0207,7.8649,-0.057116,0.0018326,0.00030543
0.14963,3.3146,-3.5304,7.8061,-0.044899,0.0073304,0.00030543
0.17761,3.3146,-3.5304,7.8453,-0.020769,0.021686,-0.00030543
0.20096,3.2166,-3.5108,7.7865,0.0054978,0.036346,-0.0058032
0.22128,3.2166,-3.5108,7.8649,0.028711,0.043371,-0.0054978
0.24008,3.3146,-3.6873,7.7669,0.039401,0.040928,-0.0024435
0.27368,3.4912,-3.6873,7.6296,0.03146,0.033598,-0.0027489
0.30652,3.1774,-3.6285,7.9042,-0.023824,0.026878,-0.00030543
0.34552,3.2166,-3.6285,8.0022,-0.032376,0.019548,-0.0024435
0.3801,3.2558,-3.6088,7.9434,-0.03207,0.011301,-0.01069
0.41135,3.4323,-3.5304,7.8649,-0.021075,0.010079,-0.015577
0.42877,3.4912,-3.5696,7.8453,-0.0036652,0.018021,-0.019548
0.44925,3.2558,-3.6088,7.7865,0.0073304,0.023213,-0.012217
0.46771,3.3146,-3.6677,7.7865,0.0079412,0.025045,-0.0051924
0.49319,3.2558,-3.6088,7.7865,0.0076358,0.025351,-0.0015272
0.50345,3.3146,-3.5696,7.7865,-0.010996,0.022297,-0.0027489
0.51154,3.3146,-3.6088,7.7865,-0.022297,0.017104,-0.0033598
0.50775,3.2558,-3.6873,7.6492,-0.036957,0.010385,-0.00061087
0.5195,3.4127,-3.5304,7.8649,-0.050702,0.0048869,0.0033598
0.52588,3.1774,-3.5304,7.7865,-0.054978,0.0009163,-0.0009163
0.51532,3.2558,-3.6088,7.9434,-0.050091,-0.0015272,-0.0045815
0.5007,3.3931,-3.5304,7.8649,-0.035736,-0.0012217,-0.0061087
0.50598,3.4716,-3.6285,7.7865,-0.020464,0.0036652,-0.0048869
0.505,3.1774,-3.5696,7.8649,-0.0054978,0.010996,-0.0054978
0.48892,3.3931,-3.6677,7.7865,0.0067195,0.018021,-0.0061087
0.47574,3.2166,-3.5108,7.8061,0.011606,0.025962,-0.0039706
0.45673,3.3735,-3.5304,7.8649,0.0045815,0.030543,-0.0048869
0.44376,3.2558,-3.6873,7.7865,-0.0094684,0.0281,-0.0067195
0.42255,3.3735,-3.8638,7.7865,-0.032987,0.024435,-0.0051924
0.43024,3.3735,-3.7265,7.9042,-0.054367,0.014966,-0.0045815
0.42349,3.2754,-3.4519,7.9238,-0.059865,0.0033598,-0.0039706
0.41479,3.3735,-3.4519,7.8649,0.028405,0.015577,0.021991
0.41092,3.2558,-3.4519,7.8649,0.01069,0.030849,0.024435
0.42239,3.0989,-3.5304,7.963,-0.043677,0.035125,0.046426
0.42657,3.3146,-3.7658,7.6492,-0.13195,0.014661,0.067806
0.40942,3.2754,-3.8638,7.6492,-0.21441,-0.01405,0.074526
0.39502,3.2362,-3.7658,7.9238,-0.24526,-0.028405,0.063835
0.33633,3.3931,-4.0796,7.6884,-0.22266,-0.011912,0.043677
0.1593,3.5696,-3.8442,7.61,-0.18173,0.0082467,0.024435
-0.071686,3.2166,-3.5304,7.7473,-0.13042,0.016493,0.0033598
-0.34015,3.2558,-3.1381,8.2572,-0.15547,0.015272,-0.00061087
-0.59811,3.3146,-3.3539,8.0022,-0.20372,0.0094684,0.01069
-0.8371,3.0989,-3.0401,8.1787,-0.25473,-0.0082467,-0.0039706
-0.98846,3.3146,-2.7459,8.1199,-0.281,-0.033292,-0.0030543
-0.99997,3.1774,-2.7459,7.8061,-0.2642,-0.06353,0.0042761
-0.99997,3.0597,-3.0008,7.6884,-0.14661,-0.083689,0.009163
-0.99997,2.9616,-3.3146,8.0807,-0.12889,-0.085216,0.0082467
-0.93768,3.3931,-3.5304,8.0807,-0.048258,-0.07422,0.017104
-0.76584,3.55,-3.5696,7.963,0.0067195,-0.032681,0.011912
-0.59998,3.3146,-3.6873,8.1003,0.03879,-0.0012217,-0.0054978
-0.40411,3.2558,-3.4519,8.0611,0.035125,0.026267,-0.0030543
-0.2514,3.3146,-3.2362,8.1787,0.010079,0.041233,0.0088575
-0.11694,3.2166,-3.3539,7.7473,-0.023824,0.038179,0.0094684
0.0034485,3.2166,-3.6873,7.6884,-0.21472,0.027184,0.012217
0.084137,3.3931,-3.9815,7.61,-0.13347,0.0048869,0.017715
0.15469,3.1774,-3.6873,7.7669,-0.10049,-0.014661,-0.0061087
0.21594,3.1774,-3.3931,7.9238,-0.090713,-0.030238,-0.0085521
0.26398,3.2558,-3.3146,7.9434,-0.074526,-0.040623,0.0051924
0.29794,3.3146,-3.3931,7.9434,-0.053756,-0.040623,-0.00061087
0.33194,3.4127,-3.6285,7.8061,-0.035125,-0.032376,-0.0042761
0.35089,3.4127,-3.6088,7.7865,-0.022297,-0.018326,-0.0051924
0.36633,3.2558,-3.5696,7.6884,-0.059865,-0.0045815,-0.0033598
0.39484,3.2558,-3.5696,7.9042,-0.088881,0.0051924,-0.0027489
0.37759,3.0793,-3.4127,7.9434,-0.023518,-0.0045815,0.0051924
0.38605,3.3146,-3.7658,8.0807,-0.0027489,0.0036652,0.00030543
0.39801,3.3146,-3.6285,7.9434,0.013744,0.015882,-0.0054978
0.40561,3.4912,-3.55,7.7865,0.010996,0.019853,-0.010079
0.41736,3.2166,-3.5304,7.8649,0.0036652,0.019853,-0.0039706
0.41354,3.3735,-3.5304,7.8453,-0.0082467,0.020464,0.0012217
0.42133,3.2558,-3.6285,7.7865,-0.02474,0.012217,-0.0018326
0.41681,3.4127,-3.6873,7.9434,-0.03146,0.0061087,0.0042761
0.4147,3.3146,-3.4716,7.8061,-0.031765,-0.0051924,-0.0024435
0.41812,3.4127,-3.6285,7.7865,-0.025656,-0.0082467,-0.0042761
0.41183,3.3146,-3.6285,7.7865,-0.014966,-0.0033598,-0.0024435
0.41092,3.4716,-3.5696,7.9042,-0.0058032,0.0042761,-0.0073304
0.38339,3.3735,-3.5304,7.8649,-0.0045815,0.012217,-0.0054978
0.41473,3.2558,-3.55,8.0218,-0.0067195,0.014966,-0.0009163
0.41888,3.2754,-3.4127,7.9042,-0.0048869,0.016188,-0.0009163
0.42319,3.4127,-3.6285,7.7865,-0.0051924,0.015577,-0.0012217
0.4267,3.2362,-3.6088,7.7865,-0.012523,0.01405,-0.0064141
0.43307,3.2754,-3.7265,7.8649,-0.020769,0.0067195,-0.0079412
0.43912,3.4127,-3.6285,7.7865,-0.028711,0.0027489,-0.0027489
0.44946,3.4127,-3.3931,7.9434,-0.033598,0.0009163,-0.00030543
0.44846,3.4323,-3.4127,7.9434,-0.03146,-0.002138,-0.0018326
0.4436,3.2558,-3.6285,7.9434,-0.025351,-0.0042761,0.00061087
0.43887,3.4323,-3.6088,7.8649,-0.01405,-0.0036652,0.00061087
0.43439,3.3343,-3.5304,7.7865,-0.0036652,0.002138,-0.0045815
0.41675,3.2558,-3.55,7.9042,-0.0030543,0.032376,-0.0042761
0.40118,3.4127,-3.4519,7.8061,-0.010996,0.020159,-0.0030543
0.39957,3.1774,-3.4519,7.9434,-0.02474,0.012523,-0.011301
0.39005,3.2558,-3.5696,7.7865,-0.032681,0.007025,-0.0097738
0.37582,3.3146,-3.6677,7.9238,-0.037874,-0.0024435,-0.010996
0.37561,3.5304,-3.7658,7.7865,-0.043371,-0.0061087,-0.010996
0.37067,3.3146,-3.55,7.9042,-0.043677,-0.009163,-0.0064141
0.35858,3.0793,-3.4716,7.9434,-0.043677,-0.0094684,-0.0039706
0.35654,3.2558,-3.4519,7.9042,-0.065973,0.045509,0.0015272
0.3663,3.4716,-3.6285,7.8649,-0.097738,0.024435,-0.0033598
0.36469,3.2166,-3.6873,7.9434,-0.11454,0.0030543,0.00061087
0.32666,3.3146,-4.0796,7.6884,-0.11759,-0.015272,0.002138
0.19208,3.5304,-3.8638,7.61,-0.1124,-0.026573,0.0051924
-0.038696,3.5696,-3.5108,7.7865,-0.097738,-0.029016,0.0051924
-0.33029,3.0597,-2.7655,8.1591,0.022297,-0.025656,0.0036652
-0.61032,3.0008,-2.8832,8.0022,-0.022602,-0.018937,0.0030543
-0.83472,3.3735,-3.4323,7.7865,-0.051007,-0.0067195,0.0030543
-0.98117,3.5696,-3.5304,7.7865,-0.045204,0.0045815,0.011606
-0.99997,3.4127,-3.6873,7.7865,-0.047037,0.01069,-0.0054978
-0.99997,3.3146,-3.6285,7.9042,-0.04948,0.009163,-0.0030543
-0.98721,3.4912,-3.4716,7.9434,-0.051007,0.010385,-0.00061087
-0.8978,3.2558,-3.4127,8.2572,-0.054672,0.009163,-0.002138
-0.78061,3.2558,-3.3735,8.1787,-0.078191,0.0045815,-0.0045815
-0.64496,3.2166,-3.3146,8.1003,-0.062614,0.0015272,-0.0024435
-0.5256,3.5304,-3.7069,7.7669,0.015577,0.046731,0.011606
-0.39706,3.4323,-3.8638,7.5511,0.04612,0.061392,0.01069
-0.27051,3.3146,-3.6285,7.6884,0.045204,0.066584,0.025045
-0.15881,3.2558,-3.3735,7.9434,0.017104,0.061087,0.018326
-0.059021,3.1774,-3.3539,7.8649,-0.028711,0.046426,0.011912
0.0095825,3.4127,-3.3735,8.0218,-0.085827,0.022907,0.011912
0.073486,3.3931,-3.5304,7.7865,-0.14813,-0.0064141,0.01069
0.12933,3.4912,-3.6285,7.8453,-0.20281,-0.037263,0.009163
0.15924,3.4127,-3.55,7.6884,-0.23213,-0.059254,0.0045815
0.19653,3.4127,-3.6873,7.7865,-0.2248,-0.06353,0.0030543
0.22476,3.3146,-3.55,7.8453,-0.17501,-0.044899,0.0033598
0.24353,3.4127,-3.5108,7.8649,-0.092546,-0.007025,-0.0039706
0.2652,3.2754,-3.4519,7.8649,-0.0097738,0.032987,-0.0054978
0.26938,3.1774,-3.55,7.9434,0.048258,0.060476,-0.0030543
0.27765,3.5304,-3.9815,7.7865,0.067195,0.07086,0.002138
0.29092,3.5696,-3.7069,7.7669,0.056505,0.063835,0.0045815
0.3006,3.2558,-3.5304,7.7865,-0.027794,-0.031765,-0.0018326
0.32135,3.2362,-3.7069,7.9434,-0.042761,-0.039095,-0.017715
0.34305,3.4912,-3.5108,7.9434,-0.045815,-0.05284,0.012523
0.3483,3.3931,-3.5304,7.9434,-0.033292,-0.068111,0.0082467
0.34674,3.4912,-3.6285,7.7865,-0.025962,-0.068417,0.0012217
0.35406,3.5696,-3.7265,7.7473,-0.069333,-0.06353,-0.0085521
0.35529,3.2558,-3.6873,7.7669,-0.16188,-0.081245,-0.011301
0.35892,3.4127,-3.6285,7.708,-0.27733,-0.12675,-0.0033598
0.35391,3.2362,-3.5304,7.8061,-0.42486,-0.18234,-0.21838
0.35123,3.3735,-3.5108,7.8061,-0.61484,-0.2419,-0.22633
0.35693,3.0989,-3.55,7.8649,-0.82497,-0.3036,-0.029932
0.35501,3.0793,-3.6088,7.8061,-1.0489,-0.35736,-0.029627
0.35672,3.2558,-3.7069,7.6492,-1.2278,-0.42058,-0.048564
0.36523,3.3146,-3.7069,7.6296,-1.2776,-0.45907,-0.1014
0.33676,3.4716,-3.7658,7.7865,-1.2617,-0.40989,-0.15944
0.35464,3.4912,-3.8638,7.7865,-1.3821,-0.28222,-0.20159
0.3443,3.3146,-3.6285,7.7669,-0.032376,-0.021991,0.015577
0.34348,3.4912,-3.7658,7.7473,-0.03543,-0.030543,0.019242
0.3392,3.3146,-3.7658,7.6884,-0.043371,-0.034208,0.011912
0.32654,3.5696,-3.6285,7.8061,-0.054672,-0.041844,0.01069
0.3252,3.3735,-3.6677,7.7865,-0.058338,-0.043677,0.0094684
0.30563,3.4127,-3.6873,7.8061,-0.055589,-0.046426,0.01405
0.28226,3.3146,-3.7069,7.9042,-0.047037,-0.040928,0.012828
0.27325,3.3931,-3.8442,8.0022,-0.03543,-0.031154,0.015577
0.2695,3.5304,-3.8638,8.1787,-0.022602,-0.02474,0.019548
0.25043,3.5696,-3.7854,8.0611,-0.023213,-0.020464,0.014966
0.24255,3.3735,-3.55,8.4141,-0.026573,-0.02138,0.020159
0.22882,3.5696,-3.6873,8.4141,-0.02474,-0.024435,0.020769
0.21118,3.903,-3.6285,8.7083,-0.017104,-0.022602,0.022297
0.19751,4.1972,-4.1384,8.1003,-0.01405,-0.020464,0.018631
0.1911,4.668,-4.4914,7.2961,-0.016799,-0.021075,0.018631
0.20941,5.276,-4.3345,5.884,-0.018631,-0.025045,0.02138
0.2764,5.1387,-4.3345,5.8644,-0.22022,0.09896,-0.038179
0.40195,5.1583,-4.6287,6.3351,-0.28314,0.078802,-0.05681
0.57602,4.9426,-5.2564,6.3547,-0.3543,0.043066,0.090103
0.75473,4.8053,-5.7467,6.4332,-0.405,0.0033598,0.06689
0.94025,4.8053,-4.7268,6.8254,-0.42638,-0.01405,0.045204
1,4.0403,-3.6873,6.5901,-0.43219,-0.032376,0.025045
1,4.0403,-3.6873,5.7467,-0.15638,-0.057421,0.0082467
1,4.6287,-4.9818,4.3542,-0.18082,-0.065057,-0.011301
1,5.374,-6.0409,3.3539,2.9132,1.0672,0.29505
1,4.9818,-6.0801,3.6873,3.0015,1.1426,0.23335
1,4.3149,-5.2564,4.5503,3.0265,1.2306,0.22694
1,4.06,-4.8053,4.9818,2.9544,1.3216,0.22358
1,3.5696,-4.0796,5.6682,2.7745,1.3744,0.23457
1,3.3931,-4.0207,6.1978,2.5119,1.3525,0.2755
1,3.5892,-3.9423,6.6097,2.2196,1.2691,0.32834
1,3.3146,-3.4127,7.5511,1.9435,1.1628,0.34117
1,2.2163,-3.3539,8.2376,1.6936,1.0669,0.0064141
0.92612,2.1575,-3.55,8.6495,1.4642,0.97372,0.032681
0.8334,2.0006,-3.6873,9.3555,1.2523,0.84788,0.20831
0.74878,1.8437,-4.4914,10.101,1.0363,0.69669,0.20678
0.68057,1.6867,-4.766,9.5321,0.7926,0.53542,0.1744
0.62488,1.824,-4.158,8.6299,0.5849,0.39492,0.10812
0.58868,2.0006,-2.9028,7.7669,0.48136,0.30543,0.037263
0.55948,1.6083,-1.7848,7.7865,0.44104,0.26939,-0.0015272
0.53012,1.824,-2.1575,7.963,0.13164,0.26603,0.11484
0.53,2.1771,-2.942,8.6299,0.0048869,0.26481,0.10476
0.52994,2.432,-3.3146,9.434,-0.10873,0.24343,0.059254
0.5239,2.6086,-3.0989,9.2183,-0.17868,0.18876,0.10263
0.49924,3.0008,-2.687,8.9437,-0.17746,0.12462,0.15302
0.48141,2.8635,-2.3732,8.218,-0.15394,0.082161,0.1689
0.46796,3.0793,-2.7655,8.0807,0.36988,0.083383,0.14508
0.46671,3.2558,-3.6873,8.1003,0.2587,0.10049,0.12217
0.48624,3.2558,-3.7069,7.9434,-0.19426,-0.069028,0.012523
0.50891,3.1774,-3.9423,8.0807,-0.17837,-0.059865,0.02138
0.54254,2.7851,-3.3931,7.9434,-0.16646,-0.047342,0.045509
0.55624,2.7459,-3.3146,7.963,-0.15974,-0.044899,0.04612
0.55524,2.6282,-3.5108,8.1787,-0.14142,-0.04612,0.036652
0.51685,2.6086,-3.3931,8.0807,-0.10201,-0.031154,0.021991
0.48035,2.7851,-3.197,8.0022,-0.05681,-0.0097738,0.0054978
0.40854,2.432,-3.2558,8.1787,-0.023518,0.016188,0.0045815
0.34033,2.6282,-3.3539,8.2572,-0.028405,0.019853,0.04215
0.24902,2.6086,-3.0989,8.2768,-0.065057,0.0082467,0.037568
0.17194,2.7851,-3.1381,8.218,-0.088575,-0.0048869,0.018937
0.10132,2.7851,-3.3931,7.9434,-0.12401,-0.02138,0.0085521
0.04361,2.9224,-3.4519,8.0807,-0.1463,-0.026573,0.012523
-0.0097046,2.9224,-3.5696,8.1199,-0.17135,-0.03146,0.016188
-0.061615,2.9224,-3.6285,7.9434,-0.21105,-0.050396,0.0281
-0.088684,2.942,-3.5108,7.8649,-0.25473,-0.073915,0.040928
-0.11523,2.8635,-3.3931,8.1787,-0.34636,-0.095295,0.034819
-0.12125,2.7459,-3.4716,8.316,-0.40256,-0.11576,0.03543
-0.13544,2.8635,-3.6285,8.0611,-0.4612,-0.13592,0.033903
-0.13593,2.6086,-3.2558,8.0022,-0.52137,-0.14936,0.036041
-0.12924,2.4517,-3.3931,7.963,-0.58185,-0.15638,0.038485
-0.13834,2.5497,-3.5304,7.9434,-0.64874,-0.16005,0.046426
-0.16116,2.687,-3.5108,8.0022,-0.71288,-0.17135,0.05284
-0.20032,2.8635,-3.6285,8.0022,-0.76297,-0.19334,0.047342
-0.25919,2.7459,-3.6873,7.963,-0.79871,-0.22877,-0.033903
-0.33835,2.6282,-3.9227,8.0022,-0.82742,-0.26634,-0.05284
-0.41202,2.7655,-4.0992,7.8061,-0.84238,-0.28772,0.036041
-0.49933,2.687,-4.3934,7.61,-0.83566,-0.31246,0.029627
-0.56235,2.942,-4.8837,7.5511,-0.8039,-0.34483,0.030849
-0.6131,2.7851,-5.1975,7.2177,-0.75411,-0.35216,0.022602
-0.64331,2.6086,-4.7856,7.0019,-0.71135,-0.35613,-0.0036652
-0.64963,2.687,-5.1387,7.2961,-0.67073,-0.36224,-0.024129
-0.64551,2.7459,-5.1975,7.0216,-0.13256,0.023824,0.08094
-0.61102,2.0006,-5.1191,7.1589,-0.15211,0.022602,0.074526
-0.55511,1.7456,-5.2564,6.9235,-0.20525,-0.0067195,0.24404
-0.50192,1.9613,-5.4133,7.2177,-0.26909,-0.054672,0.24343
-0.45633,1.7456,-5.6486,7.4531,-0.31246,-0.10965,0.23121
-0.41125,1.824,-5.7075,6.9823,-0.32498,-0.14233,0.20464
-0.375,1.824,-5.1191,7.1196,-0.30543,-0.146,0.16127
-0.35025,2.2948,-4.3542,7.1785,-0.24129,-0.12645,0.1127
-0.32941,2.6086,-3.3931,7.3354,0.11851,-0.073609,0.064752
-0.31558,3.4323,-2.8243,7.1196,0.20036,-0.0015272,0.071777
-0.31104,4.1188,-2.4124,7.2765,0.25229,0.065363,0.081245
-0.31088,4.7268,-2.7459,7.2765,0.27397,0.11362,0.089797
-0.31494,5.2171,-3.197,7.2765,0.26237,0.1405,0.098044
-0.31589,5.5113,-3.6873,7.5903,0.23274,0.1518,0.096822
-0.31152,5.9821,-3.8246,7.4531,-0.13714,0.15852,0.086132
-0.30252,5.9821,-3.5304,7.4531,-0.0045815,0.17104,0.072693
-0.28912,5.6094,-3.55,7.6492,0.14325,0.14905,0.10079
-0.29126,5.4329,-4.2561,7.6884,0.11759,0.11912,0.094684
-0.30353,4.6876,-5.0798,7.2373,0.053145,0.12187,0.069944
-0.30917,4.2561,-5.1191,6.8647,-0.045815,0.11148,0.053756
-0.30801,3.6873,-4.766,6.6881,-0.16035,0.088575,0.082467
-0.31073,3.1774,-4.5699,6.747,-0.25931,0.037874,0.12828
-0.33102,2.7655,-4.4914,7.0608,0.18387,-0.023824,0.13042
-0.35693,2.4517,-4.2953,7.1196,0.14416,-0.068111,0.11332
-0.38412,2.4517,-4.3149,7.3942,-0.31246,-0.083383,0.019548
-0.41122,2.7851,-3.8638,7.7473,-0.33109,-0.076969,-0.0097738
-0.41766,3.0793,-3.9423,7.9042,-0.32559,-0.061697,-0.051007
-0.41916,3.2558,-3.9423,7.7865,-0.28741,-0.032681,-0.083994
-0.40131,3.55,-4.1776,7.3746,-0.23182,0.014966,0.10018
-0.36572,3.4912,-4.5699,7.2765,-0.1744,0.083383,0.098044
-0.31149,3.8834,-4.8053,6.9823,-0.12034,0.16432,0.074831
-0.22931,3.8638,-4.8249,6.6097,-0.078191,0.22846,0.045204
-0.11133,3.7069,-4.6287,6.747,-0.57055,0.80879,-1.4826
0.057709,3.4127,-5.4133,7.0216,-0.57177,0.81642,-1.4868
0.22067,3.6285,-5.9036,7.2765,-0.59559,0.82009,-1.4401
0.37726,3.7461,-6.3939,7.0608,-0.61484,0.83811,-1.449
0.53625,3.805,-6.1782,6.747,-0.62766,0.86499,-1.4661
0.69263,3.5696,-5.276,6.8254,-0.64507,0.88514,-1.47
0.82401,3.4912,-4.6091,6.9235,-0.66584,0.90439,-1.467
0.92566,4.0207,-5.1191,7.8649,-0.67684,0.93126,-1.4725
0.99622,4.6876,-5.5702,6.5901,-0.66554,0.95845,-1.3919
1,5.1975,-6.2174,5.9036,-0.65027,0.97861,-1.3668
1,5.4133,-5.884,5.9232,-0.65424,0.97983,-1.4774
1,5.1387,-5.021,6.2959,-0.67623,0.95997,-1.4548
1,4.9622,-3.9227,6.5508,-0.70372,0.93676,-1.4346
1,5.0602,-3.295,6.492,-0.73029,0.90775,-1.4288
1,4.9622,-3.1381,6.5312,-0.74312,0.87048,-1.4203
1,4.7464,-3.3146,6.6881,-0.73731,0.83444,-1.4065
1,4.5699,-3.6285,6.747,-0.72143,0.79993,-0.97738
1,4.4914,-3.6677,7.1785,-0.67898,0.76389,-0.95203
1,3.805,-3.8442,7.5903,-0.60567,0.73609,-1.3347
1,3.805,-3.9815,7.4334,-0.53848,0.71777,-1.2969
1,3.3931,-3.8442,7.3158,-0.51007,0.69333,-1.2336
1,3.2558,-4.1776,7.3746,-0.52901,0.65149,-1.1512
1,2.9028,-3.9815,7.3746,-0.58674,0.59407,-1.0803
1,2.7851,-3.5304,7.5511,-0.67409,0.51435,-1.0238
1,2.3732,-3.6873,7.6296,-0.48289,0.5568,-1.4798
1,2.687,-3.8834,7.6884,-0.60689,0.57024,-1.456
1,2.589,-4.3149,7.6492,-0.72326,0.57849,-1.4545
1,2.942,-4.5699,8.0218,-0.81673,0.59437,-1.4847
1,3.0008,-4.3345,8.0807,-0.85368,0.62522,-1.5098
1,3.0597,-4.0011,8.0807,-0.82681,0.67042,-1.5183
1,2.7851,-3.8638,8.0022,-0.75075,0.72907,-1.5131
1,3.0008,-4.3934,8.316,-0.66218,0.77824,-1.4991
0.97598,3.1774,-4.8837,8.7083,0.67531,1.1558,0.27184
0.96771,3.7069,-4.9622,8.6887,0.55619,1.0754,0.28222
0.96936,3.6285,-4.3934,8.7083,0.51313,0.97402,0.41508
0.99252,3.8834,-3.8638,8.5318,0.48686,0.86712,0.39951
0.98407,4.0992,-3.6873,8.4141,0.46701,0.79351,0.36896
0.9809,4.6287,-3.6677,8.4141,0.48778,0.74403,0.33414
0.97452,5.2956,-3.8442,8.3357,1.014,0.70158,0.31979
0.96799,5.3544,-3.4716,8.2376,0.83902,0.70402,0.29902
0.97012,5.4525,-3.55,7.9434,0.47342,0.74556,0.30635
0.95566,6.0017,-3.3931,7.5903,0.38026,0.77702,0.30329
0.95209,6.5312,-3.5304,6.9235,0.24893,0.76541,0.31185
0.92264,6.6881,-3.4127,6.8058,0.087659,0.70585,0.32651
0.92319,5.8448,-2.5105,6.9235,-0.098349,0.61056,0.33445
0.86804,5.1975,-1.4318,6.6685,-0.28039,0.49755,0.3427
0.78317,4.6287,-1.0199,5.9036,0.51832,0.39584,0.33353
0.65823,4.5111,-1.8829,5.3937,0.5174,0.30482,0.31062
0.51498,4.5699,-3.3146,5.7075,1.0825,0.25412,0.044899
0.40509,4.06,-4.0207,6.237,1.0446,0.3372,0.095295
0.30255,3.7069,-3.8246,6.7077,0.89767,0.38576,-0.18173
0.19455,3.2166,-3.3146,7.0019,0.70036,0.40653,-0.099266
0.070618,2.6282,-3.2558,7.5315,0.53665,0.40287,-0.057421
-0.087463,2.0006,-3.8442,8.1003,0.46242,0.41722,-0.050702
-0.2807,1.1964,-4.3345,8.5514,0.5003,0.48503,-0.040317
-0.49127,0.86299,-4.3934,7.7669,0.6466,0.60873,-0.0009163
-0.74158,0.96105,-4.3934,7.2373,0.88117,0.77733,0.45876
-0.9707,1.1964,-3.5304,7.0019,1.1286,0.94654,0.43707
-0.99997,1.2356,-3.0793,7.5315,1.3256,1.0837,0.1741
-0.99997,0.66685,-2.7459,8.2572,1.4636,1.1912,0.25473
-0.99997,0.43149,-2.7459,8.8064,1.5098,1.2679,0.31368
-0.99997,0.86299,-2.7459,8.7475,1.456,1.2941,0.37293
-0.99997,0.98067,-3.2362,8.2572,1.3424,1.2691,0.42822
-0.99997,1.5102,-3.5304,7.6296,1.1912,1.2168,0.45876
-0.99997,1.5102,-3.5108,8.0218,0.0048869,0.060781,0.055589
-0.99997,1.3337,-3.3735,9.179,-0.047953,0.039401,0.051007
-0.99997,1.1964,-2.7262,9.5713,-0.081551,0.029932,0.11362
-0.99997,1.5495,-2.687,9.6301,-0.096517,0.037263,0.091019
-0.99997,1.9025,-3.0008,9.3163,-0.10079,0.062003,0.073609
-0.99997,2.1378,-3.0989,8.8064,-0.10324,0.083994,0.065668
-0.99997,2.2359,-2.9028,8.7083,-0.11698,0.083994,0.069028
-0.99997,2.079,-2.3732,8.7475,-0.1347,0.075747,0.064752
-0.99997,1.824,-2.2163,9.0417,-0.11759,-0.056505,0.077274
-0.99997,1.4514,-2.3144,9.3752,-0.087354,-0.045815,0.085216
-0.99997,1.9809,-2.8439,9.2771,-0.054367,-0.036652,-0.043371
-0.99997,2.4909,-2.6086,8.8456,-0.048869,-0.044593,0.016799
-0.99997,2.2359,-2.4713,8.7279,-0.077274,-0.059559,0.043066
-0.99997,2.2359,-2.2751,8.8652,-0.12126,-0.075442,0.05681
-0.99997,2.0594,-2.2948,8.5514,-0.14233,-0.079412,0.068417
-0.99997,2.3732,-2.5105,8.4141,-0.1405,-0.074526,0.071471
-0.99997,2.1378,-2.9224,8.2572,-0.13408,-0.064752,0.094073
-0.99997,2.2359,-3.0008,8.2376,-0.13958,-0.058338,0.076358
-0.99997,2.4517,-2.8832,8.2572,-0.15913,-0.054672,0.085521
-0.99997,2.1575,-2.687,8.4141,-0.16432,-0.043982,0.07025
-0.99997,2.1575,-2.6086,8.7083,-0.13317,-0.020769,0.050091
-0.99997,2.1771,-2.7459,8.6495,-0.093157,0.0058032,0.047953
-0.99997,2.0006,-2.7655,8.316,-0.056505,0.022297,0.068111
-0.99997,1.9809,-2.5693,8.1199,-0.036957,0.019853,0.087354
-0.99997,1.9025,-2.6086,8.316,-0.063835,0,0.11881
-0.99997,1.6671,-2.687,8.6299,-0.076053,-0.020159,0.13073
-0.99997,1.8437,-2.9028,8.5318,-0.062919,-0.039401,0.065057
-0.99997,1.6867,-3.0597,8.5318,-0.018937,-0.046731,0.062003
-0.99997,1.824,-3.1381,9.0417,0.060781,-0.036957,0.043371
-0.99997,1.6671,-3.5304,9.3359,0.12126,0.0012217,0.036041
-0.99997,0.90221,-4.0796,9.434,0.12248,0.04948,0.051924
-0.99997,0.33343,-4.766,9.787,0.07086,0.072388,0.083994
-0.99997,-0.64724,-5.021,10.375,-0.084605,-0.056505,0.74403
-0.99997,-0.27459,-4.9229,10.611,0.47464,-0.091324,0.62278
-0.99997,-0.05884,-4.3149,10.12,0.4331,-0.10934,1.5131
-0.948,-0.84337,-4.0207,9.7478,0.36682,-0.13439,1.3714
-0.86862,-1.3925,-3.3735,9.2575,0.26481,-0.16432,1.2239
-0.82397,-1.4514,-2.7262,8.7475,0.14111,-0.19761,1.0864
-0.79037,-1.0787,-2.3732,8.1003,0.023824,-0.2361,0.96333
-0.74625,-0.68647,-2.5693,7.5903,-0.062919,-0.27611,0.85277
-0.70493,-0.05884,-2.5693,6.9627,0.49205,0.11209,3.145
-0.65164,0.2942,-1.824,6.7077,0.51068,0.2193,3.2544
-0.59976,0.35304,-0.86299,7.0608,0.48808,0.29077,2.1313
-0.54733,0.72569,-0.62763,7.3158,0.42883,0.31154,2.3827
-0.52426,1.0787,-0.96105,7.4923,0.35155,0.31124,2.6044
-0.48227,1.824,-1.3533,7.4923,0.30757,0.31368,2.7846
-0.4292,2.5301,-1.1572,7.3158,0.29322,0.32437,2.9328
-0.37344,2.687,-0.72569,7.2177,0.30055,0.35308,3.0525
-0.32562,2.9616,-1.1768,7.8453,0.34483,0.3769,2.926
-0.26962,3.0008,-2.432,8.6887,0.31704,0.38576,2.8033
-0.2092,3.55,-2.942,8.7475,0.27917,0.38759,3.3515
-0.14523,3.5696,-2.9224,8.4337,0.28527,0.37996,3.3854
-0.091278,4.0011,-3.4127,8.0611,0.37782,0.34941,3.3701
-0.042694,3.8638,-5.021,8.218,0.53787,0.31643,3.3136
0.023529,4.1188,-6.139,8.6887,0.32865,0.30085,3.2086
0.11264,4.2757,-6.3547,9.179,0.34606,0.31551,3.0705
0.18042,4.3345,-5.5898,8.9437,0.76908,0.32865,1.7859
0.23907,4.2561,-4.3345,8.0022,0.72296,0.31154,1.6469
0.2753,3.8442,-4.0207,8.2572,0.65637,0.28039,2.6808
0.27808,3.55,-4.4914,8.9044,0.58887,0.2532,2.525
0.26431,3.6481,-4.6091,8.7083,0.53878,0.21166,2.3622
0.25095,3.7069,-3.55,8.5318,0.51068,0.14783,2.2217
0.19696,3.55,-2.8243,8.1787,0.686,0.080023,2.0855
0.12354,3.1774,-2.6282,8.1199,0.76236,0.0085521,1.9355
0.033264,3.1774,-3.3146,8.4337,0.1066,0.208,0.024435
-0.066772,2.9224,-3.5108,8.4141,-0.10354,0.24038,0.020464
-0.17297,2.4713,-2.2948,8.1787,-0.34911,0.23671,-0.22724
-0.31427,2.079,-1.3533,7.6884,-0.60476,0.19853,-0.18876
-0.48785,1.1964,-0.86299,9.6497,-0.85277,0.10201,-0.16463
-0.67072,0.27459,-1.9613,10.885,-1.0766,-0.036957,-0.12675
-0.83414,1.0395,-3.7658,10.434,-1.1915,-0.1854,-0.041844
-0.95056,1.5298,-4.3149,9.8851,-1.0873,-0.24648,0.029932
-0.99997,1.3533,-3.4519,9.3752,-0.49877,-0.16127,0.12492
-0.99997,0.70608,-1.9417,9.3163,-0.18387,0.0061087,0.13011
-0.99997,0.19613,-1.1768,9.1202,-0.09896,0.14325,0.093768
-0.99997,-0.23536,-0.90221,9.179,-0.27122,0.13347,0.22205
-0.99997,-0.52956,-0.84337,9.0613,-0.51771,-0.0073304,0.31276
-0.99997,-0.43149,-0.23536,8.8064,-0.65088,-0.18509,0.3036
-0.99997,-0.35304,0,8.4141,-0.60964,-0.29444,0.23121
-0.99997,-0.98067,-0.37265,8.7475,-0.43799,-0.3259,0.15241
-0.99997,-0.54917,-1.5102,9.8263,-0.19853,-0.30146,-0.10599
-0.92004,0.56879,-2.6086,9.0417,0.061392,-0.24496,-0.22816
-0.72134,0.76492,-2.6282,8.5514,0.23976,-0.12767,0.13011
-0.53732,0.35304,-2.0594,9.8851,0.25168,0.029322,0.12675
-0.41193,0.078453,-1.8044,9.6694,0.016493,0.091935,0.13286
-0.35742,0.92183,-2.1967,8.7475,-0.21197,-0.054672,0.18723
-0.35425,1.4906,-3.0008,8.8652,-0.208,-0.28283,0.22541
-0.41443,2.334,-3.2558,8.316,-0.065057,-0.44899,0.09896
-0.51941,2.2359,-2.1967,10.591,0.19731,-0.49908,-0.009163
-0.71384,0.98067,-2.5105,10.905,0.54123,-0.45051,-0.038485
-0.90512,1.9221,-3.5108,10.062,0.88209,-0.31062,-0.26176
-0.99997,2.3732,-3.3931,8.4926,1.1353,-0.10751,-0.26817
-0.99997,2.0202,-1.8829,6.8647,1.2281,0.11912,-0.23579
-0.99997,0.35304,-0.05884,7.3158,1.1527,0.30116,-0.17623
-0.99997,-1.6867,0.23536,9.0417,0.94073,0.3882,-0.1127
-0.99997,-1.4906,-1.0199,9.179,0.61606,0.38515,-0.049175
-0.99997,0.27459,-1.824,8.1787,0.30757,0.082161,-0.1405
-0.99997,1.0591,-1.6475,8.0611,0.18601,0.0015272,-0.093462
-0.99997,0.41188,-1.1572,9.0417,0.083994,-0.083383,-0.059865
-0.99997,0.43149,-1.0199,9.434,0.051924,-0.12401,-0.079412
-0.99997,0.35304,-1.2553,9.2183,0.11973,-0.097738,-0.11545
-0.99997,0.41188,-2.2751,9.081,0.27031,-0.0015272,-0.16341
-0.84677,0.76492,-3.0597,8.9437,0.44624,0.13408,-0.19212
-0.57489,0.96105,-3.1577,8.8064,0.5623,0.24893,-0.17959
-0.3486,0.90221,-2.2751,9.4928,0.29108,0.29871,0.071166
-0.2099,0.80415,-1.9809,9.5125,0.098655,0.28039,0.039095
-0.203,1.0591,-2.4517,9.5125,-0.08827,0.23243,-0.052229
-0.2648,0.96105,-2.6086,10.591,-0.28955,0.2025,-0.028405
-0.38266,0.96105,-2.4124,9.3555,-0.51007,0.19945,-0.0067195
-0.53113,1.0395,-1.9809,8.4141,-0.6802,0.18937,0.029932
-0.66711,0.74531,-1.824,7.9434,0.56444,0.11912,0.075747
-0.80389,0.11768,-1.4906,8.8848,0.45876,-0.0009163,0.097433
-0.94009,-0.13729,-1.5102,9.2575,-0.5901,-0.072388,0.12126
-0.99997,0.039227,-2.3732,9.3752,-0.41233,-0.059559,0.096822
-0.99997,0.80415,-3.0401,8.8456,-0.23671,0.0024435,0.061697
-0.99997,1.2945,-2.687,7.61,-0.10782,0.097128,0.10385
-0.99997,0.90221,-1.3141,7.963,-0.029627,0.19884,0.12248
-0.99997,0.27459,-0.39227,8.4141,0.018326,0.27886,0.14508
-0.98114,0.35304,-0.39227,8.7083,-0.74617,0.31001,0.16799
-0.88196,0.019613,-0.64724,8.7083,-0.71135,0.29322,0.16066
-0.74033,-0.76492,-1.5102,9.434,0.081551,-0.12675,-0.067501
-0.58395,-0.27459,-2.0986,9.1202,0.22846,-0.11362,-0.051618
-0.397,0.54917,-2.5693,8.3357,0.34147,-0.093462,-0.1179
-0.19012,0.70608,-2.6086,8.218,0.42974,-0.055283,-0.11515
-0.014923,0.49033,-2.6086,9.0417,0.48594,0.022907,-0.093157
0.12637,0.27459,-1.8437,9.8066,0.49755,0.09499,-0.10446
0.20581,0.27459,-1.3533,10.317,0.46548,0.13439,-0.10873
0.18161,0.74531,-1.8437,9.5125,0.40561,0.12828,-0.093462
0.080322,1.4318,-2.2163,9.0417,-0.26298,-0.054672,0.059559
-0.070679,0.41188,-2.1182,8.8848,-0.34911,-0.16066,0.030849
-0.21896,-0.019613,-2.3144,8.6299,-0.34911,-0.17165,0.053756
-0.35858,0.5884,-2.5105,8.316,-0.32376,-0.13653,0.016799
-0.49008,-0.27459,-2.1378,8.9633,-0.30421,-0.091935,0.054672
-0.65247,-0.66685,-1.5102,9.3163,-0.28375,-0.068722,0.10446
-0.8378,-0.27459,-1.471,9.3359,-0.26542,-0.065973,0.11668
-0.98721,0.45111,-1.6279,9.0417,-0.24771,-0.064752,0.095906
-0.99997,0.5884,-1.824,8.9633,-0.21808,-0.061392,-0.082467
-0.99997,0.39227,-2.0594,9.434,-0.18815,-0.071777,-0.07086
-0.99997,0.35304,-2.0594,9.787,-0.16829,-0.099876,0.018326
-0.99997,0.54917,-1.6475,9.7478,-0.16218,-0.13622,0.00061087
-0.97818,0.17652,-1.3533,9.3359,-0.15149,-0.17593,-0.020159
-0.83664,0.23536,-1.2553,8.4926,-0.089186,-0.17929,-0.02474
-0.67331,-0.13729,-1.5887,9.179,0.044593,-0.12004,-0.036346
-0.53629,0.098066,-2.6282,8.9044,0.19578,-0.0058032,-0.067195
-0.42004,0.90221,-2.6282,8.3749,0.22785,0.11423,-0.062919
-0.3577,0.35304,-2.1378,8.8456,0.31948,0.19548,-0.054978
-0.34912,-0.078453,-1.1964,9.2575,0.32162,0.22083,-0.040623
-0.41357,-0.078453,-1.1768,9.434,0.22999,0.16341,-0.030238
-0.49472,0.49033,-1.6475,8.4141,0.10049,0.032681,-0.056505
-0.57117,0.54917,-1.7456,8.6299,0.0018326,-0.086132,-0.080023
-0.63458,0.33343,-2.1378,8.8456,-0.061697,-0.13439,-0.065363
-0.69391,0.41188,-2.1182,9.0417,-0.091324,-0.11881,-0.044288
-0.74274,0.2942,-2.3732,9.5713,-0.20464,-0.15577,0.079412
-0.76974,0.41188,-2.1182,9.7478,-0.016188,-0.12034,0.09163
-0.80225,0.45111,-2.2163,8.7083,0.17685,-0.038179,-0.13714
-0.81305,0.8826,-2.6086,7.6296,0.31979,0.062003,-0.13989
-0.81436,0.50995,-2.432,7.7865,0.36835,0.12217,-0.10934
-0.80026,0.56879,-1.7456,9.2183,0.3146,0.13378,-0.058643
-0.77628,-0.21575,-1.7456,10.728,0.20678,0.099876,-0.0039706
-0.76633,0.45111,-1.8437,9.5125,0.068722,0.049175,0.045509
-0.76526,0.86299,-1.9809,8.0807,-0.35003,-0.016799,-0.12126
-0.7316,0.11768,-1.7848,7.9434,-0.32498,-0.039095,-0.17868
-0.68399,0.33343,-1.7848,7.61,-0.26725,-0.060476,-0.0073304
-0.63055,0.43149,-1.6475,7.9434,-0.18662,-0.06353,-0.036346
-0.55923,0.098066,-1.5102,9.3359,-0.095906,-0.049786,-0.058948
-0.51541,-0.13729,-1.7456,9.3555,-0.036041,-0.039401,-0.071471
-0.46759,0.25497,-2.1575,8.8652,-0.32284,-0.042761,-0.074526
-0.42166,0.49033,-2.4124,8.8456,-0.34453,-0.062308,-0.087965
-0.36096,0.56879,-2.432,9.3163,-0.14142,-0.11057,-0.99266
-0.2749,0.41188,-2.6086,9.8851,-0.29016,-0.18845,-1.0696
-0.17227,0.70608,-2.7851,9.2771,-0.82528,-0.25259,-0.26573
-0.06662,0.70608,-2.5105,8.8652,-1.3097,-0.30238,-0.36285
0.0069885,0.039227,-2.2751,9.3163,-1.5128,-0.53634,-0.42333
0.038208,0.17652,-2.432,9.179,-1.5702,-0.85643,-0.44868
0.05014,0.098066,-2.1378,9.0417,-0.060476,-1.0205,-0.61056
0.020966,0.11768,-1.4906,8.7083,-0.12065,-1.1292,-0.85827
-0.0032043,-0.05884,-1.1964,8.6299,0.01741,-0.0076358,0.029932
3.0518e-05,0.17652,-1.3729,8.2376,0.054062,0.020464,0.055894
0.076355,0.35304,-1.5691,8.3945,0.043371,0.031154,-0.073915
0.21085,0.56879,-2.6086,8.7083,-0.0061087,0.033598,-0.04948
0.39008,0.74531,-2.942,8.8652,-0.081856,0.019548,-0.033903
0.57617,0.49033,-3.0597,9.4732,-0.16829,0.0039706,-0.018021
0.73953,0.11768,-2.8243,9.4732,-0.24465,-0.0015272,-0.007025
0.86685,-0.05884,-2.7459,9.1202,-0.31582,0.0048869,0.0067195
0.93253,0.25497,-2.8243,8.7868,-0.39431,0.0012217,0.033903
0.97064,0.39227,-3.0793,8.8064,-0.33872,-0.014661,0.015272
0.99295,0.27459,-3.7658,9.1594,-0.27611,-0.022297,0.078496
1,0.5884,-4.3934,9.689,-0.23396,-0.0045815,0.078496
1,1.0591,-4.2365,9.1202,-0.24007,0.0281,0.068417
1,2.0594,-4.5699,9.6694,-0.2813,0.053145,0.072082
1,2.8635,-5.4133,9.0025,-0.3824,0.050091,0.076664
1,3.7461,-6.139,8.1003,-0.41539,0.018021,0.059559
1,4.2169,-6.4528,7.61,1.1347,1.5021,0.30207
1,4.4326,-6.237,7.2177,1.0544,1.5088,0.1912
1,4.5111,-4.9426,6.747,0.8772,1.4554,0.61728
1,4.6287,-4.766,6.6489,0.59773,1.3625,0.63133
1,4.668,-4.3934,6.2959,0.28191,1.2297,0.61881
1,4.7464,-4.0992,6.1978,0.018631,1.055,0.56566
1,4.8837,-4.0207,6.492,-0.13744,0.8772,0.48961
1,5.0014,-4.0207,6.5312,-0.15272,0.73212,0.40592
1,4.7856,-3.7658,6.6097,-0.79962,0.97189,-1.6835
1,5.0995,-3.3146,6.6685,-0.57513,1.0528,-1.6267
1,4.9033,-3.2166,6.9627,-0.35949,1.1762,-2.3424
1,4.668,-3.6285,7.1589,-0.18143,1.3198,-2.2327
1,5.0995,-4.3542,7.3158,-0.089186,1.4087,-2.0934
1,5.2956,-3.9423,7.3158,-0.086743,1.4001,-1.9435
1,5.0602,-2.1575,6.747,-0.1408,1.3308,-1.8097
1,4.4326,-1.3533,6.8254,-0.22571,1.2685,-1.7187
1,4.0992,-2.2751,7.1392,-0.33139,1.2425,-0.2025
1,4.7464,-2.9812,7.4334,-0.32406,1.2266,-0.090713
1,4.9622,-2.7459,8.0807,-0.28527,1.2175,-1.481
1,4.1776,-1.9417,8.4141,-0.27122,1.2049,-1.2733
0.98035,3.2558,-1.824,7.9434,-0.3372,1.175,-1.0461
0.83423,2.7851,-2.4517,6.3547,-0.44685,1.1051,-0.81612
0.6944,2.2948,-3.4519,4.9426,-0.52748,0.98044,-0.58826
0.57877,1.824,-4.6287,5.0995,-0.52962,0.8491,-0.36927
0.505,0.56879,-5.3348,6.139,-0.41294,0.78893,0.64935
0.43692,-0.21575,-5.3348,7.1196,-0.15333,0.82314,0.62217
0.36761,-0.84337,-4.7072,7.4727,0.18418,0.9279,0.039095
0.26666,-1.3925,-4.1384,7.7865,0.49205,1.091,0.21075
0.13724,-2.1182,-4.0796,7.9434,0.73365,1.2517,0.38332
-0.016449,-2.0986,-4.9426,7.6884,0.91019,1.3699,0.52198
-0.15686,-1.5887,-5.2956,7.4923,1.0507,1.4285,0.61728
-0.28497,-1.0591,-5.4525,7.6884,1.1335,1.4642,0.65729
-0.37381,-0.54917,-4.2365,8.3357,-2.4566,-0.93982,-0.15027
-0.43906,-0.49033,-3.1381,8.7083,-3.1414,-1.1298,-0.048564
-0.4957,0.098066,-3.7658,9.1594,-3.4178,-1.2517,-0.081856
-0.54828,1.0591,-6.1978,9.0221,-3.2248,-1.306,-0.13683
-0.53531,2.7851,-6.3743,6.1193,-2.7211,-1.2165,-0.15974
-0.55145,2.1575,-2.4124,9.9636,-2.1365,-0.97525,-0.2025
-0.77536,-3.4912,1.0983,14.141,-1.5873,-0.69119,-0.2474
-0.99997,-2.2359,-0.86299,9.9636,-1.0256,-0.43616,-0.23518
-0.99997,1.3533,-2.6086,9.3359,-0.38423,-0.22174,-0.0018326
-0.99997,0.80415,-3.2362,8.4141,0.27458,-0.03879,-0.0042761
-0.99997,0.98067,-1.824,9.9439,0.82925,0.093157,0.028405
-0.97537,2.2359,-1.1768,9.5125,1.2318,0.20556,0.071471
-0.80151,2.4713,-1.6475,8.0611,1.452,0.33537,0.067806
-0.61792,2.7655,-4.0207,6.4332,1.4911,0.42455,0.032376
-0.39249,4.2757,-5.5113,6.6097,1.4328,0.47312,0.016188
-0.099976,4.7856,-5.0798,7.2961,1.3344,0.5507,0.011912
0.18506,3.5696,-5.0798,7.3158,0.84849,0.64232,-0.15424
0.41882,2.9616,-5.1387,7.6492,0.61789,0.66462,-0.11026
0.54471,3.3343,-4.3345,7.708,0.35155,0.61697,-0.0024435
0.57178,2.7851,-3.6285,7.4923,0.057727,0.55008,-0.024129
0.51608,2.0006,-2.6086,7.3158,-0.16005,0.45601,-0.060781
0.37122,1.2356,-2.7459,7.4334,-0.22174,0.36316,-0.097128
0.2128,1.0199,-3.4127,7.9238,1.2171,0.28772,-0.13317
0.0578,1.3533,-4.0796,8.1787,1.0599,0.2364,-0.15944
-0.065552,1.4318,-4.4522,8.316,-0.010079,0.22205,-0.1405
-0.13196,1.5887,-4.158,8.2768,-0.072082,0.22083,-0.20006
-0.16248,1.8044,-3.4127,8.9044,-0.1857,0.21472,-0.07086
-0.16678,1.8044,-3.5304,8.8848,-0.31734,0.15394,-0.047647
-0.18466,1.6867,-3.6677,8.1591,-0.48045,0.061087,-0.018631
-0.18271,1.9221,-3.6873,7.8061,-0.62033,0.0039706,-0.013134
-0.17728,1.7456,-3.8638,8.1199,-0.16341,-0.033903,-0.058948
-0.17087,1.2945,-3.9423,8.7083,-0.062003,-0.044899,-0.10446
-0.14288,1.5495,-3.5304,8.9437,-0.46242,-0.10996,0.16768
-0.12057,1.3533,-3.3539,8.9633,-0.39951,-0.025656,0.16188
-0.11444,1.5102,-3.2362,8.6495,-0.32559,0.05681,0.1066
-0.15408,1.8044,-4.2561,7.3158,-0.29719,0.083994,0.13531
-0.21597,2.3732,-5.1191,7.5511,-0.32162,0.044899,0.18754
-0.27866,2.1771,-3.9815,7.7865,-0.36713,-0.04215,0.22785
-0.37485,1.7064,-1.9417,8.4141,-0.40561,-0.12156,0.23824
-0.48517,1.0395,-0.72569,9.1594,-0.40775,-0.11851,0.2135
-0.58231,1.3925,-1.1768,9.179,-0.31765,-0.069333,0.059865
-0.63324,2.2163,-1.8633,8.8456,-0.13042,0.0033598,0.16157
-0.61072,2.0006,-2.0594,8.5514,-0.10293,0.068417,0.18387
-0.51968,2.1575,-1.6279,8.8652,-0.24893,-0.048258,0.2248
-0.40738,2.1378,-1.1768,8.9437,-0.27733,-0.23915,0.25015
-0.29053,2.0594,-1.726,8.5514,-0.17532,-0.35216,0.085216
-0.17227,2.4713,-2.6086,8.1787,0.0045815,-0.33872,-0.081245
-0.046112,2.589,-2.6086,8.4337,0.11148,-0.25656,-0.072693
0.068329,1.824,-2.0006,9.2575,0.12798,-0.21747,-0.0079412
0.13434,1.2945,-2.432,9.7478,0.059254,-0.20189,0.0067195
0.16162,1.824,-2.6086,8.8652,-0.047037,-0.19151,0.16402
0.12213,1.3925,-2.4124,7.2373,-0.1066,-0.18357,0.12645
0.09906,0.45111,-3.2362,9.179,-0.086437,-0.15882,0.076969
0.10172,1.5298,-3.6088,10.689,0.0088575,-0.10812,0.039706
0.11716,2.7655,-3.3146,9.689,0.16127,-0.033292,0.021075
0.17139,2.2359,-2.6086,8.8064,0.33353,0.063835,0.0051924
0.21744,2.2948,-1.8829,7.7865,-0.59223,0.15852,-0.039401
0.24658,2.589,-1.9417,7.1785,0.40867,0.22724,-0.11759
0.24185,2.6282,-2.7655,7.5903,0.51404,0.26634,0.028711
0.22778,2.7851,-3.3735,8.1787,0.53359,0.26542,0.030238
0.21881,2.687,-3.3539,8.9437,0.41722,0.19273,0.02474
0.21216,2.2751,-2.4517,9.3752,0.15944,0.034514,0.048258
0.19525,1.8044,-1.5691,9.787,-0.17196,-0.16738,0.078802
0.16455,1.5298,-2.5105,9.0025,-0.46762,-0.31032,0.053756
0.16003,2.2359,-3.7069,7.6492,-0.0562,0.053145,0.011301
0.21091,2.0202,-3.6873,7.1589,-0.060781,0.032987,0.014966
0.28299,1.5495,-2.7262,8.1199,-0.045509,0.014661,0.043677
0.332,1.3729,-1.726,8.7279,-0.018326,0.0027489,0.037568
0.34183,1.1964,-1.5102,9.4732,0.012828,0.0076358,0.025351
0.32785,1.2945,-2.1378,9.2771,0.036652,0.031154,0.01405
0.31842,2.0006,-2.8243,8.7475,-0.025656,0.062308,0.0067195
0.31784,2.3732,-3.0597,8.4141,-0.040928,0.089797,0.0064141
0.33514,2.2359,-2.9028,8.1787,0.017104,0.0956,0.03543
0.35938,2.2359,-2.8243,8.5514,-0.0067195,0.08094,0.038179
0.36829,1.824,-2.5105,8.7475,-0.026267,0.061087,0.018326
0.37561,1.7456,-2.4713,8.8652,-0.036957,0.043982,0.020159
0.36984,1.9221,-2.6086,8.5514,-0.041844,0.033598,0.01741
0.36456,1.8044,-2.432,8.5906,-0.036652,0.029016,0.018021
0.34299,2.0006,-2.432,8.5514,0.041233,0.030238,0.023518
0.32053,1.824,-2.1967,8.7279,0.033903,0.036652,0.029932
0.27368,1.7456,-2.1378,8.8652,-0.012523,0.050702,-0.010385
0.22092,1.6867,-2.3536,8.8064,-0.019242,0.062919,-0.023213
0.18008,1.9221,-2.3732,8.8848,-0.032987,0.068722,0.037568
0.15433,2.0594,-2.6086,8.6299,-0.054367,0.069333,0.03207
0.13217,1.9809,-2.8832,8.4926,-0.061087,0.068417,0.028711
0.12155,1.9613,-2.7459,8.4141,-0.054062,0.059254,0.031154
0.11444,1.8437,-2.4713,8.8456,-0.021991,0.047037,0.029016
0.10916,1.6867,-2.3732,8.8456,-0.011606,0.040623,0.011301
0.10379,1.9221,-2.4713,8.7083,0.03543,0.089797,0.010996
0.098602,1.7652,-2.432,8.6299,0.044288,0.10537,0.034819
0.099243,1.7456,-2.6086,8.7475,0.047953,0.11576,-0.066279
0.087128,1.9221,-2.6086,8.6887,0.03543,0.11423,-0.051313
0.085358,1.8044,-2.4124,8.6887,0.009163,0.10201,-0.038485
0.070099,1.7652,-2.6674,8.7083,-0.0079412,0.088575,-0.021075
0.070648,1.9221,-2.7851,8.7475,-0.012523,0.077274,-0.013744
0.089478,1.8633,-2.5693,8.7083,-0.014966,0.06689,-0.0088575
0.11792,2.0202,-2.3144,8.8064,-0.095906,-0.0281,-0.0281
0.14908,1.9809,-2.4124,9.0417,-0.076358,-0.030849,-0.031154
0.177,1.9221,-2.3144,8.9437,-0.083383,-0.033903,-0.002138
0.21408,1.5298,-2.687,8.9437,-0.10415,-0.045815,0.010385
0.20749,1.8044,-2.687,8.8064,-0.11759,-0.058643,0.021991
0.21045,2.0006,-2.432,8.8064,-0.11606,-0.061697,0.016188
0.20425,1.8437,-2.5105,8.8652,-0.11179,-0.043066,-0.00030543
0.1731,2.0006,-2.432,8.6887,-0.10965,-0.022297,-0.018937
0.14124,1.9025,-2.589,8.7083,-0.10049,-0.0079412,-0.022907
0.1077,1.9613,-2.6086,8.6887,-0.085216,0.0036652,-0.030543
0.079071,2.0594,-2.1967,8.7279,-0.064752,0.021991,-0.036346
0.032013,1.9025,-2.2555,8.6887,-0.047037,0.041233,-0.036957
-0.016571,1.8437,-2.4713,8.5514,-0.043066,0.053451,-0.031154
-0.055145,1.6867,-2.687,8.4926,-0.042455,0.053756,-0.025656
-0.085571,1.6867,-2.7459,8.3945,-0.044899,0.050091,-0.026267
-0.098969,1.824,-2.6086,8.7083,-0.047647,0.044593,-0.025962
-0.080109,1.5298,-2.3732,8.9044,-0.059865,0.01405,-0.01741
-0.061157,1.5298,-2.2948,8.8652,-0.09163,0.0036652,-0.014661
-0.040405,1.7456,-2.1575,8.8064,-0.085827,-0.0009163,-0.041844
-0.01825,1.8633,-2.2948,8.4141,-0.040623,0.011912,-0.046731
0.018768,1.8437,-2.432,8.7083,0.02138,0.034819,-0.047647
0.058044,1.8044,-2.5105,9.0025,0.076358,0.053756,-0.038485
0.094604,1.8633,-2.432,9.0417,0.11362,0.061697,-0.03146
0.13742,2.0006,-2.4517,8.7475,0.1237,0.058948,-0.02474
0.15317,2.1182,-2.6086,8.7083,0.073915,0.046731,-0.0045815
0.17477,1.9221,-2.6086,8.5318,0.020464,0.024435,-0.0088575
0.18344,2.1575,-2.5693,8.4926,-0.03207,-0.0018326,-0.0067195
0.18634,2.0594,-2.4124,8.5318,-0.080634,-0.022602,-0.002138
0.16754,2.1182,-2.589,8.8064,-0.11545,-0.029016,-0.011301
0.15259,2.0594,-2.687,8.8064,-0.12614,-0.025962,-0.018021
0.11423,2.079,-2.6086,8.7475,-0.12737,-0.023824,-0.011606
0.05368,2.1378,-2.5105,8.6887,-0.11576,-0.023824,-0.0018326
0.013092,2.1182,-2.432,8.5514,0.26298,0.03543,0.01405
-0.024963,1.9221,-2.687,8.3945,0.25901,0.044899,0.032376
-0.034058,1.9221,-2.6674,8.5318,0.22419,0.046731,-0.068111
-0.045197,1.5102,-2.4517,8.8652,0.17104,0.050091,-0.057421
-0.053467,1.4318,-2.2751,8.8064,0.11759,0.052534,-0.052534
-0.05896,1.3533,-2.1575,8.8652,0.068111,0.064752,-0.049175
-0.05954,1.3533,-2.432,8.6299,0.21686,0.08827,-0.035125
-0.041504,1.3729,-2.687,8.218,0.24221,0.10049,-0.012523
-0.017548,1.3533,-2.5105,8.2768,-0.19517,-0.049175,-0.01405
0.0064697,1.3925,-2.6282,8.5514,-0.16463,-0.037568,-0.009163
0.003418,1.3729,-2.7655,8.6299,-0.13225,-0.01069,0.0048869
0.0075073,1.824,-3.0793,8.4141,-0.11606,0.009163,0.0061087
0.016174,1.9221,-2.9812,8.4337,-0.10324,0.017715,0.0067195
0.020508,1.9221,-2.8243,8.4141,-0.085827,0.024129,-0.0009163
0.010376,1.9809,-2.7655,8.6299,-0.061392,0.035125,-0.01069
-0.018585,1.824,-2.5105,8.8064,-0.035736,0.047953,-0.015882
-0.027252,1.9025,-2.5105,9.0221,-0.013439,0.058032,-0.012523
-0.038513,1.8437,-2.589,9.0221,-0.0067195,0.0562,-0.029322
-0.050964,1.9221,-2.687,9.0221,-0.018631,0.03879,-0.0009163
-0.070862,1.9809,-2.9812,8.8848,-0.035125,0.014966,0.0045815
-0.089478,1.8044,-3.0597,8.5318,-0.055283,-0.0039706,0.0036652
-0.11826,1.9221,-3.0008,8.4926,-0.086743,-0.020159,0.0018326
-0.16544,2.0006,-3.197,8.4926,-0.11301,-0.029932,-0.00030543
-0.20801,2.0006,-2.942,8.4141,-0.13408,-0.040012,-0.0076358
-0.26678,2.1575,-2.6086,8.2572,-0.092241,-0.044899,-0.088881
-0.3262,2.0594,-2.4517,8.4141,-0.047037,-0.040623,-0.079107
-0.38553,2.1575,-2.3144,8.2768,0.0076358,-0.037874,-0.055589
-0.45169,2.1575,-2.0594,8.3945,0.064446,-0.032987,-0.080329
-0.51956,1.7456,-2.4713,9.434,0.12584,-0.028405,-0.093157
-0.55682,1.824,-2.7851,9.6694,0.18204,-0.026573,-0.090103
-0.59418,2.0202,-2.2555,7.2373,-0.13164,-0.011912,-0.081856
-0.59918,1.2356,-3.197,7.0019,-0.11881,0.013439,-0.086743
-0.56415,0.74531,-3.8834,8.6887,0.39828,0.49205,0.17074
-0.49817,1.2945,-2.8243,10.689,0.56352,0.56994,0.043066
-0.45676,1.824,-1.1768,10.454,0.59651,0.61942,-0.10934
-0.46445,1.8437,-1.1768,9.434,0.47159,0.61209,-0.027794
-0.4881,2.2359,-1.8829,8.4926,0.28833,0.56352,0.076664
-0.48425,2.4909,-2.1967,8.0022,0.0048869,0.47556,0.1628
-0.45453,2.2948,-2.6282,8.1787,-0.22999,0.27978,0.22541
-0.42209,2.432,-2.6086,8.5514,-0.36499,0.058032,0.25412
-0.34717,2.0594,-2.3144,9.1202,-0.10415,-0.054672,-0.13958
-0.30148,2.0594,-2.1967,9.0417,-0.025045,-0.04948,-0.13836
-0.2403,2.0006,-2.3732,8.5514,0.038485,-0.027489,-0.069639
-0.17709,1.9221,-2.6086,8.3749,0.055894,-0.011301,-0.06689
-0.10861,1.7456,-2.9028,8.4926,0.03207,-0.0064141,-0.058338
-0.038025,1.824,-3.3146,8.7475,0.018631,0.0039706,-0.061087
0.043091,2.0594,-3.6285,8.8848,0.067806,0.052534,-0.087965
0.11981,2.2359,-3.0597,8.8456,0.18265,0.12767,-0.12431
0.16983,2.589,-2.6086,8.2572,0.35797,0.2025,-0.16249
0.20572,3.2754,-2.3732,8.0611,0.39645,0.24832,-0.12004
0.22852,3.0793,-2.4713,8.6299,0.39859,0.26909,-0.15027
0.24661,3.0008,-2.687,8.9633,0.36927,0.28283,-0.17226
0.26239,2.687,-2.2948,8.8064,0.33292,0.27978,-0.18234
0.24774,2.6086,-2.079,8.316,0.33964,0.27519,-0.17257
0.21637,2.3732,-1.9025,8.3945,0.43494,0.28191,-0.16463
0.16541,1.9221,-1.3729,8.8652,0.59346,0.32467,-0.16799
0.090607,1.6867,-1.5102,9.0417,0.71441,0.40256,-0.17807
-0.0005188,1.5102,-2.3732,8.4337,0.71777,0.45937,-0.16493
-0.077789,1.5298,-3.0793,7.7865,0.58826,0.45845,-0.051007
-0.1413,0.86299,-2.8832,8.1199,0.39462,0.41081,-0.007025
-0.21838,0.41188,-1.726,8.7083,0.22877,0.36163,-0.030543
-0.33127,0.41188,-0.72569,7.4923,0.12309,0.3543,-0.081856
-0.49258,-0.90221,-1.3533,9.5125,0.1124,0.38301,-0.12309
-0.63129,-1.2749,-3.2166,11.376,0.21441,0.42852,-0.1573
-0.76181,1.0395,-3.5304,9.8851,-1.5553,-0.90164,0.098349
-0.82962,1.9221,-1.8829,7.7473,-1.2975,-0.84605,0.098349
-0.86148,1.3533,-0.11768,7.1785,-0.8714,-0.6295,0.083383
-0.86652,0.98067,-0.43149,7.61,-0.40775,-0.35155,-0.012828
-0.83835,1.1964,-2.1967,8.6887,-0.021991,-0.10201,-0.026267
-0.71713,1.4318,-2.9028,9.2575,0.20464,0.066584,0.029322
-0.48291,0.80415,-2.1967,11.768,0.2697,0.13011,0.082161
-0.23825,0.17652,-0.39227,14.239,0.23976,0.11698,0.096822
-0.040924,0.56879,-0.56879,12.631,-0.33048,0.056505,0.071777
0.15274,1.8044,-0.43149,9.8851,-0.51221,-0.017715,0.027794
0.35837,1.3337,-0.078453,8.8064,-0.58429,-0.10385,0.092241
0.54126,0.60801,-0.52956,8.1787,-0.55314,-0.17929,0.10293
0.6474,0.54917,-1.824,7.1196,-0.48014,-0.19945,0.11148
0.72778,1.5102,-4.0796,6.0409,-0.33781,-0.16463,0.087965
0.8299,3.0008,-4.4914,6.5312,0.12431,-0.11729,0.080634
0.91696,2.8439,-3.6677,7.7473,-0.089797,-0.054367,0.095295
0.95761,1.824,-2.432,8.5906,0.22816,0.04612,0.054978
0.95493,1.824,-1.8044,8.9044,0.30238,0.14447,0.012217
0.88364,2.1575,-1.471,8.8064,0.2755,0.20739,0.015272
0.78909,2.6086,-1.824,8.0807,0.14752,0.23579,0.042761
0.68784,2.2948,-2.6086,8.0022,-0.038179,0.23213,0.066584
0.60822,2.7851,-3.3931,7.9042,-0.18479,0.20311,0.069944
0.57474,2.6086,-3.197,8.6299,-0.1292,0.13408,0.070555
0.57248,2.4517,-2.6086,9.179,0.076053,0.023518,0.07086
0.54947,2.1771,-2.2163,9.434,-0.096822,-0.061087,-0.027184
0.52777,1.6867,-2.5301,9.1986,0.020464,-0.097738,-0.024435
0.52164,1.1768,-3.1381,9.1202,0.10232,-0.10049,-0.027184
0.53287,1.4906,-3.3931,9.0613,0.12156,-0.082772,-0.035125
0.54294,1.824,-3.0008,8.8456,0.092241,-0.063835,-0.026878
0.55084,1.8633,-2.3144,8.6299,0.03146,-0.057421,-0.021991
0.53778,2.0594,-2.1575,8.4141,-0.2364,-0.061087,-0.023213
0.50974,2.1575,-2.2948,8.1787,-0.19731,-0.067501,-0.027184
0.47769,2.4517,-2.5693,8.4141,-1.0238,-0.5623,-0.027489
0.45132,2.2359,-3.2362,8.6495,-0.98869,-0.63072,-0.051618
0.42712,2.7066,-2.8832,8.5318,-0.78771,-0.61942,0.072693
0.39316,2.4909,-2.687,8.5514,-0.54581,-0.54245,-0.020769
0.34744,2.5497,-2.3732,8.6299,-0.28955,-0.42394,-0.087048
0.29004,2.6282,-2.4517,8.4926,-0.10263,-0.25931,-0.13286
0.24667,2.1575,-3.0008,8.6299,-0.01741,-0.14142,-0.135
0.20914,2.1575,-2.9028,8.7279,0.01069,-0.090408,-0.067195
0.17065,1.8044,-2.2751,9.2183,0.047953,-0.089797,-0.023824
0.10992,1.3533,-1.5887,9.2575,0.12767,-0.091019,0.0085521
0.013641,1.6083,-1.9613,8.7475,0.20525,-0.070555,-0.11759
-0.1163,2.0006,-2.6086,7.3158,0.24465,-0.068111,-0.14539
-0.26385,0.72569,-3.5304,8.4926,0.24587,-0.093462,-0.091019
-0.38605,-0.68647,-3.197,11.003,0.23549,-0.14233,-0.026267
-0.53857,0.43149,-1.5102,11.886,0.25107,-0.17746,-0.01741
-0.70212,1.118,-0.33343,9.179,0.28955,-0.17929,-0.035736
-0.84216,0.41188,-1.5495,7.2373,0.32834,-0.16096,-0.069333
-0.90952,0.66685,-3.0793,6.9039,0.38149,-0.14661,-0.091324
-0.86688,1.7064,-3.7265,7.6492,0.44868,-0.12217,0.013439
-0.73795,1.8044,-3.8638,8.6887,0.51191,-0.057727,-0.013134
-0.57745,1.8437,-3.7658,8.9437,0.53145,0.018021,-0.036346
-0.38348,2.2359,-2.9812,8.9437,0.49816,0.081551,-0.039706
-0.19449,2.2948,-1.9809,9.1594,0.43768,0.10873,-0.038485
-0.048035,2.7851,-1.6475,9.0025,0.36133,0.10079,-0.052534
0.065613,3.0793,-1.8829,8.7279,-0.12095,0.11851,0.090103
0.13571,2.6478,-2.5105,8.8652,0.13439,0.26573,0.11301
0.12735,2.687,-2.5105,8.5514,0.35675,0.33414,0.088881
0.063171,2.6086,-1.8829,8.2572,0.46517,0.27519,0.073609
-0.036438,2.2948,-1.5102,8.4337,0.44929,0.15424,0.019242
-0.14697,2.2948,-1.9809,8.5318,0.15944,-0.058032,-0.012828
-0.24921,2.1575,-2.4517,8.8652,-0.25473,-0.27733,0.047037
-0.35751,1.8044,-2.5105,9.3359,-0.6298,-0.43921,0.081551
-0.49268,2.2751,-1.3141,8.3357,-0.25534,-0.25259,-0.050091
-0.59109,2.4517,-0.15691,8.0022,-0.18815,-0.21655,-0.049175
-0.66418,2.4517,-0.52956,8.4926,-0.16005,-0.16005,-0.21075
-0.69678,3.8442,-1.4318,9.2575,-0.16341,-0.11851,-0.1912
-0.65887,4.0403,-1.4906,9.2575,-0.1909,-0.098349,-0.12614
-0.5799,3.4912,-1.2553,8.9437,-0.22358,-0.093768,-0.068722
-0.47678,3.7854,-1.6671,8.7475,-0.45235,-0.083994,-0.052229
-0.34094,3.5696,-2.1575,8.2376,-0.35522,-0.065973,-0.052534
-0.17914,2.3732,-1.8437,9.0417,-0.20067,-0.079412,0.0064141
-0.042542,1.5298,-2.1182,10.317,-0.086437,-0.10263,0.028711
0.0031433,1.118,-2.6086,9.1202,0.029932,-0.10415,-0.049786
-0.017059,0.2942,-2.589,8.5514,0.135,-0.062614,-0.044288
-0.11328,-0.70608,-2.1967,8.1787,0.23457,-0.0018326,-0.045204
-0.27567,-2.6478,-2.7459,11.219,0.30024,0.043371,-0.045815
-0.45615,-0.98067,-2.7459,10.827,-0.25107,0.094073,-0.029627
-0.61212,1.1964,-2.3144,8.0022,-0.25717,0.12859,-0.0094684
-0.702,0.66685,-1.9809,6.9823,0.31857,0.13958,-0.0039706
-0.72092,0.74531,-1.3533,7.5511,0.30116,0.13439,-0.072998
-0.67841,1.0787,-1.7456,8.0807,0.26542,0.12645,0.053756
-0.57187,1.8633,-2.9028,9.179,0.25259,0.12584,0.060781
-0.42303,2.7459,-2.687,9.6301,0.26389,0.13714,0.041844
-0.24319,2.687,-1.6867,9.179,0.29871,0.18906,0.021686
-0.076202,2.8635,-1.1768,8.6299,0.33353,0.23213,0.023824
0.063599,2.432,-1.471,8.5318,0.27642,0.29627,0.038485
0.18622,2.0594,-2.3732,8.7868,-0.52657,-0.53115,-0.1463
0.28821,2.3732,-2.7459,8.6887,-0.59498,-0.562,-0.18295
0.35675,2.3732,-2.687,8.5514,-0.57116,-0.49052,-0.14264
0.40549,2.4517,-1.824,8.8652,-0.4835,-0.3766,-0.11454
0.42383,2.0594,-1.3729,8.7868,-0.40042,-0.27031,-0.076053
0.39227,1.7064,-1.6279,9.3359,-0.41844,-0.22113,-0.084299
0.32852,1.824,-1.8044,9.179,-0.4893,-0.23091,-0.09896
0.23215,2.2948,-2.432,8.5514,-0.49969,-0.24984,-0.11454
0.13647,2.2948,-2.0594,8.316,-0.022297,-0.0009163,0.020464
0.05365,1.4318,-2.5693,10.375,-0.060781,-0.020159,-0.0015272
-0.012787,1.4318,-1.9025,11.258,-0.083689,-0.023213,-0.021686
-0.086517,1.3533,-1.1572,10.768,-0.10263,-0.011912,-0.018631
-0.17215,1.6867,-0.11768,9.5125,-0.11301,-0.0045815,-0.0039706
-0.25046,2.1575,0.37265,8.7868,-0.12309,-0.0064141,0.020769
-0.29861,1.8633,-0.39227,8.316,-0.13592,-0.016493,0.028711
-0.31171,2.2359,-1.7456,8.0022,-0.12278,-0.026878,0.029016
-0.26517,2.7655,-2.7655,8.218,-0.054978,-0.022297,0.033598
-0.18307,2.6282,-2.8243,8.5514,0.054367,0.013744,0.01741
-0.072235,2.1771,-2.2163,9.4928,0.13958,0.065363,-0.018937
-0.010345,1.9221,-1.0199,9.7478,0.14813,0.11179,-0.012217
0.018219,1.6867,-1.2749,9.2575,0.080023,0.13073,0.0076358
0.025604,2.2751,-1.8829,7.8649,-0.023824,0.10904,0.022297
0.033173,2.1575,-1.726,7.1196,-0.13439,0.055894,0.035125
0.060333,1.5887,-1.9613,7.6884,-0.21289,-0.0012217,0.043982
0.086365,1.824,-2.9812,8.6299,-0.56841,-0.35155,0.042761
0.15851,2.2948,-3.4519,8.8456,-0.51893,-0.21655,0.036957
0.22406,2.2948,-3.4519,9.2575,-0.4331,-0.079412,0.15882
0.29782,2.4517,-3.0597,9.2183,-0.36835,0.0030543,0.18509
0.34723,2.1771,-2.3536,9.1594,-0.36621,0.015577,0.197
0.37878,2.2751,-2.1575,9.0417,-0.40897,-0.024129,0.18173
0.37286,2.1575,-1.8829,9.0613,-0.39798,-0.043066,0.14722
0.37393,2.4517,-1.9417,8.5514,-0.29199,0,0.089797
0.35681,2.4517,-1.824,8.5514,-0.047037,0.065363,-0.043982
0.32581,2.2948,-2.0594,8.5514,0.019548,0.10415,-0.038485
0.30585,2.0006,-2.7655,8.7083,0.045204,0.10537,0.048564
0.28436,1.9221,-3.0597,8.4141,0.062614,0.08827,0.019548
0.29456,2.0594,-2.432,8.7083,0.076664,0.078802,-0.036041
0.2887,2.0006,-1.8044,8.8456,0.083078,0.069639,-0.062003
0.26599,1.8633,-2.0398,9.0417,0.061697,0.044288,-0.054062
0.24405,1.824,-2.687,8.8652,0.026878,0.01741,-0.043066
0.21411,1.7064,-2.8243,8.8652,-0.009163,0.10415,-0.36072
0.20319,1.824,-2.432,8.9044,0.14508,0.15149,-0.32895
0.189,1.7064,-1.9809,9.179,0.30085,0.21991,-0.20281
0.15317,1.5298,-1.8829,8.9044,0.43035,0.29596,-0.24954
0.10693,1.7652,-2.1967,8.6299,0.51252,0.35827,-0.29413
0.07019,2.0594,-2.2751,8.7083,0.54123,0.41203,-0.33048
0.043091,2.0006,-2.2751,8.7475,-0.10293,0.45815,-0.36408
0.039795,1.9221,-2.2751,8.8652,-0.10263,0.48197,-0.37874
0.028198,2.0594,-2.432,8.7279,-0.015882,-0.010996,0.0027489
0.018372,2.1575,-2.6086,8.3945,-0.0024435,0.012217,-0.014661
0.019775,2.3732,-2.5693,8.6299,-0.024435,0.024435,0.0051924
0.023285,2.3732,-2.687,8.7083,-0.059559,0.025962,0.019853
0.024292,2.3928,-2.4713,8.6299,-0.099876,0.029016,0.012828
0.027344,2.2163,-2.2163,8.4141,-0.13928,0.029932,0.0085521
0.024231,2.3732,-2.2555,8.4337,-0.15944,0.015882,0.013439
0.03244,2.1575,-2.3732,8.5906,-0.14783,0.0030543,0.013744
0.034058,2.2751,-2.687,8.5906,0.024435,0.0027489,-0.018326
0.058807,2.334,-2.7655,8.8456,0.069639,0.014966,-0.034514
0.078522,2.2751,-2.4713,8.8456,0.071166,0.034208,-0.024435
0.075867,2.2555,-2.1575,8.8652,0.032681,0.046426,-0.020769
0.087799,2.432,-2.2555,8.8652,-0.030849,0.039706,-0.011912
0.078522,2.2948,-2.6086,8.4926,-0.097128,0.019242,-0.0058032
0.062836,2.432,-2.7851,8.8064,-0.10599,-0.0064141,-0.0018326
0.07959,2.1575,-2.8243,8.9437,-0.044899,-0.024435,-0.0042761
0.068512,2.6086,-2.4713,8.8652,-0.068722,-0.026878,-0.096517
0.057495,3.3146,-2.3144,8.5318,-0.010079,-0.014355,-0.14844
0.037262,3.8442,-2.6086,8.316,0.039706,0.0039706,-0.039401
0.033386,3.4127,-3.0597,8.9437,0.051924,0.021075,-0.038485
0.036041,3.2754,-3.0008,8.8064,0.021686,0.032987,-0.04215
0.019043,3.0793,-2.2751,8.2768,-0.043066,0.040928,-0.046426
-0.010345,2.589,-1.9809,8.8652,-0.12828,0.046731,-0.053451
-0.068756,2.0006,-1.6671,9.1006,-0.11393,0.066279,-0.067501
-0.14441,1.4318,-1.4906,8.316,0.43097,0.093768,0.14264
-0.2435,0.25497,-1.6475,8.0022,0.53451,0.10018,0.15791
-0.36407,0.41188,-1.8437,7.6296,0.45998,0.011606,-0.064141
-0.5401,0.17652,-2.4124,8.0022,0.19914,-0.135,0.007025
-0.70242,-0.68647,-2.7459,9.3163,-0.17135,-0.30329,0.052229
-0.86792,-1.0199,-2.2163,11.062,-0.54275,-0.45235,0.071777
-0.99316,-0.33343,-2.1182,10.454,-0.83017,-0.53939,0.074526
-0.99997,1.5298,-1.6475,7.9238,-1.0208,-0.56322,0.10263
-0.99997,1.3337,-0.86299,7.5903,-1.0947,-0.5455,0.3824
-0.99997,0.56879,-1.6475,8.1003,-0.97952,-0.48717,0.33659
-0.99997,1.7064,-2.1378,9.6301,-0.69608,-0.34361,0.15516
-0.99997,1.824,-1.1572,10.925,-0.32193,-0.12034,0.14111
-0.99997,1.5102,-0.11768,11.788,0.038485,0.12706,0.13256
-0.99997,1.8633,0.23536,10.454,0.28588,0.31521,0.1689
-0.99997,2.4517,-0.17652,9.179,0.38698,0.41081,0.26725
-0.99997,2.6478,-1.118,8.1591,0.35277,0.40714,0.36041
-0.99997,2.7851,-2.6674,7.2177,0.13042,0.34575,0.065668
-0.92831,3.0597,-2.687,6.8254,-0.045509,0.27061,0.034819
-0.74142,2.2948,-1.5298,7.61,-0.18265,0.18509,0.27031
-0.57724,1.216,-1.471,8.8064,-0.19609,0.11148,0.20433
-0.44284,1.5102,-2.589,9.8263,-0.0094684,0.089492,0.16005
-0.38223,1.8437,-3.5304,9.2575,0.38759,0.21808,0.12828
-0.38025,2.0006,-3.8246,6.2174,0.68447,0.43799,0.086743
-0.36572,0.35304,-3.197,9.1986,0.74709,0.52382,0.067501
-0.38568,-0.23536,-1.6279,12.023,0.46853,0.42364,-0.0030543
-0.44153,1.3533,-0.62763,10.63,0.021686,0.14264,-0.013744
-0.49689,1.8044,-1.0199,8.7083,-0.33445,-0.146,0.027489
-0.50812,1.4318,-1.824,7.8649,-0.54214,-0.31276,0.029932
-0.4664,1.5495,-2.7459,8.2572,-0.64507,-0.36438,0.040623
-0.36749,1.7456,-3.0008,9.1202,-0.63225,-0.37232,0.048564
-0.22171,1.5102,-2.5301,9.9439,-0.50732,-0.35033,0.037263
-0.081818,1.2945,-2.0594,9.787,-0.33262,-0.29016,0.010996
0.034882,1.6867,-1.8437,9.4928,0.049175,0.087048,-0.030849
0.15179,1.9809,-1.9025,8.9044,0.010996,0.085216,-0.029627
0.27066,2.0006,-1.8829,8.2768,-0.043982,0.067806,-0.0012217
0.37177,2.1378,-2.2751,7.963,-0.06353,0.047037,0.01069
0.47198,2.3732,-2.5301,8.2768,-0.0015272,0.065668,-0.0027489
0.55728,2.6086,-2.4517,8.4926,0.11759,0.10415,-0.03146
0.63727,2.6086,-2.2555,8.6299,0.2303,0.14355,-0.040317
0.69327,2.4713,-1.9809,8.6299,0.3091,0.17837,-0.031765
0.72357,2.5497,-1.9417,8.1003,0.24954,0.19548,0.073304
0.74103,2.6478,-2.3732,7.9434,0.19242,0.18357,0.078802
0.74326,2.8047,-2.5105,7.6492,0.12523,0.1573,-0.013134
0.73486,2.4517,-2.7459,8.0807,0.054978,0.12645,0.0054978
0.73077,2.0006,-2.9028,9.1006,0.011301,0.086743,0.023824
0.71927,2.1182,-2.8243,9.1202,0.0045815,0.037874,0.042455
0.67627,2.0202,-2.3536,8.9044,0.33048,-0.00030543,0.057727
0.63269,2.1378,-2.3536,8.5514,0.30085,-0.011301,0.065668
0.56897,2.1771,-2.7262,8.5906,0.09163,0.0018326,0.10293
0.51068,2.1575,-2.7851,9.0613,0.13897,0.039095,0.099876
0.45468,1.9221,-2.4124,9.179,0.1744,0.072082,0.08094
0.40347,1.7456,-1.8829,9.0025,0.18387,0.093768,0.092546
0.36328,1.5298,-1.5691,8.9437,0.16005,0.11637,0.10599
0.31873,1.4906,-1.4318,9.0417,0.11729,0.13134,0.10324
0.25601,1.5298,-1.8437,8.8652,0.015272,0.135,0.094684
0.20535,2.0006,-2.2751,8.4729,0.048869,0.1295,0.096822
0.21869,1.8437,-2.3144,8.5514,-0.0054978,0.11881,0.039095
0.22278,1.7456,-2.2555,8.6495,-0.0048869,0.10171,0.035736
0.23019,2.0006,-1.9025,8.6495,0.041539,0.076358,0.089797
0.22775,1.7456,-1.824,8.6299,0.1127,0.074526,0.073304
0.20816,1.9809,-2.2555,8.7083,0.16402,0.09896,0.050396
0.18729,2.0594,-2.6086,8.4141,0.17837,0.13775,0.034514
0.16513,2.1378,-2.5105,8.6887,0.075442,0.16768,0.033292
0.15091,2.0594,-2.0006,8.8652,0.030238,0.17165,0.039095
0.1355,1.8044,-1.8829,9.1986,-0.08827,0.098349,0.0045815
0.097107,1.6671,-2.6086,10.199,-0.034819,0.15638,-0.0054978
0.04895,1.824,-2.5693,9.689,0.026267,0.22388,-0.019242
-0.012726,2.6086,-3.0989,8.3945,0.0562,0.27458,0.0033598
-0.069031,2.2359,-3.197,9.4732,0.043677,0.28772,0.024435
-0.14609,1.6867,-1.5102,10.827,-0.0082467,0.28772,0.033598
-0.23938,1.8633,0.21575,10.12,-0.07086,0.28161,0.022907
-0.33334,2.3732,0.39227,8.4337,-0.10324,0.27275,0.011912
-0.38654,2.0202,-1.0591,7.3158,-0.10263,0.28741,0.11209
-0.3559,2.1575,-2.7655,7.4334,-0.071166,0.30971,0.20433
-0.26526,2.589,-2.942,8.0611,-0.021686,0.31154,-0.01405
-0.11731,2.0006,-2.9224,9.434,0.020159,0.30055,-0.018631
0.043732,1.8437,-2.7459,9.5321,0.050702,0.29719,-0.020464
0.17999,1.8633,-2.4124,8.9044,0.10354,0.28863,-0.021686
0.29779,2.3732,-1.9809,8.3945,0.219,0.30177,-0.010385
0.37964,1.824,-1.5691,8.218,0.25992,0.37141,0.031765
0.41718,1.7456,-1.824,8.1787,0.17043,0.405,0.20159
0.41235,2.2948,-2.2751,8.0807,0.082467,0.35644,0.19242
0.38693,1.9613,-1.9613,8.1787,-0.082772,0.30757,0.26725
0.33804,1.7064,-1.8829,8.5318,-0.22388,0.16677,0.3262
0.2605,1.6867,-1.824,8.5514,-0.16341,0.043371,0.36835
0.18518,1.7652,-1.9025,8.6299,-0.02138,-0.0097738,0.27336
0.11597,1.3729,-1.8829,8.5514,0.06353,-0.03207,0.2025
0.075653,1.1768,-2.0594,8.8652,-0.0076358,-0.084605,0.20189
0.054443,1.4906,-1.9613,9.3359,0.0027489,0.038179,-0.016493
0.047668,1.2945,-1.4906,8.8064,-0.077274,-0.01069,-0.030849
-0.0048218,0.98067,-1.0199,9.3163,-0.1014,-0.013134,-0.18021
-0.099792,0.45111,-1.1768,9.689,-0.096517,0.017104,-0.18387
-0.19934,0.17652,-2.7459,9.4928,-0.095906,0.043982,-0.16341
-0.29272,0.039227,-3.5696,10.63,-0.082161,0.063835,-0.12004
-0.35315,1.0199,-2.6086,10.591,-0.085216,0.070555,-0.06689
-0.40796,1.3533,-2.2751,9.4928,-0.11362,0.071471,-0.020769
-0.45032,0.98067,-2.0986,8.5514,0.19639,0.030543,-0.084605
-0.44522,1.3533,-2.6086,7.9042,0.2025,0.061087,-0.09163
-0.37659,0.74531,-2.589,9.0613,0.12431,0.10782,-0.01069
-0.30975,0.17652,-0.86299,11.199,0.031765,0.12798,0.0064141
-0.18182,0.90221,-0.23536,11.062,-0.023213,0.1011,0.019548
-0.039612,1.7652,-0.84337,9.3163,-0.020464,0.050091,0.0042761
0.097351,2.334,-1.216,8.1787,0.059254,0.0079412,-0.035125
0.21564,2.4909,-1.5691,7.2373,0.12767,-0.0039706,-0.06689
0.29993,2.2163,-2.4124,6.9235,0.14172,0.0082467,-0.048564
0.37665,2.1575,-3.3539,7.6884,0.15394,0.029016,-0.069333
0.44821,2.2359,-3.5696,8.1003,0.12248,0.051924,-0.092241
0.52084,2.4517,-3.5304,8.3749,0.06689,0.069028,-0.090103
0.61325,2.2948,-2.8243,8.8064,-0.0015272,0.07422,-0.087659
0.66306,2.0594,-2.5105,8.9437,-0.065363,0.071166,-0.080329
0.69711,2.432,-2.5105,8.5514,0.026573,0.060781,-0.068417
0.72418,2.6086,-2.4713,7.9434,0.091324,0.039095,-0.051313
0.75296,2.4517,-2.8243,7.9434,-0.17379,0.01069,0.014355
0.74384,2.432,-2.9028,8.4337,-0.15088,0.014661,0.016188
0.74039,2.7851,-3.0008,8.7279,-0.16188,-0.013439,0.026267
0.70093,2.432,-2.7851,8.9633,-0.1854,-0.057727,0.030849
0.65451,2.589,-3.0008,8.8064,-0.219,-0.08827,0.035736
0.60385,2.7655,-2.687,8.5514,-0.24038,-0.091324,0.0281
0.55463,2.1771,-2.4713,8.9437,-0.24496,-0.07025,0.009163
0.50085,2.2751,-2.6086,8.8652,-0.22969,-0.041539,0.0024435
0.43741,2.3732,-2.9224,8.7475,-0.023518,-0.020464,0.04215
0.38107,2.334,-2.9224,8.5514,0.044593,0.0058032,0.0018326
0.33331,2.432,-2.687,8.5514,0.069639,0.046731,0.011606
0.30667,2.1575,-2.3144,8.4141,0.059559,0.080634,0.017104
0.25668,1.9613,-2.3144,8.4141,0.033903,0.10629,0.028711
0.19812,1.9221,-2.7851,8.2768,0.025962,0.11026,0.041844
0.15335,1.7652,-3.0008,8.3945,-0.18662,0.077274,0.058338
0.11664,1.824,-2.7851,8.7279,-0.11148,0.03879,0.067195
0.080658,1.9221,-2.5105,8.7475,-0.073304,0.1689,0.066584
0.026489,2.079,-2.6282,8.6299,-0.072693,0.15119,0.064446
0.0040588,2.0594,-2.6086,8.4926,-0.055283,0.13286,0.050091
-0.042572,2.3732,-2.9224,8.5514,-0.028405,0.12156,0.051924
-0.095612,2.2948,-2.8439,8.6887,-0.010385,0.12034,0.051618
-0.142,2.1378,-2.4517,8.8652,-0.0073304,0.11393,0.055894
-0.21271,1.9613,-2.0594,8.9437,-0.018326,0.098044,0.063835
-0.25287,1.824,-2.2751,8.8652,-0.03879,0.071166,0.068417
-0.29575,2.1575,-2.2948,8.6299,-0.0012217,0.038485,0.016188
-0.31461,2.432,-2.5105,8.7083,-0.052229,0.0054978,0.009163
-0.32251,2.0594,-2.6086,8.8848,-0.077885,-0.020464,0.055894
-0.32867,1.824,-2.9028,9.0221,-0.089186,-0.026573,0.042455
-0.33685,1.8044,-3.0401,8.7475,-0.084299,-0.021686,0.037263
-0.32352,1.118,-3.0008,8.6887,-0.063225,-0.015272,0.03543
-0.30304,0.74531,-2.4713,9.1202,-0.034514,-0.011606,0.03207
-0.27805,0.90221,-2.2751,9.0613,-0.012523,-0.0045815,0.025962
-0.27484,1.5298,-1.824,8.7083,0.1014,-0.1014,-0.019548
-0.26437,1.6671,-1.9613,8.316,0.079107,-0.15852,-0.029322
-0.25876,1.7456,-1.9613,8.316,0.016799,-0.21166,0.00030543
-0.26343,2.1575,-2.2555,8.0022,-0.048564,-0.2361,-0.0085521
-0.25113,2.4713,-2.2555,7.9042,-0.097128,-0.23763,-0.020769
-0.22507,2.6086,-2.1182,8.0022,-0.12339,-0.22235,-0.016493
-0.20898,2.4909,-2.2751,8.2572,-0.13653,-0.19945,-0.0076358
-0.17673,2.4713,-2.4517,8.8064,-0.14203,-0.17135,-0.01069
-0.13013,2.3732,-2.7851,9.1202,-0.13225,-0.13225,0.026573
-0.085175,1.9809,-2.9028,9.2575,-0.11637,-0.07086,0.040012
-0.047058,2.1575,-2.7459,9.1006,-0.09896,0.0042761,-0.038485
-0.0093994,1.9025,-2.4124,9.1594,-0.081856,0.076664,-0.03207
0.01767,1.5495,-2.432,9.2183,-0.07025,0.13103,-0.0082467
0.034851,2.1378,-2.5105,9.0221,-0.064446,0.15974,0.012217
0.060669,2.0202,-2.5301,8.8652,-0.065057,0.1741,0.018326
0.075409,2.0594,-2.5301,8.8064,-0.067806,0.17776,0.021075
0.08316,1.9809,-2.432,8.4926,0.10354,0.096211,-0.028711
0.10352,2.1378,-2.5105,8.4926,0.089186,0.093157,-0.018326
0.12531,2.0006,-2.3732,8.6299,0.10324,0.075442,0.024435
0.13428,1.7652,-2.5105,8.8064,0.13225,0.059254,0.0067195
0.15964,2.0006,-2.7262,8.5514,0.15485,0.062308,-0.025045
0.18814,2.1575,-2.8243,8.4926,0.15485,0.074831,-0.046731
0.20593,2.1575,-2.7655,8.4141,0.10782,0.080329,-0.049175
0.20853,2.1771,-2.4517,8.4926,0.11942,0.077885,-0.041539
0.22888,2.2163,-2.5105,8.4337,0.035736,0.019853,-0.012828
0.23114,2.3732,-2.7459,8.4337,0.012523,-0.011301,0.0045815
0.24142,2.2948,-3.0793,8.3945,-0.02138,-0.047647,-0.032987
0.263,2.2948,-3.0793,8.5514,-0.055589,-0.076969,-0.029932
0.2692,2.0594,-2.942,8.7083,-0.084299,-0.095295,-0.035125
0.27704,1.824,-2.687,8.7475,-0.10049,-0.10354,-0.036346
0.27646,1.824,-2.432,8.9437,-0.099876,-0.098044,-0.025656
0.29031,1.9613,-2.4713,8.7868,-0.081856,-0.082467,-0.020769
0.28494,1.9613,-2.6086,8.7083,0.01069,-0.059865,0.045815
0.27951,2.2359,-2.6086,8.5514,0.021075,-0.032376,0.0562
0.27921,2.1378,-2.6086,8.4926,0.029932,-0.0039706,0.016188
0.26892,2.2359,-2.6086,8.4729,0.044593,0.011912,0.025045
0.26373,2.0594,-2.6282,8.7083,0.063835,0.018937,0.027489
0.26001,1.824,-2.589,8.7475,0.067501,0.018326,0.018326
0.26245,1.8633,-2.3732,8.9044,-0.048869,0.012828,0.020464
0.25085,2.079,-2.6086,8.7475,-0.010996,0.0058032,0.034514
0.23392,2.2948,-2.7459,8.4926,-0.047647,-0.012523,0.02474
0.20981,2.2359,-2.8243,8.1787,-0.077274,-0.04215,0.027184
0.19846,2.1575,-2.7262,8.1787,-0.072388,-0.067195,0.062919
0.19702,2.0594,-2.687,8.4141,-0.029627,-0.076053,0.058338
0.1915,2.2751,-2.8439,8.4926,0.023213,-0.059559,0.04612
0.19168,2.4517,-3.0401,8.4926,0.07025,-0.019242,0.033598
0.19293,2.3732,-2.7655,8.4729,0.044899,0.033598,0.0281
0.1813,2.4517,-2.3536,8.6495,0.00061087,0.075136,0.025045
0.17767,2.5497,-2.1967,8.5514,-0.021991,-0.17471,-0.0097738
0.18954,2.0594,-2.6086,8.4926,0.12187,-0.094379,-0.012828
0.22437,2.2359,-2.6086,8.1199,0.22144,-0.035736,-0.076664
0.24142,2.1575,-2.5105,8.4926,0.23885,-0.01405,-0.009163
0.23297,2.0202,-2.9224,9.8459,0.18448,-0.018937,0.036041
0.20554,2.4517,-3.0793,9.7478,0.071471,-0.036652,0.027184
0.14731,2.5497,-2.432,7.963,-0.057116,-0.052229,0.016188
0.10791,1.7652,-2.3732,8.218,-0.16952,-0.062003,0.0048869
0.068451,1.1964,-1.9417,10.591,-0.22694,-0.064141,-0.013744
-0.0042419,1.6867,-1.9809,10.454,-0.197,-0.047647,-0.015882
-0.09259,2.6086,-2.2163,8.2572,-0.16799,-0.023824,0.0015272
-0.17044,2.0202,-2.432,7.4923,-0.13989,-0.019853,0.018021
-0.22217,2.0594,-2.687,7.8649,-0.10354,-0.019242,0.026878
-0.24652,2.1575,-2.4124,8.4141,-0.066279,0.0048869,0.020159
-0.2518,2.0594,-2.4517,8.7083,-0.034514,0.04215,0
-0.26654,2.0202,-2.2555,8.6299,-0.010385,0.075136,-0.012523
-0.23648,2.0006,-2.2751,8.218,-0.0036652,0.10293,0.011606
-0.21533,1.9809,-2.2555,8.0022,-0.002138,0.12614,0.012523
-0.18906,2.334,-2.3732,8.2768,0.0009163,0.13622,-0.022602
-0.14902,2.6282,-2.6674,8.2768,-0.0045815,0.13806,-0.018937
-0.1012,2.8439,-2.8243,8.3357,-0.019548,0.13683,-0.0064141
-0.044067,2.6282,-2.687,8.4141,-0.036041,0.13164,0.0015272
-0.010681,2.5497,-2.432,8.5514,-0.058948,0.12614,0.0030543
0.0083618,2.2948,-2.432,8.7475,-0.0956,0.11484,0.0067195
0.023468,2.2359,-2.2948,8.7279,-0.12065,0.088575,-0.039095
0.044922,2.1378,-2.432,8.8456,-0.11179,0.054672,-0.033598
0.062469,2.0006,-2.9028,8.8652,-0.071471,0.043066,0.0039706
0.082336,2.1378,-2.7459,8.9437,-0.011912,0.054062,-0.016493
0.11346,2.3732,-2.6086,8.8064,0.043677,0.07086,-0.03543
0.14059,2.4517,-2.2751,9.179,0.083383,0.083689,-0.036041
0.14221,2.4517,-2.1967,9.179,0.094073,0.086437,-0.033903
0.14844,2.9224,-2.1575,8.9044,0.073915,0.082161,-0.039401
0.13776,3.0008,-2.1967,8.7083,-0.071471,0.12889,-0.080634
0.11969,3.0793,-2.2163,8.4926,-0.096822,0.1237,-0.092852
0.086884,2.9028,-2.1575,8.5318,-0.082772,0.11881,-0.058338
0.038208,2.3928,-1.8829,9.0417,-0.059865,0.10201,-0.053145
-0.023193,2.0594,-1.9613,9.2183,-0.037874,0.069639,-0.04948
-0.070404,1.4318,-2.589,9.3359,-0.0042761,0.036041,-0.060781
-0.13229,1.0199,-3.7265,8.8064,0.036957,0.014966,-0.071777
-0.13443,0.92183,-3.6873,8.7083,0.087659,-0.0027489,-0.075442
-0.12354,0.90221,-2.589,9.1202,0.30055,-0.011606,-0.13347
-0.11374,0.74531,-1.9809,9.0613,0.36194,-0.0042761,-0.11332
-0.11316,1.118,-1.9417,8.3749,0.39431,0.0042761,-0.10599
-0.12469,1.5298,-2.2555,7.6296,0.3769,0.022297,-0.10782
-0.12787,1.9221,-2.4517,7.4727,0.36163,0.029016,-0.096211
-0.11954,2.3536,-2.2751,7.6884,0.35613,0.0097738,-0.071471
-0.10605,2.2948,-1.6475,8.1787,0.15455,0.013439,-0.064752
-0.08844,2.7851,-1.824,8.4141,0.22907,0.058032,-0.10293
-0.048584,2.3928,-2.4713,8.6887,0.19853,0.11637,-0.086132
-0.014404,2.079,-3.0008,9.0221,0.16127,0.15485,-0.033903
0.013916,2.1182,-3.2166,9.1202,0.27978,0.16127,-0.076969
0.053711,2.2359,-3.3146,8.7279,0.3711,0.15027,-0.051313
0.10706,2.1575,-3.0793,8.7083,0.4047,0.17654,-0.077274
0.065308,2.1575,-2.687,8.8064,0.3427,0.16707,-0.11942
0.031616,2.0202,-2.3536,8.9437,0.31796,0.1292,-0.11393
-0.034668,2.2948,-2.2751,8.7083,0.25809,0.051313,-0.13134
-0.11234,2.8635,-1.8829,8.5514,-0.27947,-0.36133,-0.065057
-0.20325,2.9224,-1.3533,8.5318,-0.24648,-0.2978,-0.061392
-0.28857,2.7459,-1.5691,8.4141,-0.14844,-0.20403,-0.079412
-0.36584,2.687,-2.1182,10.12,-0.017104,-0.088575,-0.093157
-0.43262,2.4713,-1.0395,10.768,0.091324,0.030849,-0.1011
-0.51141,2.2948,-0.37265,10.297,0.1237,0.11209,-0.098044
-0.58084,2.5497,-0.21575,9.1202,0.07758,0.14019,-0.086743
-0.61694,2.2751,-0.72569,8.0807,-0.0042761,0.13439,-0.073304
-0.62466,2.1378,-1.471,7.7669,-0.30299,-0.17501,-0.021686
-0.56378,2.4517,-2.9028,8.316,-0.24099,-0.16585,-0.019242
-0.47363,2.687,-2.3732,8.7083,-0.16463,-0.12095,-0.050091
-0.36221,2.4517,-2.3732,9.0613,-0.10934,-0.064141,-0.047953
-0.25732,2.2751,-1.9809,8.9437,-0.083078,-0.025351,-0.038179
-0.17551,2.0594,-1.824,8.7083,-0.072693,-0.0051924,-0.025962
-0.094116,2.1378,-1.8437,8.5318,-0.063835,0.0079412,-0.02138
-0.01889,2.3732,-2.432,8.5514,-0.043677,0.015272,-0.021991
0.048248,2.8635,-3.0597,7.9238,-0.017104,0.024435,0.046426
0.13275,3.0008,-3.0401,8.0807,0.0048869,0.03146,0.048869
0.20453,3.0008,-2.7459,8.7475,0.02138,0.03879,-0.013744
0.2648,2.6086,-2.1967,9.3163,0.020464,0.050091,-0.009163
0.32623,2.589,-2.1378,8.8652,-0.013744,0.053756,0.0042761
0.38199,2.6478,-2.6086,8.4141,-0.064752,0.046426,0.025351
0.45291,2.589,-3.5108,8.0611,-0.090408,0.039401,0.040623
0.52148,2.6478,-3.6088,8.2376,-0.067195,0.033903,0.045509
0.60205,2.5497,-2.8439,8.9633,-0.0045815,0.027489,0.03146
0.66074,2.4517,-2.5105,9.0417,0.055894,0.020769,0.016799
0.69495,2.4517,-2.6282,8.3749,0.089186,0.012828,0.048564
0.73654,2.5301,-2.8439,8.2376,0.099571,0.0064141,0.044288
0.76587,2.6282,-2.8243,8.2572,0.076969,-0.0045815,0.050396
0.79486,2.7655,-2.7459,8.2572,0.029627,-0.033598,0.07086
0.81622,2.6478,-2.5693,8.316,0.0027489,-0.062308,0.084299
0.82202,2.2948,-2.687,8.5514,0.024435,-0.07086,0.062614
0.81927,2.6282,-2.7459,8.7083,-0.52351,-0.19181,-0.0076358
0.7991,2.5301,-2.589,8.8064,-0.36102,-0.14783,-0.03543
0.77145,2.3928,-2.687,8.7083,-0.17257,-0.074831,-0.062003
0.72214,2.1575,-2.7851,8.5514,-0.030238,-0.018021,-0.055283
0.68552,2.0594,-2.9028,8.8064,0.024129,-0.0027489,-0.015882
0.67307,2.2948,-2.5105,8.8064,-0.020769,-0.032376,0.021991
0.6441,2.432,-2.5105,8.7279,-0.13011,-0.089797,0.030849
0.61816,2.4517,-2.7459,8.4337,-0.24465,-0.14447,0.016799
0.59219,2.9224,-2.687,8.1787,-0.025045,-0.025351,-0.020159
0.59769,2.9224,-2.2751,8.1787,0.059865,-0.019853,-0.02474
0.58994,2.9224,-2.1967,8.3749,0.11087,0.0061087,-0.047037
0.59604,2.8635,-2.432,8.4141,0.096211,0.037874,-0.054978
0.60403,3.0597,-2.7262,8.218,0.033903,0.053451,-0.039401
0.59341,2.7851,-2.8832,8.1787,-0.039095,0.04612,-0.011301
0.58569,2.7851,-3.197,8.0807,-0.12004,0.022907,0.0018326
0.57007,2.7655,-3.1381,8.2572,-0.0956,-0.0042761,-0.0067195
0.54742,2.5497,-2.9028,8.5318,-0.14508,-0.017104,-0.030543
0.52072,2.2751,-2.687,8.5906,-0.14569,-0.021686,-0.016493
0.47049,2.1771,-2.687,8.8848,-0.10385,-0.020464,-0.027794
0.41956,2.3928,-2.7851,8.7083,-0.024435,-0.0076358,-0.039095
0.36108,2.1575,-2.7262,8.5514,0.06689,0.024435,-0.053145
0.32416,2.2359,-2.6086,8.9633,0.1292,0.069028,-0.059254
0.28909,1.9809,-2.1967,9.1202,-0.089797,0.11148,-0.058338
0.26389,2.2359,-2.4124,9.0025,-0.11942,0.13531,-0.049175
0.2402,2.2163,-2.5693,8.6887,0.24404,0.17532,0.040317
0.23883,2.2948,-2.9028,8.6299,0.20617,0.15913,0.036652
0.24026,2.2948,-2.7655,8.7083,0.14203,0.1237,0.053145
0.22012,2.2948,-2.4713,8.9044,0.064752,0.085521,0.061697
0.19522,2.2948,-2.3144,8.7475,-0.0036652,0.053145,0.062919
0.18576,2.4909,-2.4517,8.5514,-0.042455,0.032681,0.063835
0.18857,2.1575,-2.6674,8.4141,-0.041844,0.029627,0.057727
0.17261,2.4517,-2.6086,8.4141,-0.014966,0.03146,0.043982
0.18521,2.2751,-2.3732,8.6299,0.11209,0.040317,-0.026573
0.1759,2.4713,-2.2948,8.7475,0.11332,0.05681,-0.029322
0.16113,2.2948,-2.2948,8.5514,0.067501,0.073609,0.027184
0.1557,2.4713,-2.5693,8.4337,0.0024435,0.072388,0.021075
0.16034,2.6086,-2.7655,8.2376,-0.057421,0.049786,0.020159
0.16891,2.432,-2.8243,8.2376,-0.10171,0.020159,0.011606
0.17563,2.334,-2.432,8.9044,0.026878,-0.0036652,-0.0085521
0.17392,2.1575,-2.0006,9.179,0.074526,-0.016799,-0.02474
0.14978,2.1575,-2.0398,8.9437,0.65393,0.24679,0.15119
0.14288,2.1378,-2.7459,8.6887,0.44379,0.20281,0.081856
0.15341,2.2948,-2.7459,8.4337,0.089797,0.10354,-0.067501
0.1174,2.1771,-2.6086,8.5318,-0.35125,-0.032681,0.024129
0.18536,2.6086,-2.2948,8.8848,-0.78893,-0.18234,0.072693
0.189,2.7851,-2.2163,9.0417,-1.0993,-0.31948,0.10201
0.1973,2.4713,-2.4517,8.8456,-1.1955,-0.416,0.13928
0.20819,2.6282,-2.9224,8.2768,-1.0531,-0.46029,0.17257
0.21906,2.9224,-3.0793,8.1787,0.37202,0.20525,-0.05681
0.22717,2.6478,-2.4713,8.4141,0.281,0.17898,0.009163
0.2229,2.432,-2.1182,9.179,0.17318,0.16463,-0.17807
0.21677,2.1575,-1.8829,9.5125,0.082772,0.16157,-0.18082
0.17218,2.5497,-1.9809,8.9437,0.054978,0.18509,-0.15882
0.13272,2.6086,-2.0006,8.1591,0.10446,0.24496,-0.13256
0.065613,2.2751,-1.824,7.6884,0.20525,0.32437,-0.12187
0.01181,1.6867,-1.6475,7.9238,0.29047,0.39798,-0.10293
-0.046387,1.6083,-1.6475,8.7083,0.30391,0.44685,-0.088881
-0.15228,1.118,-2.0006,9.434,0.22999,0.43921,-0.13836
-0.27435,0.39227,-3.0008,9.8459,0.16218,0.36102,0.072693
-0.4137,-0.05884,-3.7658,10.689,0.062919,0.27794,0.098655
-0.54346,1.3925,-3.5304,9.7478,-0.026267,0.15547,0.098044
-0.66882,2.0006,-2.432,7.0216,-0.058948,0.019242,0.090408
-0.78439,0.8826,-1.824,6.4528,-0.072998,-0.12645,0.02138
-0.87201,1.0787,-1.1768,7.61,-0.084605,-0.24007,-0.04215
-0.918,1.4318,-1.118,9.3555,-0.045204,-0.27031,-0.21991
-0.89279,1.1964,-0.11768,10.062,0.048869,-0.20372,-0.16127
-0.85855,1.1964,0.62763,10.454,0.20556,-0.090713,-0.15944
-0.8616,1.7064,0.52956,10.003,0.37782,0.023824,-0.15394
-0.90018,1.7652,-0.96105,9.1202,0.49816,0.12034,-0.17226
-0.90863,2.1575,-2.7655,8.1787,0.60292,0.18173,-0.22571
-0.83887,3.2558,-3.2362,7.8649,0.68111,0.2025,-0.27458
-0.71432,3.1774,-2.687,8.316,0.71257,0.23549,-0.26695
-0.573,2.432,-1.9417,9.434,0.13775,0.12431,-0.062308
-0.43402,2.2751,-1.0199,9.3555,0.087048,0.15363,-0.065057
-0.33331,1.9221,-1.2553,7.8649,-0.030543,0.14966,-0.012828
-0.25821,1.5495,-3.5304,8.9633,-0.1741,0.12706,-0.030543
-0.17166,2.2948,-3.3146,10.12,-0.31154,0.076358,-0.049175
-0.08493,2.1575,-1.6475,11.14,-0.4047,0.013744,-0.054672
-0.065674,1.6083,-0.62763,10.474,-0.44807,-0.036346,-0.053451
-0.0401,1.9221,-1.3141,8.8848,-0.43371,-0.065973,-0.054978
-0.034851,2.589,-1.9417,7.6296,-0.34941,-0.053145,0.024129
0.028656,2.7851,-2.0986,7.4334,-0.20708,0.012217,0.030543
0.11453,2.5497,-1.6867,8.0022,-0.04612,0.091935,-0.060781
0.20596,1.7456,-1.4318,8.316,0.076053,0.15547,-0.044899
0.2807,1.6671,-1.3533,8.5318,0.12828,0.16982,-0.009163
0.37372,1.5495,-1.7848,9.1986,0.089797,0.12339,0.026267
0.46667,1.5298,-2.4124,9.0417,-0.020769,0.043371,0.03146
0.59131,1.9221,-2.9028,8.4141,-0.14936,-0.041844,0.022297
0.71039,1.8633,-2.6282,8.0807,-0.28283,-0.11148,0.036346
0.82486,1.4318,-1.824,9.0417,-0.26756,-0.15516,0.028405
0.88528,1.5887,-1.7456,9.6301,-0.24343,-0.15944,0.0281
0.94501,1.6867,-1.824,9.434,-0.21716,-0.13439,0.019242
0.97165,1.824,-2.0006,9.3359,-0.19059,-0.10843,0.022907
0.98764,2.0594,-2.1378,9.0025,-0.15577,-0.091935,0.044288
0.98761,1.9613,-2.1967,8.8064,-0.24099,-0.080634,0.058643
0.96692,2.0202,-2.2555,8.7083,-0.28344,-0.066584,0.050091
0.94421,2.0594,-2.4124,8.8064,-0.024129,-0.050702,0.095906
0.90707,2.2359,-2.3732,9.0417,-0.016493,-0.027794,0.11301
0.85654,2.1182,-1.824,9.1006,-0.020159,-0.0088575,0.01741
0.79456,2.1575,-1.6475,8.9044,-0.038485,-0.017715,0.017715
0.7373,2.1378,-2.0986,8.5906,-0.055894,-0.036652,0.031765
0.69107,1.824,-2.6086,8.316,-0.093768,-0.054978,0.036346
0.64865,1.8437,-3.0008,8.4337,-0.10873,-0.061392,0.041844
0.6384,1.6475,-2.687,8.7475,-0.057116,-0.053451,0.06353
0.62656,1.6867,-2.4124,9.0417,0.30635,0.098655,-0.083383
0.63409,1.9221,-2.687,8.8064,0.38301,0.11973,-0.083383
0.63391,2.0594,-2.687,8.1003,0.40928,0.097128,0.068111
0.63312,2.2359,-2.687,7.9434,0.37293,0.060781,0.072998
0.62158,2.3732,-2.3732,8.0807,0.28924,-0.0027489,0.060781
0.62891,2.2359,-2.0006,8.5318,0.15913,-0.083383,0.025656
0.60901,2.0006,-2.1575,8.8652,-0.0012217,-0.1576,-0.021991
0.59619,2.0594,-2.2751,8.8652,-0.14539,-0.21319,-0.063225
0.57361,2.0006,-1.9809,9.0025,-0.29138,-0.23732,-0.058643
0.5639,1.824,-1.7456,9.0613,-0.3207,-0.23793,-0.034514
0.53699,1.7456,-1.7848,9.0613,-0.31307,-0.21533,-0.075136
0.50525,1.824,-2.1575,8.8652,-0.27886,-0.17104,-0.073304
0.4928,1.9221,-3.0597,8.9437,-0.22785,-0.10751,-0.072998
0.49438,2.3732,-3.295,9.4144,-0.14172,-0.045509,-0.065057
0.50949,2.1771,-2.4517,9.4144,-0.040928,0.0051924,-0.058338
0.52969,1.824,-2.1182,9.5125,0.049786,0.068722,-0.060476
0.5105,1.7652,-1.6475,9.6497,0.086437,0.12767,0.00030543
0.47003,2.2359,-1.6279,9.434,0.028711,0.14539,0.0061087
0.42654,2.6282,-1.6475,8.7279,-0.07086,0.11881,0.024129
0.38431,2.3732,-2.0398,8.0807,-0.14844,0.079718,0.040623
0.35837,2.432,-2.432,7.61,-0.16707,0.057421,0.014661
0.34897,2.0006,-2.5693,7.8649,-0.13897,0.05681,0.0030543
0.3584,2.0006,-2.2751,7.9434,-0.091019,0.069639,-0.0027489
0.37381,1.9221,-2.0398,8.6299,-0.045204,0.090103,-0.0058032
0.37277,1.7652,-2.432,8.5906,-0.031154,0.10843,0.062003
0.36768,1.7456,-2.8243,8.7083,-0.046731,0.12523,0.085216
0.35861,1.824,-2.9224,8.7868,-0.04612,0.12095,0.0012217
0.37872,1.824,-2.6086,8.7475,-0.0042761,0.11057,-0.0082467
0.38144,1.8044,-2.589,8.5906,0.05681,0.11332,-0.016188
0.37787,1.8633,-2.1967,8.9633,0.092852,0.11515,-0.010079
0.37161,1.6867,-1.8437,9.3555,0.084605,0.1014,0.010385
0.35992,1.8044,-1.7456,9.4732,0.06017,0.072082,0.038485
0.34036,2.1182,-1.6475,9.3163,0.10507,0.11576,-0.033292
0.32623,2.0006,-2.2948,9.5321,0.18784,0.066584,-0.037568
0.32648,2.0594,-2.4517,9.1594,0.31368,0.040317,-0.039095
0.32977,1.7456,-2.432,9.3359,0.33506,0.049786,-0.025962
0.28107,1.8044,-2.1575,9.5125,0.16066,0.075442,-0.062003
0.24774,2.0202,-2.0006,9.3163,-0.14722,0.051618,-0.10385
0.20212,2.0594,-1.8829,8.4141,0.12309,-0.027489,-0.059254
0.16898,2.3732,-2.5105,7.7669,0.084299,-0.12217,-0.020769
0.16666,2.687,-2.7262,7.6884,-0.48167,-0.20128,0.0073304
0.20447,3.0793,-1.8829,7.8649,-0.28405,-0.23854,-0.015272
0.24579,2.7851,-1.216,8.1003,-0.017715,-0.22205,-0.03543
0.27896,2.3732,-1.5691,8.7475,0.14019,-0.1576,-0.055589
0.29077,2.2948,-2.7655,8.7475,0.15791,-0.026878,-0.078802
0.32574,2.589,-3.55,8.6299,0.075442,0.092546,-0.073609
0.36771,2.2751,-3.3146,8.6299,-0.41447,0.16646,-0.035125
0.4234,1.7064,-2.3732,8.9437,-0.52748,0.20861,-0.0061087
0.46902,1.3533,-1.9809,9.3359,-0.13347,0.21625,0.17868
0.5126,1.4318,-2.2751,9.1594,-0.023518,0.21441,0.16616
0.55139,1.3925,-3.4716,8.8456,0.10171,0.21594,-0.064446
0.62073,1.1964,-2.6086,9.8459,0.15882,0.24832,-0.085216
0.64728,2.0202,-1.6475,10.199,0.10263,0.30513,-0.078802
0.61389,2.6086,-1.0983,8.4141,0.0064141,0.34025,-0.053756
0.51385,2.2751,-1.5102,7.3354,-0.059865,0.28833,0.030543
0.38632,1.9809,-2.1575,7.61,-0.15272,0.17257,0.13897
0.27341,2.687,-2.2555,8.218,-0.071471,0.12828,-0.011606
0.16168,2.589,-2.4124,8.316,-0.018021,0.15821,-0.020159
0.084991,2.0594,-2.3144,8.316,0.080329,0.21105,-0.086437
0.0083923,1.5495,-2.5693,8.5514,0.1744,0.26298,-0.1014
-0.056488,1.4906,-1.6867,9.2575,0.25412,0.30238,-0.094684
-0.14862,0.92183,-1.5691,9.7478,0.29138,0.30727,-0.078802
-0.28482,0.80415,-2.2751,8.9044,0.27153,0.26848,-0.055894
-0.4136,0.17652,-3.0793,9.8851,0.20922,0.19823,-0.028405
-0.53226,0.25497,-2.6086,10.768,-0.19884,0.041539,0.091019
-0.65631,0.8826,-1.8437,9.3163,-0.26573,-0.16066,0.068417
-0.74802,1.1768,-1.3337,7.7865,-0.15944,-0.30513,0.11881
-0.82629,1.2749,-2.432,7.0608,0.032681,-0.31918,0.047037
-0.86758,1.7064,-2.7262,8.0022,0.20495,-0.2248,0.017104
-0.84875,1.7456,-2.2555,9.5909,0.35216,-0.11301,0.017104
-0.78455,1.6867,-1.118,10.768,0.37324,-0.022907,-0.0082467
-0.70468,2.0006,-0.31381,10.925,0.29871,0.027794,0.045509
-0.6264,2.3732,-0.23536,9.9636,0.23671,0.013744,0.18234
-0.57501,2.8635,-0.86299,8.8652,0.14019,-0.041539,0.1408
-0.52139,3.0793,-1.9809,7.6296,-0.11393,-0.082467,0.1124
-0.4313,3.4127,-2.942,7.61,-0.48197,-0.1573,0.13592
-0.29303,3.3343,-2.687,7.6296,-0.90652,-0.25992,0.12065
-0.15167,2.4713,-1.216,8.1003,-1.2984,-0.38026,0.15394
-0.050232,1.5298,-1.2553,8.4141,-1.5598,-0.51862,0.21197
-0.00024414,1.1964,-1.9417,8.8456,-1.6503,-0.61148,0.21747
0.047089,1.5298,-2.3144,8.8848,-0.65118,-0.23274,0.033903
0.088287,1.0199,-2.589,9.689,-0.22052,-0.043982,-0.042761
0.11661,0.74531,-1.9025,8.6299,0.19731,0.15272,-0.1182
0.14258,0.76492,-1.6475,8.9633,0.54153,0.34178,-0.067501
0.17581,-0.49033,-2.5105,10.925,0.71563,0.46334,0.0045815
0.22681,0.45111,-2.7851,10.591,0.6915,0.46914,0.094073
0.29697,1.9221,-2.2751,8.7279,0.51068,0.39523,0.14416
0.38998,1.4318,-1.1964,8.7083,0.28894,0.3146,0.12004
0.49295,1.5102,-0.43149,8.5514,0.099266,0.28008,-0.068111
0.58536,0.5884,-0.8826,9.7478,-0.025962,0.27458,-0.058948
0.69278,0.90221,-0.56879,10.258,-0.046426,0.27733,-0.026878
0.79932,0.74531,-1.0199,9.8263,-0.0018326,0.27733,0.00061087
0.87625,1.3533,-1.8829,7.6492,0.043371,0.25107,0.048258
0.9118,1.824,-3.5304,6.6097,0.10049,0.21961,0.12004
0.94153,2.4517,-5.1975,5.9821,0.16524,0.24038,0.18173
1,2.7655,-4.7856,7.2765,0.05681,0.19548,0.18265
1,2.1575,-3.8834,9.3359,0.074831,-0.015272,0.03146
1,2.5301,-2.432,9.5321,0.052229,0.0030543,0.012828
1,2.3732,-2.5105,9.787,-0.0018326,0.0045815,0.049786
1,2.2948,-2.3144,9.8066,-0.083689,-0.0009163,0.059559
0.99835,2.1378,-1.5102,10.258,-0.18754,-0.009163,0.061697
0.89221,1.7064,-0.31381,10.356,-0.27153,-0.015272,0.050702
0.70157,1.6867,-0.31381,9.4144,0.011606,-0.009163,0.040012
0.54895,2.0202,-2.1182,7.9434,0.062308,-0.0058032,0.036346
0.46747,2.687,-3.1381,7.0216,0.014966,-0.024129,0.023518
0.4588,2.4517,-3.295,7.3746,-0.27122,-0.034819,0.019242
0.48386,2.3732,-2.6086,7.8061,-0.18295,-0.011606,-0.017104
0.51501,2.1378,-2.4124,8.8652,-0.064446,0.031765,-0.029627
0.5531,1.9221,-2.3732,9.4928,0.050091,0.069944,-0.01741
0.58984,2.0006,-2.2555,9.2575,0.12217,0.087048,-0.0027489
0.65753,2.4713,-1.8829,8.8064,0.135,0.079412,0.0067195
0.74454,2.1182,-1.824,8.5514,0.091324,0.037263,0.017715
0.845,2.2359,-2.2555,7.9238,-0.18692,-0.096822,0.0045815
0.96252,2.2359,-2.5105,7.7865,-0.28588,-0.11484,0.0064141
1,2.0594,-2.9224,8.2572,-0.36285,-0.13317,-0.011301
1,2.1378,-2.8439,8.7475,-0.39737,-0.12248,-0.0094684
1,1.8437,-2.589,8.7279,-0.37171,-0.079718,-0.033903
1,1.8437,-2.6086,8.6887,-0.28283,-0.0281,-0.04215
1,2.0594,-2.942,8.7083,-0.16005,0.024435,-0.023213
1,2.0594,-3.0793,8.9044,-0.057421,0.07025,-0.00030543
1,2.0006,-2.7459,8.8652,0.014661,0.098655,0.044593
1,2.2359,-2.5301,8.7475,-0.072693,0.11515,0.047342
1,2.1575,-2.3732,8.4926,-0.16005,0.11912,0.019548
1,2.1771,-2.4713,8.0807,-0.1909,0.094073,0.039706
1,1.9221,-3.197,8.1003,-0.15119,0.039095,0.054672
1,2.1575,-3.3931,8.7083,-0.07025,-0.011301,0.064446
0.98328,2.2751,-2.9224,8.7868,0.011301,-0.03146,0.055894
0.94968,2.1575,-2.432,8.8652,0.046731,-0.032376,0.041539
0.91312,2.0006,-2.5105,8.8064,0.27978,0.25748,0.043371
0.89594,1.9221,-2.8243,8.8456,0.20495,0.24771,-0.014966
0.86893,2.1575,-2.7655,8.316,0.13775,0.18937,0.18509
0.82333,2.3732,-3.0008,8.1787,0.097433,0.10873,0.20586
0.78433,2.0594,-2.7459,8.316,0.13256,0.10934,0.21044
0.7244,1.9809,-2.3732,8.7279,0.12034,0.14203,0.16768
0.66202,1.824,-2.589,8.8652,0.06689,0.077274,0.11515
0.57919,2.0006,-2.7655,8.6299,-0.053451,-0.0562,0.094684
0.52521,2.0006,-2.9028,8.3357,0.019242,0.038179,-0.079107
0.47867,2.1575,-2.942,8.4141,0.036652,0.037568,-0.12065
0.43365,2.0594,-2.7851,8.2768,0.080023,0.054367,-0.04215
0.38196,2.079,-2.7655,8.5514,0.12156,0.084299,-0.044288
0.31894,2.0594,-2.7459,8.7868,0.12492,0.11393,-0.030849
0.24139,2.2163,-2.9028,8.6887,0.084605,0.1237,-0.01741
0.15793,2.4517,-2.7262,8.4141,0.023824,0.10996,-0.017715
0.073212,2.7851,-2.3536,8.7475,-0.02138,0.086743,-0.04215
0.0055847,2.7851,-2.4124,8.8652,-0.028711,0.083689,-0.064141
-0.075378,3.0008,-2.7262,8.9044,0.00061087,0.091935,-0.034819
-0.13153,2.8439,-3.0597,8.8456,0.084299,0.096211,-0.14875
-0.16699,2.1575,-3.1577,8.7279,0.20495,0.10263,-0.15149
-0.20822,2.2948,-2.7655,8.5514,0.31001,0.12889,-0.15272
-0.23535,1.9613,-1.824,8.8652,0.36102,0.1686,-0.16524
-0.27496,1.5298,-1.8044,8.6495,0.35675,0.19028,-0.15424
-0.35428,2.0006,-2.0398,8.4337,0.29199,0.18357,-0.10782
-0.41232,2.1575,-2.0594,8.218,0.18357,0.14844,0.082161
-0.46503,1.9221,-2.1182,8.218,0.08827,0.10201,0.13408
-0.51294,1.5102,-2.0398,8.7083,0.034819,0.065363,-0.033292
-0.58701,1.3729,-2.2555,9.4732,0.045204,0.041233,-0.04612
-0.70633,1.118,-3.0401,8.1787,0.11362,0.057727,-0.042455
-0.85434,0.2942,-3.0597,9.5125,0.20189,0.11057,-0.029932
-0.98343,0.35304,-2.687,10.748,0.28497,0.17043,0.0030543
-0.99997,1.9613,-2.432,9.1986,0.32193,0.22419,0.045509
-0.99997,2.0202,-2.6086,7.5511,0.17532,0.14722,-0.096822
-0.99997,1.6671,-2.3144,7.2177,0.12767,0.12339,-0.10996
-0.99997,1.9809,-1.6867,7.8061,0.08094,0.10904,-0.062003
-0.99997,2.0594,-1.6671,8.7475,0.06689,0.11393,-0.066279
-0.99997,1.9613,-2.2555,9.1202,0.077885,0.13408,-0.080634
-0.98407,2.2948,-2.1967,9.0417,0.082467,0.15455,-0.081245
-0.85751,2.2359,-2.1378,8.5906,0.10324,0.1741,-0.07025
-0.70941,1.9809,-2.2555,8.3357,0.13347,0.20067,-0.077274
-0.54764,2.1378,-2.687,8.5514,0.16127,0.219,-0.062308
-0.38773,2.4517,-2.9028,9.0417,0.16921,0.21105,-0.040012
-0.24765,2.0006,-2.8243,9.4144,0.14875,0.18204,-0.11179
-0.13989,2.2948,-2.5693,9.2575,0.10476,0.16249,-0.11301
-0.074707,2.1378,-1.9613,9.0025,0.045509,0.14569,-0.1127
-0.027527,2.1575,-1.824,8.4141,-0.018937,0.12798,-0.1011
-0.019989,1.824,-2.0398,8.5514,0.14752,0.1011,-0.087965
-0.030334,2.0006,-2.432,8.4337,0.15302,0.064141,-0.078802
-0.059692,1.7456,-2.589,8.8848,-0.13225,0.030543,0.0079412
-0.117,1.5298,-2.5693,9.1986,-0.12981,0.015577,0.0073304
-0.15054,1.5102,-2.0986,9.0221,-0.1295,0.011912,-0.035125
-0.194,1.4318,-1.9025,8.8064,-0.12523,0.0051924,-0.026878
-0.2085,1.118,-1.8829,8.8652,-0.10782,-0.0085521,-0.0061087
-0.21548,1.3337,-2.1967,8.9437,-0.088881,-0.028711,0.0067195
-0.19171,1.4318,-2.2751,9.0417,-0.078191,-0.046731,0.012523
-0.17709,1.0395,-2.1967,9.179,-0.12065,-0.057116,0.011912
-0.16266,1.4318,-2.2751,9.0613,-0.045815,-0.062003,0.039401
-0.14099,1.3925,-2.2751,9.1202,-0.016188,-0.059865,0.016188
-0.10953,1.6867,-2.2751,8.7868,0.007025,-0.046426,0.011301
-0.061218,1.7064,-2.1575,8.6299,0.014355,-0.028405,0.011912
-0.04953,1.8044,-2.1967,8.8652,-0.01405,-0.01069,0.01741
-0.027405,1.9809,-2.2555,8.7083,-0.062919,-0.00030543,0.026267
-0.011627,1.9613,-2.2948,8.7083,-0.075442,-0.0073304,0.036652
-0.01236,1.6671,-2.2555,8.7083,-0.066584,-0.029932,0.048564
0.010834,2.0594,-2.2751,8.6299,-0.8152,-0.52687,0.076969
0.026794,1.824,-2.0986,8.7083,-0.56291,-0.36072,0.033598
0.03302,1.9221,-1.9809,8.9437,-0.28253,-0.19945,0.043371
-0.028412,1.824,-2.6086,8.8064,0,-0.047647,0.040928
-0.092316,1.0787,-3.3931,9.1986,0.2022,0.097738,0.025656
-0.17737,0.70608,-2.7459,10.434,0.26664,0.16157,0.030849
-0.28018,1.1964,-1.6279,9.8459,0.18357,0.13408,0.06689
-0.38577,1.4514,-1.0591,8.6887,0.0088575,0.053451,0.096517
-0.49442,1.1964,-1.3533,7.9434,-0.27519,-0.04215,-0.010079
-0.58679,1.118,-2.7851,7.6492,-0.32315,-0.095906,-0.01405
-0.63638,1.2356,-3.0793,8.5514,-0.2926,-0.090103,-0.010079
-0.59534,0.80415,-1.7848,10.297,-0.23457,-0.057116,-0.034514
-0.53903,0.2942,-0.56879,11.14,-0.14386,-0.021686,-0.02138
-0.4581,0.98067,-1.3141,9.7478,-0.019853,0.016493,-0.00061087
-0.35889,2.334,-2.7459,7.6884,0.10629,0.045815,0.0042761
-0.22815,2.8047,-3.6285,6.6097,0.20831,0.077885,0.0009163
-0.077179,2.6478,-3.8834,6.9823,0.24984,0.10415,-0.060781
0.053619,2.6086,-3.0793,8.1003,0.21777,0.11759,-0.066279
0.13864,2.1575,-2.2555,8.8652,0.12981,0.10873,-0.010385
0.21512,2.1575,-1.9613,9.1594,0.027489,0.061697,0.0067195
0.24448,2.6478,-2.3732,8.6299,-0.057421,-0.0009163,0.020464
0.26175,2.6086,-2.5693,8.4141,-0.10934,-0.060781,0.002138
0.29041,2.4713,-2.5105,8.218,-0.10965,-0.099266,-0.026878
0.32574,2.2359,-2.7459,8.7279,-0.071166,-0.095906,-0.045815
0.36313,2.4713,-2.6086,9.2183,-0.059865,-0.062308,-0.062308
0.4021,2.2948,-2.2555,9.3752,-0.014355,-0.02474,-0.058948
0.41153,2.1575,-2.1575,9.179,0.025962,0.0009163,-0.065057
0.41623,2.1378,-2.687,8.8064,0.063835,0.020464,-0.062003
0.41119,2.2948,-2.9028,8.5514,0.10324,0.042761,-0.04948
0.40079,2.1575,-2.9028,8.4729,0.13867,0.067195,-0.037874
0.37805,1.8633,-2.4517,8.3945,0.15608,0.087048,-0.021075
0.34256,1.7652,-2.3536,8.3749,0.14325,0.099266,-0.0039706
0.29779,1.6867,-2.1575,8.5514,0.013744,0.026267,-0.0067195
0.27347,1.4906,-2.4713,8.5318,-0.009163,0.019853,0.018326
0.23148,1.6475,-2.7459,8.5318,-0.0079412,0.0094684,-0.082467
0.18954,1.6083,-2.5693,8.4337,0.022602,0.00061087,-0.075747
0.15192,1.7064,-2.2751,8.8064,0.063225,0.0012217,-0.07086
0.11487,1.5887,-2.0986,9.179,0.08827,0.022602,-0.059559
0.068237,1.8633,-2.2751,9.0417,0.052534,0.051618,-0.05284
0.035614,2.0006,-2.432,8.4141,0.040623,0.07422,-0.039095
0.0094604,2.1378,-2.1575,8.4141,-0.072693,0.073304,0.041844
-0.019806,2.2948,-2.3732,8.4926,-0.097433,0.059254,0.073915
-0.045563,2.4517,-2.3732,8.5514,-0.059559,0.059254,0.01069
-0.07962,2.2948,-2.4517,8.6887,0.0067195,0.071166,-0.0045815
-0.11133,2.1575,-2.7851,8.7868,0.071471,0.10354,-0.010385
-0.12405,2.2751,-3.0793,8.8456,0.10599,0.14661,-0.013439
-0.13223,2.4517,-2.8832,8.8064,0.062919,0.18876,-0.010385
-0.14606,2.0006,-2.5301,8.9044,-0.0030543,0.22602,0.011912
-0.15985,1.8437,-2.432,8.9044,0.080023,0.23793,0.038485
-0.17749,1.824,-2.432,8.7868,0.1014,0.20556,0.087659
-0.20221,1.7456,-2.1967,8.8064,0.12248,0.17104,0.095906
-0.21158,1.6671,-2.1575,8.8652,0.14997,0.135,0.10018
-0.22571,2.0006,-2.432,8.5318,0.22388,0.12309,0.13531
-0.23679,1.7456,-2.1967,8.4926,0.31948,0.084605,0.16829
-0.25665,1.6083,-2.0594,8.7475,0.097433,0.079718,0.12523
-0.26697,1.4318,-2.1575,8.4141,0.062003,0.091019,0.038485
-0.27789,1.5495,-2.3732,8.0807,0.041844,0.097433,-0.091324
-0.28821,1.5298,-2.3536,8.1199,0.06353,0.11057,-0.091324
-0.2905,1.5298,-2.0986,8.3945,0.059254,0.10996,-0.042761
-0.30035,1.3925,-1.9809,9.4928,0.036652,0.099571,-0.045509
-0.32971,1.5495,-2.3144,9.787,0.016799,0.079107,-0.06017
-0.38147,1.3533,-2.7851,8.4926,0.014355,0.055894,-0.072388
-0.43262,1.118,-3.0793,9.3752,0.0281,0.039095,-0.080023
-0.48993,1.5298,-2.1967,9.5713,0.045204,0.031765,-0.086132
-0.55139,1.7064,-1.118,8.9437,-0.44929,-0.35155,-0.15302
-0.62442,1.118,-1.5102,9.0221,-0.36499,-0.35003,-0.13042
-0.66843,1.3729,-2.0594,8.6299,-0.19273,-0.29199,-0.20342
-0.69788,1.0787,-2.9812,8.7279,-0.0012217,-0.20036,-0.18967
-0.71494,1.216,-2.9224,8.8456,0.18326,-0.10171,-0.14813
-0.69861,1.0787,-2.4517,9.689,0.36682,-0.0094684,-0.11606
-0.66721,0.54917,-2.0398,10.689,0.51649,0.087354,-0.12706
-0.62283,1.2945,-1.824,10.474,0.62156,0.21625,-0.14966
-0.60904,1.6867,-2.3144,8.9633,0.63774,0.33689,-0.14416
-0.50717,2.0594,-2.8832,7.2961,0.56383,0.38759,-0.087354
-0.47006,1.6867,-3.2166,6.6097,0.46395,0.38515,-0.092852
-0.45352,1.7456,-3.3931,7.4334,0.40042,0.36102,-0.10263
-0.43356,2.6478,-2.942,8.2572,0.42974,0.35186,-0.14844
-0.42056,2.8635,-2.4713,8.6299,0.54,0.38454,-0.19212
-0.41479,2.4517,-2.1182,8.0807,0.66401,0.44563,-0.21105
-0.40985,2.687,-1.6279,7.5511,0.72601,0.48961,-0.19426
-0.41364,2.687,-2.1967,7.5903,0.096822,-0.05284,0.048258
-0.39923,2.432,-2.7459,8.5514,0.08094,-0.026573,0.016799
-0.38589,1.6083,-2.4713,10.317,0.046426,0.00061087,-0.0030543
-0.36157,1.3729,-2.0398,11.219,0.025045,0.028711,-0.019548
-0.37186,1.2356,-2.1378,10.611,0.037263,0.07025,-0.0009163
-0.36755,2.1575,-2.5693,9.6694,0.035736,0.12981,0.018021
-0.36523,2.4517,-2.6086,8.6299,0.051007,0.17257,0.028711
-0.34253,2.2948,-2.432,8.0807,0.12278,0.20769,0.047647
-0.32141,2.0594,-2.3732,7.8061,0.40714,0.2865,-0.080023
-0.29056,2.3732,-1.7456,7.8649,0.5791,0.40378,-0.17165
-0.2634,1.8633,-1.0199,8.4141,0.59315,0.44502,0.018021
-0.25583,1.6083,-1.1572,8.8652,0.44135,0.3821,0.092241
-0.23792,1.5298,-1.7848,8.7475,0.19028,0.24862,0.15577
-0.23346,1.5298,-1.824,9.1594,-0.082161,0.069028,0.13683
-0.23605,1.1964,-1.1768,9.6497,-0.30665,-0.12095,0.083994
-0.27002,1.1964,-1.216,8.6887,-0.42944,-0.27764,0.018631
-0.33289,1.5298,-1.8829,8.9437,0.031154,0.064446,-0.075442
-0.37549,1.118,-2.7459,10.12,0.135,0.0042761,-0.065668
-0.41086,0.96105,-2.5105,11.101,0.29535,-0.015272,-0.18448
-0.44931,1.3925,-2.0006,10.12,0.40103,0.0281,-0.23549
-0.50543,2.0006,-1.1768,8.9633,0.39095,0.085216,-0.25748
-0.52673,2.2948,-0.23536,8.0218,0.27794,0.082161,-0.22266
-0.52844,2.0594,-0.11768,7.5511,0.069333,0.016493,-0.14416
-0.49673,1.5495,-1.0199,7.708,-0.0024435,-0.091019,-0.089186
-0.41922,1.5102,-2.0006,8.1787,0.17074,0.19761,0.026573
-0.29041,1.3925,-1.5298,9.0613,0.10812,0.16371,0.10599
-0.13065,0.82376,-1.5298,9.6497,0.10446,0.1576,0.035736
-0.0019836,0.76492,-1.3337,9.1006,0.15485,0.15852,0.024129
0.12436,1.0395,-1.5102,8.8064,0.24832,0.17257,0.014355
0.24969,1.0395,-1.9025,9.5713,0.31154,0.17196,0.0073304
0.3223,1.1376,-1.7456,10.434,0.3488,0.17532,0.0097738
0.35834,1.1376,-0.05884,8.9633,0.39523,0.21564,0.0064141
0.37302,0.56879,-0.47072,10.317,0.40531,0.1909,0.15394
0.35666,1.118,-0.43149,11.062,0.28191,0.067501,0.11148
0.30856,1.6083,-0.05884,9.6694,0.17104,-0.051924,0.12828
0.27426,0.72569,-0.39227,9.6694,0.10446,-0.10568,0.048869
0.21234,0.98067,-1.6279,8.5906,0.075747,-0.10568,0.040012
0.12967,1.216,-2.6282,7.3746,0.069944,-0.10476,0.07422
0.055664,1.0787,-2.5105,7.4334,0.0076358,-0.15547,0.10782
-0.034821,0.60801,-1.3337,8.3749,-0.17715,-0.22846,0.15394
-0.14041,0.41188,-1.1964,9.3359,-0.72235,-0.28711,-0.037568
-0.2417,1.2945,-1.7456,9.2771,-0.57085,-0.31337,-0.099571
-0.30499,1.7064,-1.6671,9.6694,-0.25595,-0.26848,0.029627
-0.37314,1.1768,-0.39227,10.16,0.083078,-0.16096,-0.085827
-0.45654,1.0395,0.39227,11.003,0.26512,0.009163,-0.17471
-0.55643,1.6671,0.56879,10.062,0.21838,0.18937,-0.20831
-0.65433,1.5298,-0.17652,8.9437,-0.43249,0.24862,-0.17135
-0.72388,1.824,-0.49033,8.4141,-0.65668,0.17074,-0.079107
-0.75385,2.0006,-0.17652,7.9042,-0.16493,-0.091019,0.034819
-0.72247,1.6083,-1.0199,8.2572,-0.23854,-0.072693,0.026267
-0.62811,1.9221,-1.3533,9.179,-0.15944,-0.041233,-0.03146
-0.51382,1.9221,-1.4318,9.2575,-0.078802,-0.014966,-0.014966
-0.39563,1.3925,-1.0395,9.3359,-0.037263,-0.015882,0.017715
-0.31802,1.0787,-1.2553,9.1006,-0.043066,-0.045815,0.039095
-0.25323,1.6867,-1.4906,9.6497,-0.083994,-0.086743,0.045509
-0.18472,1.9613,-1.4318,10.454,-0.13439,-0.11515,0.043066
-0.12366,1.3533,-1.3729,9.179,-0.77702,-0.5229,0.02138
-0.065765,0.76492,-2.7851,8.1787,-0.4725,-0.33323,-0.0085521
0.0034485,0.098066,-2.3732,10.925,-0.14203,-0.13225,-0.030238
0.010651,-0.2942,-0.54917,12.494,0.10873,0.037874,-0.010996
-0.081665,0.39227,0.84337,10.16,0.2193,0.13744,0.030543
-0.23972,1.1768,0.13729,7.5511,0.18631,0.16127,0.067501
-0.36749,1.5102,-1.6475,6.6685,0.021075,0.12553,0.069333
-0.44708,2.0202,-2.5105,7.1785,-0.21533,0.054672,0.051618
-0.44193,2.2359,-2.1575,8.4141,-0.5452,-0.018937,0.041844
-0.39453,1.8633,-1.4122,9.2183,-0.63683,-0.081856,0.03207
-0.32864,1.6083,-1.0003,9.3752,-0.64324,-0.12401,-0.014355
-0.27878,1.9025,-0.80415,9.0417,-0.59559,-0.13225,-0.0045815
-0.19626,1.7456,-1.3337,8.7083,-0.51374,-0.11759,0.0082467
-0.09259,1.824,-1.824,8.7279,-0.39737,-0.093462,0.021991
0.044373,1.9025,-2.2751,8.9044,-0.2697,-0.067806,0.031154
0.18884,1.8044,-2.3144,8.8848,-0.14233,-0.031765,0.043066
0.29742,1.6671,-1.8437,9.434,-0.031154,0.01069,-0.0067195
0.38077,1.7456,-1.6475,9.5713,0.021991,0.043677,-0.018631
0.43246,1.9221,-1.5691,9.3163,-0.0058032,0.050702,0.033598
0.45316,1.6867,-1.8044,9.1594,-0.091935,0.031765,0.039706
0.43646,1.824,-2.0006,8.9437,-0.18815,-0.009163,0.033903
0.41656,1.8044,-1.8044,9.1202,-0.25595,-0.050396,0.011301
0.38086,1.824,-1.5691,9.2575,-0.28008,-0.078496,-0.012523
0.30988,1.9221,-1.7848,9.1986,-0.26359,-0.092241,-0.013439
0.25342,1.8044,-1.9809,8.9633,-0.1799,-0.0015272,0.044593
0.22266,2.0594,-1.9809,8.7083,-0.11148,-0.010079,0.042455
0.19791,2.0594,-2.2751,8.7475,0.032376,0.021991,-0.11118
0.16544,2.0006,-2.1575,8.7083,0.17532,0.069028,-0.11606
0.12839,1.9221,-2.1967,8.9044,0.24587,0.096211,-0.090103
0.095337,1.9613,-1.8044,8.9044,0.21105,0.087048,-0.044288
0.065094,1.6083,-1.9613,8.9044,0.10232,0.049175,-0.0079412
0.031464,1.9221,-2.5105,8.6887,-0.041539,-0.017104,0.018937
0.0030823,2.2359,-2.589,8.316,-0.20372,-0.080634,0.099571
-0.014374,2.4713,-2.1575,8.5318,-0.10965,-0.089492,0.10629
-0.035736,1.9809,-1.8044,8.9437,-0.020769,-0.041844,0.01741
-0.071564,1.4906,-1.8829,9.2771,0.021991,0.026573,0.015272
-0.11765,1.6475,-1.9809,9.0417,0.029627,0.076969,0.037263
-0.13364,1.4318,-2.3732,8.7279,0.018021,0.086743,0.072082
-0.1319,1.4318,-2.5105,8.6299,-0.17532,0.074831,0.098044
-0.103,1.4514,-1.9025,9.0025,-0.23488,0.068111,0.10232
-0.061279,1.4514,-1.1768,9.3359,-0.068417,0.065668,0.14691
-0.042572,1.5298,-1.1964,9.179,-0.098044,0.059865,0.093157
-0.05307,1.9221,-1.7456,8.4141,-0.13653,0.060476,0.1179
-0.054138,2.2948,-1.9613,8.316,-0.19334,0.068111,0.12614
-0.052124,1.9809,-1.8437,9.1006,-0.2303,0.058338,0.13714
-0.029785,2.1575,-2.0594,9.1986,-0.16799,0.019853,0.16188
-0.037506,1.824,-1.9025,9.1006,-0.007025,-0.040928,0.17715
-0.043274,2.0006,-1.7456,9.0221,-0.039706,-0.04215,0.16585
-0.085724,2.0006,-1.8044,9.179,0.36927,0.085216,-0.067806
-0.16855,2.0006,-2.687,9.4732,0.30849,0.13653,-0.070555
-0.28906,1.7064,-3.5304,7.0019,0.086132,0.11026,0.072693
-0.41199,0.098066,-3.4127,9.8066,-0.10965,-0.02138,0.033598
-0.55737,0.90221,-1.8437,11.533,-0.20922,-0.20708,-0.016799
-0.71527,1.9221,-1.3141,9.4144,-0.25656,-0.33262,-0.032681
-0.84579,1.6083,-1.5102,7.6492,0.085216,-0.35949,-0.041844
-0.93378,1.1964,-1.6867,7.1589,0.2868,-0.31429,-0.060476
-0.97717,1.824,-1.9025,7.5903,0.022297,0.050702,-0.018631
-0.9281,1.6475,-2.0594,8.5318,0.053756,0.032376,-0.0079412
-0.83447,1.0395,-1.6671,9.6694,0.07086,0.034514,-0.10171
-0.73227,1.4906,-1.7456,9.4732,0.055589,0.039401,-0.089492
-0.61737,1.7456,-2.1967,9.0025,0.013744,0.033903,-0.071471
-0.49527,2.1378,-2.6086,8.7083,-0.027794,0.017715,-0.054978
-0.36664,2.0594,-2.7459,8.9044,-0.044593,-0.00061087,-0.043982
-0.25363,2.3732,-2.432,8.8652,-0.032376,-0.0058032,-0.03146
-0.17212,2.5497,-2.1378,8.7279,-0.0030543,0.0033598,0.021686
-0.11383,2.7459,-2.0398,8.4337,0.014355,0.022907,0.02474
-0.086884,2.7851,-1.9613,8.5514,0.0058032,0.048869,-0.0024435
-0.07077,2.7851,-2.2751,8.7083,-0.014661,0.075136,0.0018326
-0.043976,2.4517,-2.6086,8.8652,-0.033598,0.091935,0.021075
-0.047943,2.589,-2.6282,8.6299,-0.022602,0.098044,0.044899
-0.049438,2.4517,-2.3144,8.4141,0.04612,0.1011,0.052534
-0.042206,1.9809,-2.3732,8.7083,0.14569,0.12156,0.036652
-0.054169,1.7064,-2.6086,9.0025,0.21136,0.15516,-0.040317
-0.065765,1.824,-2.5105,9.0417,0.20159,0.17379,-0.040928
-0.078278,1.7456,-2.1575,8.8848,0.14844,0.16035,0.040623
-0.08548,1.824,-1.7848,8.7868,0.090713,0.13531,0.036041
-0.10513,1.6671,-1.824,8.5906,0.049786,0.11057,0.0097738
-0.12646,1.9221,-1.8829,8.7279,0.031765,0.097738,-0.0082467
-0.16669,1.8633,-1.9417,8.7475,0.051924,0.094379,-0.019853
-0.20462,1.9221,-2.1575,8.7083,0.10263,0.10843,-0.030238
-0.23196,1.7064,-2.3732,8.6299,-0.079718,0.016799,-0.087354
-0.23596,1.824,-2.432,8.8456,-0.050396,0.036957,-0.10263
-0.22556,1.824,-2.6086,9.0221,-0.016188,0.072998,-0.031154
-0.23001,1.824,-2.3144,8.4926,0.010996,0.10934,-0.043371
-0.22089,1.824,-2.3732,8.218,0.028711,0.13195,-0.043371
-0.24149,2.0594,-2.6282,8.218,0.027794,0.13103,-0.043677
-0.26328,2.0594,-2.1967,8.5906,0.0082467,0.10965,-0.051618
-0.25681,2.2948,-2.1378,8.4337,-0.0094684,0.079718,-0.068417
-0.27078,2.0006,-1.9809,8.1787,-0.50824,-0.30421,-0.0082467
-0.3175,2.0006,-1.6475,8.218,-0.36438,-0.31582,-0.024435
-0.36746,1.7456,-1.4318,8.5514,-0.17685,-0.29199,-0.11026
-0.45526,1.3533,-1.5102,9.3555,-0.010996,-0.22571,-0.12553
-0.59338,1.3337,-2.0594,9.0417,0.075747,-0.12859,-0.13439
-0.72427,1.2356,-2.5105,9.0417,0.086437,-0.04215,-0.12095
-0.83426,0.66685,-3.0008,10.12,-0.53267,0.015272,-0.073915
-0.90268,1.3533,-2.432,10.611,-0.58399,0.034208,-0.025962
-0.97714,1.216,-1.5691,9.6497,-0.11484,0.030849,-0.076358
-0.99997,0.2942,-1.4122,8.8064,-0.15882,0.020464,-0.060781
-0.99997,0.25497,-2.1967,7.61,-0.1799,0.0024435,-0.048869
-0.99997,0.76492,-3.8246,8.4337,-0.18418,-0.0085521,-0.068417
-0.99997,2.0006,-3.8442,9.3752,-0.17623,-0.0033598,-0.068722
-0.99997,2.1182,-2.432,9.8459,-0.15394,0.022297,-0.065668
-0.99997,1.824,-1.471,9.8851,0.035736,0.064446,-0.076969
-0.96875,1.7064,-1.3533,10.12,-0.044899,0.10324,-0.083689
-0.90228,2.1575,-1.3533,9.9832,-0.51954,-0.27336,-0.03207
-0.83871,2.2751,-1.4318,9.4732,-0.28833,-0.24374,-0.036957
-0.76224,2.589,-1.0983,8.8064,0.059254,-0.14783,-0.10385
-0.67209,2.7851,-0.94144,8.2376,0.42394,0.0067195,-0.1744
-0.57123,2.4713,-1.6279,7.8649,0.67409,0.12859,-0.17013
-0.4491,2.3732,-2.4713,7.9238,0.76205,0.12675,-0.082772
-0.29221,2.687,-2.2948,8.1787,0.70921,0.067195,-0.0024435
-0.12485,2.1771,-2.1575,8.4141,0.61942,-0.01405,-0.0097738
0.011414,2.3732,-2.2555,8.6887,0.3204,-0.11545,-0.10812
0.13968,2.4517,-1.9613,8.5514,0.23702,-0.2025,-0.1069
0.23987,2.3732,-2.0594,8.4729,0.14661,-0.2697,-0.052534
0.30823,2.0006,-2.0006,8.1787,0.0073304,-0.29871,-0.07086
0.36148,2.2359,-1.9025,7.9238,-0.18295,-0.2981,-0.07025
0.3956,2.0202,-2.0594,8.3945,-0.37843,-0.29749,-0.069333
0.4202,1.9613,-2.432,9.0417,0.51862,-0.29963,-0.083994
0.42648,2.0006,-2.8243,9.2575,0.41814,-0.29719,-0.10201
0.42944,1.9613,-2.7262,9.0417,0.07025,0.0036652,0.046426
0.423,2.0202,-2.687,8.8848,0.14905,0.11087,0.086743
0.42047,1.8437,-2.0986,8.9633,0.13164,0.12614,-0.0033598
0.41006,1.9025,-2.2555,8.7475,0.083383,0.088575,-0.0067195
0.38553,1.824,-2.1182,9.0025,0.05284,0.02138,-0.025045
0.35965,1.7456,-2.0986,9.0613,0.029322,-0.060476,-0.028405
0.3609,1.9221,-2.1575,8.9044,0.01405,-0.13347,-0.0045815
0.34055,1.6867,-2.1967,8.7279,-0.022907,-0.18479,0.015272
0.33789,1.5298,-2.2555,8.7868,-0.058948,-0.23518,0.20922
0.33368,1.824,-2.1967,8.8456,-0.062003,-0.27306,0.17104
0.34189,2.0594,-1.9809,8.9437,-0.012217,-0.28039,0.098044
0.33798,1.7456,-2.0006,8.8064,0.11057,-0.24832,0.097433
0.33459,1.7064,-2.1967,8.8848,0.27519,-0.17318,0.09896
