-0.061951,3.2558,6.7274,7.2373,0.00030543,0.018021,-0.012828
-0.053436,3.3146,6.8058,7.3354,-0.007025,0.019242,-0.010079
-0.037445,3.0793,6.7862,7.1589,-0.022602,0.023213,-0.014661
-0.023376,3.2166,6.5312,7.1589,-0.037263,0.025045,-0.012828
-0.014221,3.0008,6.6489,7.3158,-0.047647,0.024435,-0.012523
-0.027588,3.2754,6.6881,7.3354,-0.05284,0.024129,-0.018021
-0.033569,3.3735,6.7274,7.3746,-0.048564,0.022297,-0.018021
-0.029175,3.2558,6.9431,7.2961,-0.036652,0.02138,-0.014661
-0.029236,2.942,6.8843,7.3158,0.01741,-0.015577,0.028405
-0.034454,3.1577,6.6685,7.1589,0.026573,-0.018631,0.02474
-0.040283,3.0008,6.6489,7.2373,0.017715,-0.010385,0.009163
-0.047638,3.2558,6.5901,7.3158,-0.0030543,-0.0024435,0.016799
-0.052582,3.1774,6.7862,7.3746,-0.027184,0.0051924,0.011301
-0.051941,3.1774,6.7862,7.3158,-0.04612,0.012523,0.007025
-0.070282,3.3146,6.8058,7.2373,-0.05284,0.014966,0.015272
-0.075653,2.9616,6.8254,7.3354,-0.046426,0.015272,0.025656
-0.08963,3.0793,6.7274,7.3158,-0.032376,0.010385,0.012828
-0.09436,3.2166,6.6489,7.1785,-0.011301,0.0051924,0.0036652
-0.10291,3.0793,6.7274,7.1196,0.0082467,0.0039706,0.022907
-0.11108,3.2558,6.8058,7.2961,0.018326,0.0033598,0.023213
-0.11096,3.2558,6.8843,7.2765,0.018326,0.0042761,0.026267
-0.092529,2.9616,6.8058,7.3158,0.010385,0.0048869,0.027184
-0.11557,3.3146,6.5901,7.2765,-0.00030543,0.007025,0.025962
-0.12769,3.2754,6.5116,7.2765,-0.013744,0.011301,0.021075
-0.11926,3.2166,6.7862,7.2765,-0.030543,0.012828,-0.0076358
-0.12448,3.1577,6.7274,7.2373,-0.042761,0.013439,-0.011301
-0.12466,3.1774,6.8254,7.2961,-0.04215,0.014661,-0.0015272
-0.11658,3.2558,6.6489,7.2373,-0.035125,0.014355,-0.0009163
-0.11719,3.0008,6.6881,7.2177,-0.022907,0.015577,-0.0033598
-0.11646,3.2558,6.6489,7.3354,-0.0054978,0.015882,-0.0067195
-0.11197,3.1774,6.7274,7.2765,0.0054978,0.015882,-0.0061087
-0.104,3.2166,6.7274,7.2373,0.0061087,0.017104,-0.0051924
-0.11435,3.0793,6.747,7.1785,-0.016188,0.013134,-0.025045
-0.095703,3.0793,6.7862,7.3746,-0.023518,0.01069,-0.023518
-0.08078,3.3146,6.6881,7.3158,-0.028711,0.0094684,-0.011606
-0.086395,3.1185,6.7274,7.2373,-0.031765,0.0030543,-0.016493
-0.077759,3.2166,6.7274,7.2373,-0.031154,-0.0030543,-0.018631
-0.079559,3.2558,6.8058,7.3158,-0.028405,-0.0045815,-0.020464
-0.083374,3.3146,6.7862,7.3158,-0.025962,-0.0064141,-0.021686
-0.09079,3.3146,6.8058,7.3158,-0.024435,-0.0061087,-0.023824
-0.086792,3.2754,6.6489,7.2373,-0.023213,-0.0036652,0.013744
-0.093994,3.2558,6.7274,7.3354,-0.022602,0.00061087,0.016493
-0.10391,3.1185,6.8254,7.3158,-0.020464,0.0015272,-0.019242
-0.093933,3.2166,6.7862,7.2373,-0.015577,0.0009163,-0.016188
-0.090912,3.0793,6.7274,7.1589,-0.012217,0,-0.015882
-0.092865,3.2558,6.8058,7.3746,-0.0085521,0.0036652,-0.012217
-0.077301,3.0008,6.7862,7.3354,-0.0012217,0.0067195,-0.0039706
-0.084473,3.1577,6.747,7.2961,0.0051924,0.0088575,0.0064141
-0.083099,3.0204,6.7274,7.3746,0.0076358,0.011912,0.025351
-0.075531,3.0793,6.7274,7.2373,0.0030543,0.015272,0.025351
-0.075592,2.9616,6.6881,7.3158,-0.0061087,0.012828,0.017715
-0.076202,3.0597,6.8058,7.3354,-0.013439,0.010996,0.018631
-0.072449,3.0204,6.8058,7.3158,-0.019242,0.01069,0.021075
-0.084839,3.0793,6.6881,7.3158,-0.022907,0.0088575,0.024129
-0.083069,3.2166,6.7862,7.2373,-0.025045,0.0048869,0.023213
-0.095886,3.2558,6.5901,7.2373,-0.022602,0.0030543,0.023824
-0.10886,3.2362,6.7862,7.2961,-0.015882,0.0024435,0.010996
-0.10059,3.2558,6.7862,7.2961,-0.01069,-0.00030543,0.0097738
-0.10529,3.3343,6.7274,7.2765,-0.0058032,0.0009163,0.025351
-0.11057,3.2362,6.7274,7.1589,-0.0012217,0.0012217,0.025045
-0.1073,3.0204,6.6881,7.3158,0.0012217,0.0024435,0.022602
-0.10495,3.2558,6.5705,7.2373,-0.0024435,0.0024435,0.019242
-0.11359,3.2754,6.747,7.3158,-0.0045815,0.0039706,0.01741
-0.11606,3.3146,6.7274,7.2177,-0.0058032,0.0064141,0.014355
-0.10846,3.3146,6.7274,7.2373,-0.011301,0.0033598,-0.0030543
-0.10416,3.3735,6.8058,7.2765,-0.016188,0.00030543,0.0018326
-0.093811,3.1774,6.8058,7.1785,-0.022297,0.002138,-0.015272
-0.072205,3.0793,6.8058,7.3158,-0.022602,0.0048869,-0.013439
-0.057892,3.2558,6.8058,7.3158,-0.020769,0.0036652,-0.011606
-0.049744,3.1185,6.8058,7.2373,-0.014966,0.002138,-0.010079
-0.057892,3.3735,6.6489,7.1589,-0.007025,0.0015272,-0.0088575
-0.046753,3.2558,6.7862,7.2373,0.0009163,0.0015272,-0.0054978
-0.046021,3.0597,6.7274,7.3158,0.0076358,0.0042761,0.0082467
-0.043152,3.1774,6.7274,7.2961,0.00030543,0.010996,0.0073304
-0.04953,3.1185,6.8254,7.2373,-0.0082467,0.018021,0.007025
-0.047211,3.0989,6.7862,7.3158,-0.017715,0.025351,0.01069
-0.051727,3.1185,6.7274,7.1589,-0.029932,0.03207,0.012828
-0.052521,3.2558,6.8058,7.2373,-0.03879,0.036041,0.012217
-0.068237,3.2754,6.8058,7.2373,0.010385,0.036652,0.009163
-0.066681,3.2558,6.6685,7.1589,0.012217,0.035736,0.007025
-0.066589,3.1774,6.747,7.1589,-0.054367,0.03207,-0.024435
-0.063599,3.2166,6.8058,7.2373,-0.044593,0.028405,-0.028405
-0.071014,3.3539,6.6293,7.1589,-0.029627,0.02138,0.0048869
-0.070892,3.2558,6.8254,7.2373,-0.018021,0.017715,0.0018326
-0.070984,3.2362,6.8254,7.2373,-0.016188,0.016799,-0.0015272
-0.078674,3.2754,6.7862,7.1589,-0.020159,0.015577,-0.007025
-0.091675,3.2558,6.9039,7.1589,-0.045509,0.015577,-0.017104
-0.0979,3.2362,6.8254,7.1392,-0.054672,0.015882,-0.023213
-0.10513,3.1185,6.7862,7.2373,-0.034514,0.016493,-0.023213
-0.11386,3.3735,6.6489,7.2765,-0.041233,0.014966,-0.021991
-0.1123,3.0008,6.8058,7.3158,-0.043982,0.020464,-0.029627
-0.10898,3.2166,6.8058,7.1589,-0.041539,0.028405,-0.028711
-0.11432,3.1185,6.8058,7.1589,-0.036346,0.032987,-0.029322
-0.10727,3.3735,6.7862,7.3354,-0.030238,0.036041,-0.030238
-0.087433,3.1774,6.747,7.2765,-0.023213,0.036957,-0.028405
-0.089233,3.0989,6.7274,7.1589,-0.026573,0.039401,-0.025351
-0.078827,3.1774,6.6881,7.2373,0.0094684,0.030849,0.012523
-0.054962,2.8635,6.8058,7.4334,0.0079412,0.036041,0.0051924
-0.031494,3.3343,6.7862,7.3354,0.0054978,0.043982,-0.018326
-0.017914,3.1774,6.7274,7.1589,0.0039706,0.050396,-0.013134
-0.010315,3.1577,6.8058,7.2765,0.0045815,0.054672,-0.007025
-0.0099182,3.1185,6.6881,7.2373,0.0076358,0.054062,-0.0012217
-0.00097656,3.3146,6.6489,7.2373,0.0030543,0.054978,0.0073304
0.002655,3.3735,6.6685,7.3158,0.0012217,0.051313,0.015882
-0.015778,3.3931,6.9039,7.3158,-0.00030543,0.044899,-0.019548
-0.028473,3.2558,6.8058,7.2373,-0.002138,0.034514,-0.024129
-0.042755,3.4127,6.8058,7.2373,-0.0076358,0.029627,0.0073304
-0.063202,3.0008,6.8058,7.2961,-0.012828,0.025045,0.012217
-0.084625,2.9616,6.6489,7.2765,-0.019548,0.017715,0.0039706
-0.11554,3.1185,6.7274,7.1589,-0.027794,0.014355,-0.011301
-0.11856,3.1774,6.7274,7.3158,-0.030849,0.012523,-0.01741
-0.12994,3.4716,6.6685,7.3158,-0.03146,0.014355,-0.017104
-0.13083,3.2754,6.6685,7.2373,-0.031765,0.011606,-0.002138
-0.14185,3.4127,6.6685,7.2373,-0.025045,0.0067195,0.0097738
-0.13495,3.3931,6.7274,7.2961,-0.013134,0.01069,-0.026573
-0.13217,3.0793,6.7274,7.3158,-0.0015272,0.013134,-0.022907
-0.12653,3.2362,6.6489,7.2373,0.0045815,0.014966,-0.018937
-0.12076,3.1774,6.6881,7.1589,0.0036652,0.015882,-0.013439
-0.1109,3.0793,6.8058,7.1589,0.0036652,0.013439,-0.0076358
-0.10397,3.3146,6.845,7.1785,-0.0009163,0.013134,-0.0088575
-0.10867,3.2166,6.7274,7.3354,-0.040317,0.0073304,-0.027489
-0.096802,3.1774,6.7274,7.3158,-0.035736,0.0039706,-0.023213
-0.090973,3.2166,6.6489,7.2373,-0.029627,-0.0015272,-0.0045815
-0.089874,3.2362,6.6881,7.2373,-0.022907,-0.002138,-0.0097738
-0.090698,3.1774,6.6881,7.2177,-0.017104,0.00061087,-0.01405
-0.10199,3.2754,6.6881,7.2177,-0.0085521,0.0067195,-0.020769
-0.11615,2.9616,6.8058,7.3158,0.0033598,0.014966,-0.027184
-0.12173,3.0008,6.845,7.3158,0.0094684,0.022907,-0.030238
-0.1351,3.0597,6.7274,7.3158,-0.031765,0.007025,0.019853
-0.13257,3.2362,6.7274,7.3354,-0.029322,0.011606,0.018021
-0.12,3.2558,6.6685,7.2765,-0.022907,0.013439,0.0036652
-0.12015,3.3146,6.8058,7.3158,-0.013134,0.015272,0.0094684
-0.12347,3.2166,6.8058,7.1785,-0.0048869,0.018631,0.012523
-0.12378,3.3931,6.845,7.2765,0.0042761,0.021075,0.015272
-0.13055,3.2558,6.8058,7.1589,-0.025962,0.020159,0.018937
-0.099518,3.1774,6.7274,7.2373,-0.029932,0.020159,0.021991
-0.1167,3.2362,6.7862,7.1785,0.010079,0.02138,-0.011606
-0.11749,3.3931,6.6685,7.2373,0.0024435,0.023518,-0.013439
-0.11444,3.2166,6.845,7.2373,-0.0067195,0.021686,0.015882
-0.10199,3.2558,6.8058,7.2373,-0.01741,0.020159,0.011606
-0.099854,3.3146,6.6685,7.2373,-0.028405,0.02138,0.0048869
-0.097168,3.2754,6.8058,7.2961,-0.038179,0.020464,0.0033598
-0.093353,3.1577,6.7274,7.2765,0.012523,0.018021,-0.00030543
-0.099792,3.3146,6.7274,7.1785,0.013134,0.018631,-0.0085521
-0.10291,3.1185,6.8254,7.1785,-0.029627,0.013134,-0.0030543
-0.0979,3.0989,6.7862,7.2373,-0.027794,0.01741,-0.0015272
-0.10541,3.3343,6.7274,7.2373,-0.020769,0.01405,-0.0048869
-0.099426,3.0793,6.8058,7.3354,-0.012217,0.0097738,-0.0054978
-0.10162,3.2754,6.7862,7.2373,-0.009163,0.009163,-0.0039706
-0.11154,3.3146,6.6293,7.2765,-0.0076358,0.011912,-0.00030543
-0.10797,3.2558,6.6881,7.2177,-0.010079,0.011912,0.002138
-0.11746,3.1774,6.7274,7.2373,-0.017104,0.012217,-0.0012217
-0.13608,3.1774,6.8058,7.2373,-0.033903,0.010996,-0.0036652
-0.16013,3.2558,6.8058,7.2373,-0.034514,0.0073304,-0.00061087
-0.16223,3.2558,6.8843,7.2177,-0.032376,0.0076358,-0.0039706
-0.15955,3.2558,6.845,7.2765,-0.028711,0.0051924,-0.0085521
-0.15555,3.0793,6.8254,7.3354,-0.027489,0.0012217,-0.010996
-0.15637,3.1774,6.6881,7.2961,-0.025962,-0.00061087,-0.010996
-0.15317,3.1774,6.7274,7.2373,-0.026267,0,-0.0094684
-0.14304,3.0989,6.6881,7.2177,-0.032987,0.0027489,-0.0058032
-0.13269,3.0008,6.7862,7.3158,-0.0048869,0.012217,0.0042761
-0.11368,3.2362,6.7862,7.3354,-0.0082467,0.018021,0.0036652
-0.092926,3.3146,6.7274,7.1785,-0.0094684,0.021075,0.013744
-0.074982,3.3146,6.7862,7.2373,-0.011912,0.018021,0.012217
-0.072998,3.1185,6.747,7.1589,-0.012217,0.018326,0.0079412
-0.072205,3.3146,6.6881,7.2177,-0.009163,0.017104,0.0079412
-0.06723,3.2558,6.8058,7.2177,-0.0033598,0.016188,0.0076358
-0.057587,2.9616,6.8254,7.3158,0.0033598,0.016799,0.0064141
-0.070374,3.3146,6.6685,7.1785,-0.018631,0.015577,-0.0082467
-0.051483,3.3735,6.5901,7.2765,0.0024435,0.012217,-0.0064141
-0.041229,3.2362,6.8058,7.2373,0.002138,0.012217,-0.0018326
-0.056458,3.1774,6.7274,7.1589,-0.0015272,0.013134,-0.0064141
-0.056152,3.2362,6.8058,7.2961,-0.009163,0.015577,-0.0088575
-0.056732,3.2558,6.6881,7.2765,-0.016493,0.01741,-0.010996
-0.059113,3.1774,6.6685,7.2765,-0.02138,0.016493,-0.0097738
-0.072662,3.1774,6.7274,7.1589,-0.020464,0.015882,-0.0097738
-0.077087,3.1185,6.8058,7.1785,-0.0024435,0.018937,0.01741
-0.080292,3.1185,6.8058,7.2373,-0.00061087,0.017715,0.015882
-0.10239,3.3735,6.7862,7.1785,0.0036652,0.017715,0.0082467
-0.079407,3.2362,6.8058,7.2373,0.0082467,0.018631,0.013134
-0.077759,3.2558,6.7862,7.2177,0.0082467,0.01741,0.017715
-0.077667,3.1774,6.8058,7.2373,0.0073304,0.018326,0.020769
-0.088562,3.0204,6.8058,7.2765,0.0061087,0.019548,0.02138
-0.092712,3.2754,6.845,7.2373,0.0036652,0.018326,0.019853
-0.09903,3.1577,6.8058,7.1589,0.0033598,0.018631,0.0048869
-0.10553,3.0793,6.8058,7.3158,0.0027489,0.016799,0.0076358
-0.10773,3.3146,6.7274,7.1589,-0.0024435,0.015882,0.015882
-0.10776,3.2558,6.8058,7.2373,-0.0048869,0.015882,0.015882
-0.11661,3.1774,6.8058,7.1785,-0.0064141,0.012217,0.012523
-0.1084,3.2558,6.8058,7.1589,-0.0058032,0.01069,0.0064141
-0.10532,3.3146,6.7862,7.2373,-0.0015272,0.011912,0.0048869
-0.098572,3.0204,6.8058,7.3158,-0.00061087,0.011606,0.0073304
-0.10147,3.0597,6.8058,7.2961,-0.011912,0.0036652,0.0033598
-0.091522,3.0793,6.7274,7.2373,-0.011301,0.0030543,0.0018326
-0.065796,3.3146,6.7274,7.2961,-0.009163,0.0015272,0.0088575
-0.051941,3.2558,6.8058,7.1196,-0.0054978,-0.0009163,0.0076358
-0.042358,3.3931,6.7274,7.2373,0.0012217,-0.0030543,0.0048869
-0.040314,3.3146,6.8254,7.1785,0.011912,-0.0048869,0.0042761
-0.038971,3.3343,6.8254,7.2373,-0.0085521,-0.0054978,0.0064141
-0.050293,3.2558,6.7274,7.1589,-0.013439,-0.0045815,0.0064141
-0.048462,3.2558,6.8058,7.1589,0.0097738,0.013439,-0.016493
-0.048187,3.3146,6.7274,7.1589,-0.0009163,0.014355,-0.015882
-0.0578,3.2754,6.8058,7.2373,0.0009163,0.010079,-0.014966
-0.061462,3.0793,6.8058,7.3158,0.0048869,0.01069,-0.017715
-0.071594,3.3931,6.7862,7.3158,-0.0018326,0.012828,-0.018937
-0.075867,3.0793,6.8058,7.1589,-0.010996,0.013439,-0.013744
-0.084595,3.2754,6.845,7.2373,-0.016188,0.016799,-0.01069
-0.076141,3.2558,6.8843,7.1785,-0.016188,0.018631,-0.014355
-0.086945,3.2558,6.8058,7.1785,-0.0085521,0.019242,-0.0015272
-0.076477,3.3735,6.7274,7.2373,-0.0082467,0.016493,0.0033598
-0.083313,3.3735,6.8058,7.1785,-0.012523,0.017104,-0.012523
-0.08139,3.0793,6.8058,7.2177,-0.015272,0.016799,-0.01069
-0.087006,3.1774,6.8058,7.1589,-0.018326,0.013744,-0.01069
-0.085876,2.942,6.9039,7.2961,-0.019548,0.010996,-0.0079412
-0.090607,3.1774,6.8058,7.1589,-0.013439,0.010385,-0.0061087
-0.10687,3.2754,6.8254,7.2373,-0.010996,0.011606,-0.0039706
-0.11182,3.1185,6.8058,7.0608,-0.017104,0.011912,0.010385
-0.1116,3.3146,6.8058,7.1589,-0.012217,0.016188,0.01069
-0.11655,3.3146,6.8058,7.1785,-0.0054978,0.014661,0.0085521
-0.108,3.3735,6.845,7.2765,0.0009163,0.011606,0.012828
-0.099731,3.3146,6.6881,7.2177,-0.00030543,0.0073304,0.011912
-0.096924,3.3146,6.8254,7.1785,-0.0036652,0.0058032,0.0094684
-0.093109,3.2362,6.747,7.1589,-0.019853,0.0045815,0.010079
-0.085846,3.1774,6.8058,7.0804,-0.019242,0.0024435,0.010996
-0.083862,3.1185,6.8058,7.2373,0.0054978,0.025656,0.039401
-0.058289,3.0597,6.9039,7.3158,0.01405,0.024435,0.041539
-0.04538,3.1577,6.8058,7.2961,0.016799,0.025962,0.03146
-0.035767,3.3931,6.8058,7.1392,0.019242,0.028405,0.032681
-0.032776,3.3343,6.6685,7.1589,0.020159,0.027489,0.034819
-0.028564,3.2362,6.8058,7.1589,0.018326,0.0281,0.037263
-0.030762,3.2754,6.7862,7.1392,0.012217,0.0281,0.035736
-0.041107,3.1774,6.8058,7.1392,0.002138,0.027794,0.036346
-0.031799,3.3735,6.845,7.1785,-0.0076358,0.026573,0.054062
-0.030884,3.1185,6.845,7.2961,-0.017104,0.025656,0.052229
-0.024292,3.4127,6.8254,7.1785,-0.031154,0.0281,0.043982
-0.028107,3.2558,6.8058,7.1589,-0.032987,0.025045,0.045509
-0.031738,3.1774,6.8058,7.1589,-0.028405,0.023518,0.045509
-0.027924,3.2754,6.7862,7.1785,-0.02474,0.027184,0.049786
-0.022583,3.0597,6.9039,7.2765,-0.018326,0.027489,0.052534
-0.025696,3.2362,6.9039,7.0608,-0.013439,0.025656,0.052534
-0.037231,3.4127,6.845,7.1196,-0.010996,0.025045,0.022602
-0.028442,3.3931,6.8254,7.1589,-0.0082467,0.023518,0.016493
-0.024445,3.2754,6.8058,7.1392,-0.0082467,0.022907,0.049175
-0.025635,3.4127,6.8058,7.1785,-0.012217,0.023213,0.045815
-0.032806,3.4127,6.7274,7.1392,-0.015882,0.022602,0.039706
-0.023438,3.4127,6.7862,7.1589,-0.017715,0.022602,0.033292
-0.035065,3.1185,6.8254,7.2765,-0.019853,0.020464,0.027794
-0.055054,3.1577,6.845,7.1785,-0.022297,0.01741,0.026573
-0.061523,3.1774,6.8254,7.1589,-0.021991,0.015272,-0.02474
-0.075165,3.0793,6.8058,7.2177,-0.017104,0.015882,-0.030238
-0.082458,3.3931,6.7862,7.1392,-0.012217,0.015272,0.011912
-0.093933,3.2558,6.845,7.1589,-0.011301,0.016188,0.010079
-0.10449,3.4716,6.747,7.1589,-0.013134,0.016799,0.0058032
-0.10342,3.4323,6.7862,7.2373,-0.017104,0.015882,-0.0018326
-0.1015,3.3146,6.7862,7.1589,-0.020769,0.014661,-0.0085521
-0.10007,3.4127,6.7274,7.1392,-0.020769,0.012217,-0.016188
-0.084106,3.0597,6.9039,7.1589,-0.0054978,0.015272,0.014355
-0.07196,3.2362,6.8843,7.1589,-0.0042761,0.018937,0.009163
-0.058258,3.2558,6.8058,7.1392,-0.0027489,0.022907,0.019242
-0.042389,3.3931,6.8058,7.2373,-0.0045815,0.025962,0.022297
-0.041321,3.3931,6.7862,7.1589,-0.0058032,0.028405,0.026267
-0.039734,3.1774,6.7862,7.2765,-0.0036652,0.027489,0.026267
-0.036255,3.4323,6.747,7.2373,-0.0018326,0.025045,0.024435
-0.035034,3.0793,6.845,7.2765,-0.0058032,0.019853,0.021075
-0.037292,3.3146,6.845,7.1589,-0.01405,0.01741,-0.044593
-0.048065,3.3735,6.6881,7.1392,-0.018326,0.014966,-0.051618
-0.066162,3.2754,6.8058,7.0804,-0.024129,0.0097738,0.0012217
-0.073425,3.2166,6.8058,7.2373,-0.03207,0.0073304,-0.0067195
-0.078461,3.3146,6.8058,7.2373,-0.043677,0.0076358,-0.012523
-0.072601,3.2558,6.7274,7.0608,-0.050702,0.0076358,-0.022907
-0.079163,3.3735,6.7274,7.1392,-0.0094684,0.0082467,-0.032376
-0.079529,3.4127,6.7274,7.0804,-0.011301,0.011606,-0.039706
-0.078979,3.4912,6.8058,7.1785,-0.039401,0.015272,-0.050702
-0.074463,3.1185,6.8843,7.3158,-0.019242,0.019853,-0.059254
-0.071259,3.3146,6.8058,7.1589,0.0012217,0.021075,-0.055894
-0.070679,3.1774,6.8254,7.2373,0.015272,0.020464,-0.053756
-0.071381,3.3146,6.8058,7.1392,0.018631,0.023213,-0.052534
-0.070923,3.4323,6.9039,7.1589,0.011912,0.025045,-0.051007
-0.077576,3.4912,6.8843,7.2373,-0.053756,0.02474,-0.046731
-0.077301,3.4127,6.8254,7.1589,-0.050396,0.024129,-0.045509
-0.08252,3.4127,6.845,7.2177,-0.013134,-0.0027489,0.012217
-0.09024,3.3931,6.6685,7.2177,-0.018631,-0.0033598,0.016493
-0.10239,3.0793,6.7862,7.2373,-0.025351,-0.0009163,0.00061087
-0.11273,3.3146,6.8058,7.1392,-0.026878,0.0012217,0.0036652
-0.11844,3.2362,6.9431,7.1589,-0.024435,0.0036652,0.0036652
-0.12921,3.3146,6.8254,7.1589,-0.018021,0.0064141,0.0015272
-0.12762,3.4127,6.8058,7.2177,-0.011301,0.010079,0.0015272
-0.11121,3.0597,6.845,7.2373,-0.007025,0.013744,0.0067195
-0.10718,3.3146,6.8058,7.0804,-0.0045815,0.027794,0.0061087
-0.095581,3.2558,6.845,7.2177,0.0076358,0.029627,0.0039706
-0.069092,3.2166,6.845,7.1392,0.01741,0.030238,-0.0012217
-0.055939,3.2558,6.9039,7.1589,0.018326,0.030543,0.0030543
-0.034698,3.4716,6.845,7.2373,0.0073304,0.029322,0.0048869
-0.045135,3.3735,6.8254,7.1589,-0.012523,0.03146,0.0045815
-0.046753,3.4912,6.6489,7.1589,-0.03146,0.035736,0.0064141
-0.043671,3.2754,6.7274,7.1589,-0.03879,0.03879,0.0085521
-0.035583,3.2558,6.747,7.2373,-0.032987,0.039095,-0.014966
-0.052063,3.3539,6.845,7.1392,-0.016493,0.040317,-0.021991
-0.052399,3.3146,6.8058,7.1196,0.0027489,0.041233,0.0027489
-0.062012,3.2558,6.8254,7.1589,0.014966,0.039401,-0.00030543
-0.063477,3.2558,6.7862,7.1589,0.019242,0.036957,-0.0024435
-0.072357,3.3735,6.8058,7.1589,0.018937,0.033598,-0.0036652
-0.074707,3.2558,6.8058,7.1392,0.018937,0.032376,-0.0045815
-0.072388,3.2166,6.9039,7.2373,0.016799,0.034514,-0.0076358
-0.076996,3.1774,6.9039,7.2961,0.0088575,0.036346,-0.030849
-0.076416,3.5304,6.7274,7.2177,-0.0064141,0.039401,-0.026573
-0.064209,3.2558,6.6881,7.2373,-0.019548,0.036041,-0.025656
-0.058441,3.3931,6.6685,7.1589,-0.027489,0.032376,-0.029016
-0.049133,3.4127,6.7274,7.1392,-0.03207,0.030238,-0.032681
-0.054871,3.2558,6.8254,7.2961,-0.030238,0.02474,-0.035736
-0.049561,3.2166,6.9039,7.2961,-0.023213,0.016799,-0.039706
-0.044586,3.2166,6.7274,7.2177,-0.015272,0.0079412,-0.037874
-0.042511,3.2558,6.6685,7.0216,0.0058032,0.0064141,-0.0009163
-0.045166,3.3931,6.8254,7.1392,-0.0018326,0.0073304,-0.0015272
-0.053314,3.2166,6.8843,7.2373,-0.015272,0.012217,0.018937
-0.057953,3.4127,6.8254,7.1589,-0.029627,0.01741,0.01741
-0.063049,3.4323,6.845,7.1589,-0.040623,0.020464,0.014966
-0.053986,3.2754,6.845,7.1392,-0.039401,0.024129,0.0097738
-0.050659,3.3343,6.8058,7.1392,-0.029932,0.025656,0.0036652
-0.042145,3.2558,6.9039,7.1589,-0.017104,0.026878,-0.00061087
-0.049408,3.3735,6.8058,7.2177,0.029016,0.0073304,-0.043982
-0.025391,3.2754,6.8058,7.2177,0.024435,0.0094684,-0.047647
-0.005127,3.2558,6.8254,7.1589,0.020159,0.0088575,0.02138
0.0089722,3.3146,6.8843,7.1589,0.018631,0.0054978,0.01405
0.0052795,3.1185,6.9039,7.3158,0.018631,0.0030543,0.0036652
0.0032349,3.3146,6.9039,7.1589,0.016188,-0.0048869,-0.0094684
-0.0025635,3.2558,6.845,7.1196,0.036041,-0.01741,-0.023518
-0.0010376,3.3735,6.9039,7.1589,0.03207,-0.029627,-0.034819
0.0096436,3.0008,6.8254,7.2373,-0.018021,-0.036652,-0.011301
0.014679,3.2166,6.8254,7.1589,-0.030849,-0.034819,0.010996
0.012146,3.0793,6.9039,7.2765,-0.03879,-0.034514,-0.047342
0.016144,3.0793,6.8254,7.0019,-0.043982,-0.033292,-0.047342
0.02829,2.9616,6.9627,7.2373,-0.045815,-0.03207,-0.050091
0.032837,3.0793,6.9431,7.2961,-0.041844,-0.031154,-0.050091
0.03244,3.1774,6.8254,7.2177,0.009163,-0.031154,-0.044593
0.037537,3.0008,6.7274,7.0608,-0.0030543,-0.029627,-0.03146
0.035309,2.9616,6.8058,7.2177,-0.055589,-0.021991,0.067806
0.035492,3.1774,6.7862,7.1392,-0.060476,-0.018326,0.076969
0.029816,3.2166,6.8058,7.1785,-0.064446,-0.015577,0.01069
0.051117,3.4127,6.6489,7.1589,-0.06017,-0.012523,0.016188
0.062439,3.3735,6.8058,7.1785,-0.050091,-0.0079412,0.023213
0.070557,3.3146,6.8058,7.1589,-0.037874,-0.0054978,0.036041
0.072083,3.3146,6.8254,7.1589,-0.027489,-0.0061087,0.049175
0.081787,3.4912,6.9039,7.3158,-0.01741,-0.007025,0.059559
0.087402,3.2362,6.8058,7.2373,-0.00061087,-0.0058032,0.03879
0.098785,3.2558,6.845,7.1196,0.0036652,-0.0036652,0.028405
0.10806,3.1185,6.9039,7.1785,0.013134,0,0.080023
0.10919,3.4127,6.9627,7.1589,0.023518,0.0018326,0.078496
0.11383,3.1185,6.9431,7.2373,0.031154,0.0033598,0.075442
0.11584,3.1774,6.747,7.0608,0.036041,0.0064141,0.066584
0.10684,3.2754,6.6685,7.1392,-0.01069,0.0073304,0.055589
0.10321,3.3735,6.7862,7.1392,-0.0036652,0.0067195,0.045815
0.085785,3.0597,6.8058,7.2373,-0.0082467,0.010079,0.018021
0.087189,3.1185,6.8843,7.2373,0.009163,0.018937,0.024129
0.088379,3.2166,6.845,7.0608,0.02138,0.025045,-0.023824
0.088654,3.3931,6.8843,7.1196,0.029016,0.031765,-0.012523
0.095978,3.4127,6.8058,7.2961,0.029016,0.037568,-0.0027489
0.097015,3.6481,6.7862,7.1196,0.022297,0.043066,0.0048869
0.07959,3.4323,6.9039,7.0804,0.016493,0.046426,0.010385
0.07724,3.3146,7.1589,7.0608,0.010996,0.048869,0.01405
0.077576,3.2166,6.9823,7.0019,0.064752,0.0061087,0.018631
0.087128,3.4127,6.8058,7.1589,0.080023,0.0030543,0.024129
0.098358,3.1577,6.7274,7.1589,0.083078,0.010996,-0.030238
0.11731,3.2166,6.7274,7.1785,0.077885,0.021686,-0.018021
0.13522,3.2558,6.8058,7.1785,0.062003,0.029627,-0.0076358
0.14767,3.4127,6.9823,7.1589,0.036652,0.037263,0
0.16162,3.5696,6.9627,7.0608,0.010996,0.047037,0.0097738
0.17099,3.4716,6.9823,7.0804,-0.010996,0.055589,0.016799
0.18524,3.4127,6.7274,7.0019,-0.021075,0.060781,0.026878
0.18448,3.2754,6.8843,7.1196,-0.01741,0.062614,0.019853
0.16464,3.2754,6.9039,7.0608,0.0012217,0.057421,0.0281
0.1655,3.2362,6.9039,6.9627,0.025045,0.048869,0.027489
0.17453,3.2558,7.0412,7.1785,0.043982,0.040317,0.027184
0.17371,3.3735,6.9039,6.845,0.054062,0.030238,0.029627
0.16245,3.2754,7.0019,7.0608,0.054672,0.021686,0.030543
0.17676,3.5304,7.1392,7.1196,0.041539,0.017104,0.029322
0.1745,3.1774,6.9627,7.1392,0.0018326,0.012217,-0.017715
0.1691,3.4127,6.8058,7.0608,-0.0067195,0.0067195,-0.026878
0.16904,3.2362,6.9039,7.1392,0.025962,-0.0039706,-0.0015272
0.17679,3.4127,6.9823,7.0216,0.041844,-0.0076358,-0.012828
0.18857,3.3146,7.0412,7.0019,0.0281,-0.0073304,-0.0048869
0.1853,3.4912,6.9039,6.9823,0.011606,-0.0036652,0.0024435
0.19312,3.4912,6.9627,7.0019,-0.0079412,0.0018326,0.002138
0.19949,3.4716,6.9823,7.0216,-0.018021,0.0051924,-0.0051924
0.20944,3.1774,6.9431,7.1589,-0.021991,-0.017104,-0.0079412
0.22803,3.4127,6.9627,7.0019,-0.007025,-0.014966,-0.012828
0.2561,3.4127,6.9627,7.0608,0.0045815,-0.010079,-0.027184
0.27805,3.3146,6.9039,7.0019,0.012523,-0.0033598,-0.023213
0.28644,3.4127,6.8058,7.0608,-0.007025,0.011606,-0.0088575
0.2908,3.1774,6.9627,7.0804,-0.0088575,0.010079,-0.0094684
0.29578,3.3343,7.0412,7.0216,-0.015272,0.0094684,-0.0085521
0.29651,3.3146,7.0412,7.0019,-0.023824,0.010996,-0.0048869
0.28772,3.2558,6.9627,6.9627,-0.0027489,0.019242,-0.021686
0.29495,3.0989,6.9627,7.1392,-0.009163,0.015882,-0.018021
0.27591,3.2166,6.8843,7.1589,-0.012217,0.011606,-0.013744
0.27533,3.3735,6.9039,7.0608,-0.013134,0.007025,-0.015577
0.27145,3.4912,6.8254,7.0608,-0.019242,0.0027489,-0.018631
0.25928,3.4127,7.0412,7.0608,-0.03207,-0.0033598,-0.020159
0.25528,3.2558,6.9627,7.0608,-0.045815,-0.0073304,-0.019548
0.25186,3.2166,6.9627,7.1392,-0.058643,-0.010996,-0.021686
0.23486,3.3931,6.845,6.9627,-0.054062,-0.010079,-0.0073304
0.21332,3.4127,7.0412,7.0019,-0.038485,-0.0033598,-0.0045815
0.2121,3.4127,6.9823,7.0019,-0.0281,-0.00030543,-0.012217
0.21207,3.1774,6.9823,7.1196,-0.021686,0.0036652,-0.0073304
0.20642,3.3931,6.8058,7.0608,-0.018021,0.010385,-0.0051924
0.21201,3.5304,6.8058,7.0608,-0.016493,0.014966,-0.0058032
0.22009,3.4912,6.9431,7.1392,-0.067501,0.019242,-0.01069
0.22733,3.3931,6.9431,6.9823,-0.066279,0.025351,-0.012217
0.22775,3.4127,6.7862,6.9823,-0.015577,0.0281,-0.0039706
0.22949,3.4127,6.9627,7.0019,-0.015577,0.027489,-0.009163
0.23453,3.3146,6.9627,7.0804,-0.01405,0.029016,-0.0027489
0.22971,3.3146,6.9627,7.0608,-0.017104,0.029016,0.0009163
0.22763,3.4127,6.9039,7.0608,-0.022602,0.025656,0.00061087
0.22067,3.4323,6.9823,7.0608,-0.021686,0.020159,-0.0012217
0.21008,3.1185,6.9627,7.1196,-0.016493,0.018937,-0.0039706
0.20084,3.2166,6.9627,7.0608,-0.017104,0.020464,-0.0039706
0.19174,3.2754,6.9823,7.0608,-0.02474,-0.0076358,-0.02138
0.18622,3.0008,6.9627,7.1785,-0.030238,-0.013744,-0.013134
0.19879,3.1774,6.9039,7.1392,-0.030543,-0.015882,-0.055589
0.19547,3.2166,6.8254,7.0608,-0.020159,-0.015272,-0.04948
0.19641,3.2754,6.8058,7.1196,-0.0094684,-0.012828,-0.041233
0.1926,3.4127,6.9627,7.0216,-0.002138,-0.0088575,-0.034514
0.18695,3.55,6.8254,7.0019,0.0039706,-0.0088575,-0.029322
0.1893,3.4127,6.9823,7.0216,0.0061087,-0.010385,-0.025656
0.17633,3.2754,6.9039,6.9823,-0.0012217,-0.012217,0.034208
0.16278,3.2558,6.9431,7.0019,-0.013744,-0.011301,0.040928
0.16943,3.4127,6.8843,7.0019,-0.028405,-0.011301,-0.0051924
0.16113,3.4323,6.9627,7.0019,-0.04612,-0.0088575,0.0036652
0.15164,3.1774,6.9627,7.1589,-0.058643,-0.0030543,0.012217
0.14954,3.3343,6.9627,7.0608,-0.064141,0.0018326,0.017104
0.14502,3.2558,6.9431,7.0216,-0.062614,0.0045815,0.025351
0.14215,3.3146,6.9039,7.0019,-0.054672,0.0039706,0.030849
0.15274,3.3735,6.9627,7.0804,-0.04612,0.0051924,0.049786
0.14517,3.4127,6.9039,7.0019,-0.041539,0.0085521,0.040012
0.1405,3.2558,6.9039,7.0608,-0.039095,0.0073304,0.048258
0.13138,3.2754,7.0019,6.9235,-0.039401,0.010079,0.054062
0.12994,3.2558,6.9823,7.0216,-0.041844,0.01741,0.058338
0.13208,3.3146,6.9627,7.1196,-0.042455,0.022907,0.060476
0.11984,3.3146,6.9431,7.0608,-0.046426,0.023824,0.059865
0.11322,3.4127,6.9627,7.0019,-0.050702,0.022602,0.0562
0.10471,3.1774,6.9039,7.1589,-0.052229,0.019242,0.0030543
0.081573,3.2558,6.9627,7.1589,-0.057116,0.012523,-0.0042761
0.07785,3.2558,6.9431,7.0608,-0.062003,0.010079,0.032987
0.06073,3.1185,6.9627,7.0608,-0.065973,0.012217,0.031765
0.058167,3.4127,6.9039,6.9627,-0.064752,0.01405,0.031154
0.042664,3.4912,6.9431,7.0608,-0.06017,0.015577,0.026573
0.046814,3.4127,6.8058,7.0216,-0.051007,0.013134,0.018021
0.038788,3.4127,6.8843,7.0608,-0.039401,0.0045815,0.011606
0.034882,3.2754,6.9431,7.1589,0.0033598,-0.0088575,-0.0067195
0.051208,3.4127,6.9039,6.9823,-0.0015272,-0.0058032,-0.0051924
0.063629,3.4912,6.9039,7.1589,-0.012217,0,-0.012828
0.059784,3.2754,6.8058,7.0019,-0.026267,0.0061087,-0.012828
0.064545,3.4127,6.8058,7.0019,-0.037874,0.0079412,-0.011301
0.068878,3.4323,6.9039,7.0216,-0.043066,0.010079,-0.013134
0.055908,3.3735,6.9039,7.1589,-0.045509,0.010079,-0.013134
0.051331,3.4127,6.9039,7.0608,-0.04215,0.012217,-0.0085521
0.052246,3.4716,6.7274,7.0608,-0.016188,0.011606,-0.011301
0.061401,3.1774,6.8254,7.1392,-0.018631,0.009163,-0.012828
0.064545,3.4127,6.8058,7.1196,-0.029322,0.0064141,-0.0064141
0.058258,3.4323,6.9039,7.2373,-0.039706,0.0033598,-0.0064141
0.053802,3.5304,6.9627,7.1589,-0.046426,0.0018326,-0.0042761
0.049927,3.3146,6.8843,7.0019,-0.047953,0.00061087,-0.0042761
0.051392,3.3735,6.8058,7.0216,-0.032376,-0.00061087,-0.0064141
0.044647,3.2754,6.8058,7.1196,-0.023213,0.00030543,-0.0094684
0.051361,3.4127,6.8843,7.1392,-0.031765,0.0009163,-0.014355
0.040649,3.5304,6.9627,7.1196,-0.02138,-0.00061087,-0.01741
0.043976,3.4912,6.9627,7.0216,-0.011301,0.0024435,-0.013439
0.042358,3.1774,6.9039,7.1589,-0.0051924,0.0036652,-0.013744
0.033813,3.3146,6.8254,7.1589,-0.0042761,0.0058032,-0.015577
0.033142,3.2558,6.8058,7.1589,-0.0073304,0.007025,-0.015577
0.02887,3.3146,6.845,7.0216,-0.046731,0.0067195,-0.01405
0.037079,3.4127,6.845,7.0608,-0.040317,0.010996,-0.01405
0.036621,3.4323,6.8058,7.0608,-0.016493,-0.02138,-0.01741
0.029694,3.2558,6.845,7.1589,-0.028711,-0.015882,-0.013744
0.037048,3.4127,6.8058,7.1392,-0.03543,-0.013439,-0.033903
0.035034,3.3146,6.8058,7.1589,-0.036346,-0.013744,-0.035736
0.028229,3.1774,6.845,7.1785,-0.033903,-0.012523,-0.037568
0.032043,3.4127,6.8843,7.0804,-0.023824,-0.012217,-0.032987
0.029449,3.3343,6.9039,7.1196,-0.010385,-0.010996,-0.027489
0.020691,3.4912,6.7274,7.0216,0,-0.010385,-0.022297
0.029297,3.3735,6.8058,7.0608,-0.0054978,0.029627,-0.0039706
0.030518,3.3931,6.845,7.1589,-0.00061087,0.0281,-0.0088575
0.041473,3.3146,6.845,7.0019,0.0012217,0.029322,0.019853
0.047852,3.3146,6.845,7.0608,0.0045815,0.029016,0.01741
0.06015,3.5696,6.9431,7.0608,0.0045815,0.027184,0.015577
0.041962,3.2166,6.9627,7.1589,0.00061087,0.025656,0.010996
0.042633,3.4127,6.845,7.0216,-0.0061087,0.023213,0.0054978
0.042145,3.4323,6.7862,7.0608,-0.01405,0.018937,0.0009163
0.042664,3.4912,6.9627,7.1196,-0.021075,0.016188,-0.0073304
0.038269,3.4912,6.9039,7.0216,-0.032681,0.014966,-0.0045815
0.025055,3.4912,6.9627,7.0019,-0.037874,0.012828,-0.010385
0.027954,3.3735,6.9431,7.0608,-0.037874,0.012828,-0.011606
0.022217,3.4127,6.9039,7.0608,-0.036041,0.012217,-0.011301
0.03186,3.4716,6.9039,7.0608,-0.030238,0.012523,-0.0094684
0.024323,3.4912,6.8254,7.0804,-0.023518,0.013134,-0.0076358
0.03656,3.4716,6.8058,7.0216,-0.018937,0.014661,-0.0073304
0.032043,3.4127,6.9039,7.1392,-0.010079,0.042455,0.0088575
0.035522,3.2558,6.9627,6.9627,-0.014355,0.040623,0.0094684
0.044647,3.3146,6.845,7.0608,-0.012217,0.039095,0.0067195
0.023071,3.2558,6.9627,7.1196,-0.0061087,0.037874,0.0064141
0.020752,3.2558,6.7274,7.1589,-0.0015272,0.036346,0.0051924
0.027222,3.4912,6.9431,7.0608,0.002138,0.034514,0.0045815
0.029083,3.2558,6.9431,7.0608,0.0033598,0.032681,0.0054978
0.025452,3.2558,6.9627,7.0216,0.0018326,0.032376,0.0085521
0.0159,3.4716,6.9627,7.0019,-0.0024435,0.030543,0.009163
0.0099792,3.4716,6.9039,7.1196,-0.0094684,0.027184,0.01069
0.016846,3.2558,6.8058,7.1392,-0.014966,0.027794,0.013744
0.011383,3.5304,6.7862,7.0608,-0.019853,0.027794,0.016188
0.0027161,3.4127,6.8254,7.0608,-0.020769,0.026878,0.018326
-0.0016479,3.4912,6.8058,7.0608,-0.017104,0.026267,0.02138
-0.0089417,3.4323,6.9627,7.0608,-0.011912,0.027794,0.022907
-0.0054626,3.3735,6.9627,7.0216,-0.0088575,0.028405,0.023518
-0.006134,3.4323,6.9039,7.0608,-0.01405,0.019242,-0.019853
-0.00021362,3.3146,6.9431,7.0608,-0.012523,0.026267,-0.01741
0.012634,3.3343,6.845,7.0019,-0.013744,0.027489,-0.013439
0.018555,3.4323,6.9039,7.1589,-0.014966,0.026573,-0.018631
0.013428,3.2166,6.9627,7.1589,-0.015882,0.025962,-0.022297
0.029266,3.3146,6.9039,7.0608,-0.01405,0.024129,-0.025656
0.018707,3.2362,6.8843,7.0804,-0.010079,0.020159,-0.025656
0.014709,3.4716,6.8058,7.0804,-0.012828,0.018326,-0.021991
0.01532,3.2558,6.8058,6.9823,-0.027794,0.016799,0.0042761
0.011169,3.4912,6.845,7.0216,-0.010996,0.012523,0.0073304
0.010834,3.3146,6.8843,7.0608,-0.013439,0.011912,-0.015272
0.015533,3.1185,6.8843,7.1392,-0.016799,0.012828,-0.012217
0.017334,3.3146,6.7862,7.1589,-0.021686,0.012217,-0.0079412
0.0017395,3.4127,6.845,7.1392,-0.027794,0.011912,-0.0051924
-0.0018921,3.4323,6.845,7.0608,-0.031154,0.010079,-0.002138
-0.0042725,3.3146,6.845,6.9823,-0.031154,0.01069,-0.00061087
-0.0059204,3.1774,6.9823,7.1392,-0.0009163,0.0051924,0.011606
-0.024841,3.4127,6.9627,7.0608,0.0027489,0.0076358,0.01069
-0.023376,3.3931,6.9039,7.0608,0.0030543,0.0085521,0.018326
-0.034149,3.3343,6.8058,6.9627,-0.0030543,0.0067195,0.017715
-0.03891,3.3146,6.8058,7.1196,-0.01069,0.0054978,0.016799
-0.046967,3.3146,6.9039,7.1589,-0.018021,0.0033598,0.015577
-0.053711,3.4716,6.9431,7.1196,-0.022907,0.002138,0.01405
-0.053223,3.5304,6.9039,7.1589,-0.023824,0.0012217,0.01405
-0.062531,3.4716,6.9039,7.0804,-0.016188,0,-0.0042761
-0.075073,3.4127,6.9627,7.0804,-0.014966,-0.0027489,-0.0079412
-0.088379,3.3735,6.9627,7.0019,-0.010996,-0.00030543,0.0088575
-0.077393,3.4127,6.8058,7.0608,-0.0073304,0.0027489,0.0061087
-0.073059,3.3146,6.8058,7.1392,-0.0064141,0.0042761,0.0073304
-0.065765,3.3931,6.8843,7.0019,-0.0082467,0.0073304,0.0079412
-0.058014,3.3931,6.8254,7.0608,-0.021991,0.011301,0.0058032
-0.051239,3.5696,6.8254,7.0608,-0.018631,0.013744,0.0009163
-0.037323,3.3931,6.9039,7.0804,-0.016493,0.014661,-0.009163
-0.017426,3.2754,6.845,7.1589,-0.018631,0.016188,-0.0097738
-0.0070496,3.4716,6.7862,7.0019,-0.021075,0.014966,0.0045815
-0.00088501,3.4912,6.9039,7.0608,-0.023518,0.013134,0.0018326
0.0068665,3.3931,6.9627,7.0608,-0.022602,0.012828,-0.0030543
-0.010376,3.4716,6.9039,7.1392,-0.023213,0.011606,-0.0048869
-0.010071,3.3343,6.845,7.1392,-0.022907,0.0082467,-0.0051924
-0.01178,3.3146,6.9627,7.1589,-0.021686,0.0094684,-0.007025
-0.010284,3.5304,6.9039,7.0608,-0.0082467,0.021991,-0.00061087
-0.028656,3.5696,6.8058,7.1196,-0.018631,0.025351,-0.0012217
-0.025574,3.3735,6.8058,7.0019,-0.023518,0.024129,0.00061087
-0.029938,3.5304,6.7862,7.0608,-0.026267,0.022602,0
-0.022034,3.5304,6.7862,7.0019,-0.025656,0.022602,-0.00061087
-0.027344,3.4127,6.9039,7.0608,-0.021686,0.022907,-0.00030543
-0.03067,3.3931,6.9627,7.0608,-0.015577,0.021075,0.00030543
-0.034943,3.4912,6.8254,7.1589,-0.010079,0.019242,0
-0.0289,3.55,6.7274,7.0216,-0.0054978,0.015882,-0.0039706
-0.029205,3.4127,6.8254,7.0608,-0.0024435,0.012828,-0.0024435
-0.042328,3.2166,6.9431,7.1589,-0.0051924,0.014966,-0.0009163
-0.037384,3.1774,6.9431,7.1589,-0.011301,0.016188,-0.0009163
-0.037323,3.4912,6.9039,7.0608,-0.018021,0.016188,-0.0012217
-0.035339,3.5696,6.845,7.1196,-0.023824,0.015272,-0.00061087
-0.033844,3.55,6.8058,7.1392,-0.029322,0.015272,-0.0036652
-0.044098,3.3146,6.7862,7.1589,-0.03207,0.015577,-0.0064141
-0.049927,3.4912,6.7274,7.0019,-0.033292,0.015577,0.0061087
-0.057037,3.4912,6.9039,7.1392,-0.030238,0.019242,0.0058032
-0.070953,3.3343,6.8058,7.1589,-0.025045,0.017104,-0.0018326
-0.077087,3.2754,6.9039,7.1589,-0.019548,0.015272,-0.0024435
-0.075073,3.5304,6.845,7.1589,-0.013134,0.018021,-0.0009163
-0.10785,3.2166,6.9431,7.1589,-0.010079,0.01741,0.00030543
-0.090973,3.55,6.8058,7.0608,-0.0088575,0.015577,0.0030543
-0.088928,3.3146,6.9039,7.0608,-0.012217,0.015272,0.0048869
-0.096619,3.3343,6.8058,7.1196,-0.026573,0.016188,-0.0064141
-0.084625,3.4912,6.9039,7.0608,-0.02138,0.019548,-0.0064141
-0.077271,3.3735,6.9039,7.0608,-0.017104,0.017104,-0.0073304
-0.073212,3.3735,6.845,7.1196,-0.015882,0.013439,-0.0051924
-0.074646,3.4127,6.9431,7.0608,-0.014355,0.011912,-0.0039706
-0.074219,3.5304,6.8843,7.1392,-0.014355,0.013744,-0.0033598
-0.081238,3.3146,6.8254,7.0216,-0.012828,0.016493,-0.0048869
-0.087891,3.3735,6.845,7.0608,-0.0079412,0.019548,-0.0054978
-0.090668,3.3343,6.8058,7.1392,-0.023518,0.019548,-0.017104
-0.10239,3.5304,6.8843,7.1392,-0.029322,0.018631,-0.016493
-0.11356,3.4912,6.9039,7.1196,-0.032376,0.021075,-0.0076358
-0.11469,3.3931,6.9431,7.0608,-0.029322,0.02138,-0.011606
-0.12598,3.3931,6.8058,7.0019,-0.022297,0.02138,-0.014661
-0.11624,3.55,6.8058,7.0216,-0.01741,0.020769,-0.014966
-0.12305,3.55,6.9039,7.1196,-0.009163,0.019853,-0.016799
-0.1221,3.3735,6.9431,7.0608,-0.016799,0.020464,-0.01741
-0.13156,3.2558,6.9039,7.1392,-0.018937,0.019548,-0.0051924
-0.11984,3.5304,6.7862,7.0608,-0.019853,0.015272,-0.0039706
-0.12024,3.4912,6.9039,7.1589,-0.019853,0.01405,-0.014355
-0.11734,3.2754,6.845,7.1589,-0.020159,0.013744,-0.013744
-0.12842,3.2754,6.8058,7.1589,-0.018937,0.011912,-0.014355
-0.15176,3.3343,6.845,7.0216,-0.016493,0.010385,-0.013439
-0.13068,3.3735,6.9039,7.1196,-0.017715,0.010385,-0.009163
-0.12244,3.3146,6.845,6.9627,-0.018326,0.011606,-0.0064141
-0.11069,3.4127,6.9431,7.1589,-0.013439,0.014355,0.0085521
-0.12311,3.4127,6.9039,7.0608,-0.010385,0.018631,0.0076358
-0.13034,3.4127,6.9039,7.0608,-0.010996,0.017715,-0.0036652
-0.12909,3.4323,6.8058,7.0216,-0.010079,0.017104,-0.0024435
-0.13498,3.3146,6.7862,7.1392,-0.0088575,0.018937,-0.00030543
-0.14194,3.3146,6.845,7.0608,-0.010385,0.020464,0.0027489
-0.14395,3.2558,6.9431,7.1785,-0.015577,0.020464,0.0064141
-0.14569,3.4912,6.9039,7.1392,-0.015577,0.020769,0.009163
-0.1507,3.3146,6.9039,7.0804,-0.025045,0.010385,0.007025
-0.13828,3.4323,6.7274,7.1589,-0.026878,0.01405,0.0067195
-0.13324,3.55,6.8058,7.0216,-0.028405,0.014966,-0.002138
-0.11017,3.3735,6.9039,7.1196,-0.027794,0.013744,-0.00030543
-0.11426,3.3343,6.8058,7.1196,-0.02138,0.015272,0.00061087
-0.116,3.4912,6.9431,7.1196,-0.01405,0.015272,0.00061087
-0.11133,3.2362,6.9039,7.1196,-0.0085521,0.012828,0.0015272
-0.11581,3.3931,6.845,7.0608,-0.0045815,0.012523,0.0045815
-0.12485,3.3146,6.8843,6.9823,-0.0051924,0.011912,0.0027489
-0.11743,3.2558,6.9627,7.1589,-0.010385,0.010996,0.0015272
-0.12073,3.2362,6.9039,7.1589,-0.017715,0.012828,0.0054978
-0.11871,3.4127,6.8254,7.0608,-0.023824,0.015882,0.0064141
-0.11835,3.3146,6.7862,7.1589,-0.02474,0.016799,0.0064141
-0.11789,3.5304,6.9039,7.0608,-0.022907,0.015577,0.0051924
-0.12299,3.3146,6.9039,7.1392,-0.020769,0.015882,0.0042761
-0.10318,3.2754,6.845,7.0019,-0.019548,0.016493,0.0036652
-0.10587,3.4716,6.8058,7.1392,-0.017104,0.016493,0.0042761
-0.11542,3.5304,6.8254,7.1589,-0.013134,0.015577,0.0048869
-0.12411,3.1774,6.9039,7.1589,-0.013744,0.015577,0.002138
-0.11871,3.3931,6.8254,7.0019,-0.017104,0.015272,0.0012217
-0.12366,3.2754,6.9039,7.0608,-0.017715,0.014661,0.0018326
-0.11707,3.3146,6.8058,7.1589,-0.017104,0.014661,0.0033598
-0.12061,3.2558,6.8843,7.1589,-0.014966,0.015577,0.0064141
-0.11832,3.3146,6.8843,7.0019,-0.011301,0.016799,0.0058032
-0.13821,3.3539,6.9039,7.1196,-0.010385,0.018326,0.011301
-0.12784,3.4716,6.747,7.0608,-0.011606,0.02138,0.010385
-0.11856,3.1774,6.9627,7.1392,-0.012828,0.020769,0.0058032
-0.12424,3.4716,6.8254,7.0608,-0.014355,0.018631,0.007025
-0.13135,3.5304,6.8254,7.1196,-0.016799,0.016799,0.0076358
-0.13254,3.5304,6.8254,7.1196,-0.020159,0.01405,0.0085521
-0.13461,3.3146,6.9039,7.0804,-0.020159,0.013439,0.010385
-0.1301,3.3931,6.9039,7.1196,-0.020769,0.013439,0.011301
-0.12012,3.4127,6.8058,7.0608,-0.0051924,0.020769,-0.0027489
-0.11649,3.3931,6.845,7.0608,-0.0033598,0.022602,-0.00061087
-0.11295,3.4127,6.8058,7.0608,-0.0064141,0.020464,0.0058032
-0.097961,3.3735,6.8058,7.1589,-0.0085521,0.018631,0.0045815
-0.097321,3.4716,6.9431,7.1196,-0.009163,0.015577,0.00061087
-0.0979,3.5304,6.9431,7.0608,-0.010079,0.01405,0
-0.10904,3.4912,6.8058,7.0608,-0.0097738,0.012828,-0.00061087
-0.10852,3.4323,6.845,7.1196,-0.010996,0.013134,-0.002138
-0.1362,3.4127,6.8254,7.0019,-0.0073304,0.013744,0.00061087
-0.12216,3.5696,6.8843,7.0804,-0.010996,0.010079,0.00030543
-0.11731,3.5304,6.8058,7.0608,-0.010079,0.013439,0
-0.11816,3.5696,6.9039,7.1196,-0.012523,0.018937,-0.0012217
-0.12057,3.4912,6.845,7.0608,-0.014966,0.020464,0.00030543
-0.11722,3.2754,6.8058,7.0608,-0.014661,0.019853,0.0015272
-0.11639,3.2754,6.8058,7.0216,-0.011301,0.021075,0
-0.1037,3.4912,6.8254,7.1392,-0.0064141,0.020769,0.00061087
-0.10751,3.5304,6.9039,7.1392,-0.0051924,0.018326,-0.0042761
-0.11157,3.55,6.9039,7.1196,-0.0039706,0.01741,-0.0042761
-0.11145,3.4912,6.8254,7.0608,-0.0079412,0.016188,0.0015272
-0.11572,3.2558,6.845,7.1785,-0.012217,0.014355,0
-0.10303,3.4912,6.8058,7.0216,-0.015577,0.012828,0
-0.10788,3.2754,6.845,7.1196,-0.019242,0.012828,0.0009163
-0.096619,3.4912,6.845,7.1196,-0.012828,0.013134,-0.0015272
-0.10864,3.3735,6.845,6.9627,-0.0094684,0.013134,-0.0033598
-0.098694,3.5696,6.845,7.1589,-0.019853,0.013134,0.012828
-0.10541,3.4716,6.8843,7.0608,-0.014966,0.014355,0.0085521
-0.10416,3.4912,6.8058,7.0216,-0.01069,0.016188,0.0067195
-0.10629,3.55,6.8254,7.1196,-0.0073304,0.017715,0.011606
-0.11124,3.4127,6.9039,7.0216,-0.0073304,0.017715,0.01405
-0.10406,3.2558,6.9039,7.1392,-0.007025,0.018631,0.016799
-0.11511,3.4912,6.8254,7.1589,-0.0076358,0.019242,0.01741
-0.11438,3.3931,6.8843,7.1589,-0.0094684,0.019853,0.015272
-0.11505,3.4912,6.8254,7.0804,-0.021075,0.010079,0.0042761
-0.092377,3.2362,6.845,7.2765,-0.019242,0.0082467,0.002138
-0.078857,3.3931,6.8254,7.0804,-0.021075,0.0094684,0.0067195
-0.075409,3.4912,6.8058,7.1589,-0.020159,0.0097738,0.0048869
-0.079559,3.3146,6.845,6.9823,-0.023824,0.009163,0.0045815
-0.080353,3.4323,6.8058,7.0608,-0.028405,0.0082467,0.0051924
-0.080292,3.2558,6.8058,7.1589,-0.030849,0.0064141,0.0051924
-0.088562,3.2558,6.8058,7.1589,-0.03146,0.0058032,0.0061087
-0.08313,3.5304,6.9627,7.1392,-0.027489,0.0067195,0.002138
-0.080719,3.3735,6.8254,7.0804,-0.020769,0.0067195,0.0012217
-0.089233,3.3931,6.845,7.0608,-0.018631,0.0064141,0.0015272
-0.087494,3.3343,6.845,6.9235,-0.020464,0.0051924,0.0009163
-0.092773,3.4912,6.845,7.1392,-0.02138,0.0051924,0.00061087
-0.088867,3.5696,6.845,7.1392,-0.020769,0.0073304,0.0012217
-0.082001,3.5304,6.7274,7.0019,-0.018326,0.009163,0.00030543
-0.097351,3.4127,6.845,7.0019,-0.016799,0.010079,-0.00030543
-0.085236,3.4912,6.8254,7.0804,-0.016493,0.02138,0
-0.07782,3.4323,6.9039,7.1196,-0.011912,0.018021,0.0018326
-0.075348,3.55,6.8843,7.0608,-0.011912,0.016799,0.01069
-0.073364,3.2754,6.845,7.1589,-0.012523,0.016799,0.0097738
-0.07312,3.4912,6.6881,7.0608,-0.015882,0.015882,0.012217
-0.068054,3.3146,6.8254,7.0216,-0.019548,0.015882,0.012217
-0.078094,3.3735,6.9039,7.0608,-0.022297,0.016188,0.0088575
-0.07193,3.4912,6.7274,7.0019,-0.022907,0.013744,0.0045815
-0.084381,3.55,6.8254,7.1392,-0.021075,0.011912,0.0039706
-0.094574,3.5696,6.7274,7.0608,-0.022602,0.01405,0.0064141
-0.0914,3.4127,6.8058,7.0608,-0.025045,0.01405,0.0030543
-0.10013,3.3735,6.8843,7.0608,-0.026573,0.011912,0.0015272
-0.11035,3.3931,6.747,7.1589,-0.027794,0.0094684,-0.0015272
-0.12714,3.5304,6.8254,7.0608,-0.028405,0.010079,-0.0036652
-0.12119,3.55,6.9431,7.1196,-0.026267,0.011606,-0.0024435
-0.11398,3.2558,6.9039,7.1589,-0.024435,0.010996,-0.00030543
-0.12103,3.4127,6.8058,7.0216,-0.019853,0.011606,0.0018326
-0.10776,3.3146,6.845,7.1589,-0.018937,0.011301,0.0018326
-0.093292,3.4323,6.845,7.1589,-0.013439,0.013134,-0.0079412
-0.077118,3.4127,6.747,7.1589,-0.0082467,0.015272,-0.0061087
-0.075684,3.4127,6.845,7.0804,-0.0076358,0.016493,-0.0042761
-0.068298,3.4127,6.9039,7.0608,-0.0076358,0.01741,-0.0027489
-0.072052,3.4912,6.8058,7.0608,-0.02474,0.019242,0.00030543
-0.047333,3.5304,6.6489,7.0804,-0.021686,0.021686,0.0012217
-0.070709,3.5696,6.845,7.1589,-0.015577,0.018631,0.00061087
-0.07196,3.55,6.845,7.0608,-0.018631,0.016188,0.002138
-0.068329,3.5696,6.8843,7.0608,-0.017715,0.012828,0.0073304
-0.065155,3.4912,6.7862,7.0608,-0.015882,0.0085521,0.0061087
-0.073273,3.2558,6.845,7.1785,-0.015272,0.0054978,0.0051924
-0.077087,3.2558,6.8058,7.1589,-0.015577,0.0058032,0.0051924
-0.066406,3.4127,6.8058,6.9627,-0.015577,0.0039706,0.0045815
-0.072693,3.2558,6.9039,7.1589,-0.012217,0.0048869,0.0024435
-0.068695,3.5696,6.845,7.0608,-0.0079412,0.0079412,-0.0012217
-0.063599,3.4912,6.8843,7.1196,-0.0061087,0.009163,-0.0018326
-0.058868,3.55,6.6685,7.0608,-0.011912,0.01069,0.002138
-0.05484,3.55,6.8058,7.0608,-0.018021,0.013744,0.0018326
-0.056396,3.5696,6.7274,7.0216,-0.023213,0.015272,0.0024435
-0.054077,3.4127,6.747,7.0216,-0.025656,0.014661,0.0024435
-0.060028,3.5892,6.845,7.0804,-0.024435,0.012828,-0.00030543
-0.065643,3.2166,6.9039,7.1589,-0.023518,0.013134,-0.0009163
-0.071259,3.5304,6.8254,7.0608,-0.012217,0.013744,-0.0064141
-0.073486,3.55,6.7274,7.0608,-0.0085521,0.013439,-0.0076358
-0.079315,3.5696,6.8058,7.1589,-0.010079,0.012217,-0.0030543
-0.072571,3.4127,6.8254,7.1196,-0.014355,0.0097738,-0.0039706
-0.083923,3.4127,6.8058,7.0608,-0.020769,0.010079,-0.0045815
-0.082947,3.4323,6.8254,7.0804,-0.024435,0.0082467,-0.0036652
-0.077911,3.4912,6.8254,7.0608,-0.022907,0.0079412,-0.0042761
-0.079895,3.55,6.8843,7.1196,-0.020159,0.010385,-0.0048869
-0.082886,3.4127,6.8254,6.9823,-0.043677,0.0015272,0.0027489
-0.073029,3.4912,6.6881,7.0608,-0.039095,0.0024435,0.0094684
-0.059082,3.5696,6.7274,7.0216,-0.041233,0.0012217,-0.026267
-0.045532,3.5304,6.8058,7.0804,-0.046731,0.002138,-0.025962
-0.038879,3.55,6.7862,7.1392,-0.053145,0.002138,-0.023518
-0.049194,3.3735,6.8058,7.0019,-0.057421,0.002138,-0.017715
-0.053162,3.5304,6.9039,7.1392,-0.057116,0.0048869,-0.0097738
-0.058075,3.4323,6.8058,7.0608,-0.05284,0.0054978,-0.0030543
-0.066681,3.5696,6.8843,7.1392,0.0097738,0.034819,0.029016
-0.073273,3.5304,6.7862,7.0608,0.0097738,0.029322,0.029932
-0.074982,3.3735,6.9627,7.0608,0.0012217,0.027489,-0.0039706
-0.080933,3.2166,6.845,7.1392,-0.011912,0.029016,0.0015272
-0.0849,3.2754,6.7862,7.0019,-0.022297,0.029627,0.0079412
-0.080902,3.3735,6.7274,7.1589,-0.027489,0.031154,0.014661
-0.068817,3.2754,6.8843,7.1785,-0.032376,0.032987,0.020159
-0.065338,3.4912,6.8058,7.0216,-0.036346,0.034208,0.025351
-0.057434,3.4912,6.8843,7.1392,-0.033903,0.033903,0.012828
-0.042114,3.4127,6.9039,7.1196,-0.027184,0.029627,0.0033598
-0.043365,3.3146,6.9039,7.0608,-0.024435,0.025656,0.028711
-0.051544,3.4912,6.8058,7.0019,-0.022602,0.024435,0.029932
-0.04129,3.2362,6.845,7.1392,-0.019853,0.024129,0.030849
-0.044189,3.2558,6.845,7.1589,-0.016188,0.022907,0.028405
-0.052979,3.5304,6.8058,7.0608,-0.011912,0.021075,0.024435
-0.060364,3.3343,6.9627,7.0608,-0.014661,0.020769,0.019548
-0.068207,3.2558,6.9039,7.1589,-0.021991,0.018326,-0.026267
-0.073578,3.4912,6.8058,7.1196,-0.032681,0.015577,-0.027489
-0.087372,3.3146,6.8058,7.0216,-0.041233,0.013744,-0.0064141
-0.090698,3.5696,6.8058,7.0804,-0.04612,0.010079,-0.015272
-0.10205,3.2558,6.8254,7.1392,-0.04948,0.0073304,-0.02138
-0.10199,3.1774,6.845,7.1785,-0.048258,0.0042761,-0.025656
-0.12106,3.2166,6.8254,7.2373,-0.043066,0.002138,-0.02474
-0.11691,3.1774,6.8058,7.2177,-0.040012,0.00030543,-0.02474
-0.12933,3.2558,6.7862,7.2373,-0.026878,0.0067195,-0.0067195
-0.1235,3.3735,6.8254,7.1196,-0.028405,0.0039706,-0.0054978
-0.13181,3.55,6.8058,7.1196,-0.029627,0.0051924,-0.01069
-0.10864,3.3146,6.8254,7.1196,-0.034819,0.0061087,-0.011606
-0.10599,3.4912,6.7862,7.1589,-0.036652,0.0073304,-0.012217
-0.099701,3.4716,6.8254,7.1392,-0.036652,0.009163,-0.01069
-0.098907,3.3146,6.8058,7.1589,-0.033903,0.010079,-0.0094684
-0.098419,3.3931,6.8254,7.1589,-0.030238,0.010079,-0.007025
-0.087158,3.5304,6.845,7.1196,-0.029322,0.010996,0.0033598
-0.087952,3.3146,6.8058,7.2373,-0.030849,0.013439,0.0045815
-0.088837,3.5304,6.6489,7.1392,-0.03207,0.012828,-0.0015272
-0.083282,3.4323,6.7862,7.1196,-0.034819,0.011301,-0.00030543
-0.082794,3.4127,6.8058,7.1589,-0.032376,0.011301,-0.0015272
-0.08493,3.3343,6.8254,7.1589,-0.027489,0.010385,-0.0024435
-0.083923,3.4912,6.8254,7.1196,-0.029322,0.010996,-0.0012217
-0.087616,3.1774,6.8058,7.2373,-0.026267,0.010385,0.0009163
-0.082703,3.3931,6.7274,7.0608,-0.027489,0.01069,0.0061087
-0.078217,3.3146,6.7274,7.1196,-0.031765,0.01069,0.01069
-0.069336,3.2558,6.8058,7.1785,-0.032987,0.0097738,0.0054978
-0.065765,3.5304,6.8058,7.0804,-0.035736,0.010385,0.0061087
-0.072021,3.2558,6.7862,7.1785,-0.040012,0.012217,0.002138
-0.074127,3.3735,6.7862,7.1392,-0.040317,0.012523,0.002138
-0.079651,3.55,6.8058,7.1589,-0.024129,0.012523,0.0045815
-0.085907,3.4323,6.8058,7.1392,-0.024129,0.012828,0.0042761
-0.087402,3.4127,6.8058,7.1589,-0.029016,0.012828,0.0064141
-0.072723,3.4127,6.8058,7.1392,-0.027184,0.011606,0.0073304
-0.079651,3.55,6.6685,7.1589,-0.022602,0.012523,0.011912
-0.084991,3.2558,6.8058,7.2373,-0.021991,0.011912,0.011912
-0.085907,3.3146,6.7274,7.2961,-0.023824,0.011606,0.010996
-0.087891,3.3735,6.8058,7.1392,-0.023518,0.011606,0.0073304
-0.090942,3.3931,6.8058,7.1589,-0.03543,0.010996,0.0076358
-0.091949,3.5696,6.6489,7.1392,-0.030543,0.011301,0.0076358
-0.088745,3.5304,6.6685,7.1589,-0.023518,0.0064141,0.027184
-0.081268,3.4127,6.8058,7.1589,-0.022602,0.0067195,0.027794
-0.066772,3.4127,6.6881,7.1196,-0.026267,0.010385,-0.0018326
-0.050415,3.3343,6.7274,7.1589,-0.029932,0.012828,0.0058032
-0.058228,3.5696,6.6489,7.1392,-0.029627,0.014355,0.013744
-0.046631,3.4127,6.7862,7.0608,-0.02474,0.016188,0.018631
-0.04837,3.3343,6.6881,7.0608,-0.019548,0.015882,0.022602
-0.038879,3.4912,6.6489,7.1589,-0.015272,0.014661,0.026267
-0.038879,3.2558,6.7862,7.2373,-0.015272,0.015882,0.0054978
-0.038208,3.4912,6.7862,7.1785,-0.014966,0.019242,0
-0.055023,3.3931,6.7274,7.1392,-0.016188,0.018631,0.029016
-0.060181,3.3343,6.6489,7.2373,-0.018326,0.017715,0.027489
-0.062347,3.4127,6.8058,7.1589,-0.019548,0.017715,0.025045
-0.07486,3.4912,6.6489,7.1589,-0.018326,0.017104,0.021075
-0.067932,3.5696,6.6685,7.2373,-0.018021,0.019242,0.015577
-0.080383,3.3735,6.6881,7.1589,-0.01741,0.020464,0.010079
-0.081268,3.4912,6.6881,7.1589,-0.016493,0.018937,-0.01741
-0.075439,3.4127,6.7274,7.1589,-0.015882,0.018326,-0.017715
-0.078033,3.3735,6.6489,7.2373,-0.013439,0.015272,-0.0033598
-0.080536,3.4127,6.7274,7.1392,-0.013744,0.013744,-0.0064141
-0.087036,3.3146,6.7274,7.1589,-0.019242,0.012523,-0.010079
-0.093719,3.4912,6.8058,7.1589,-0.023824,0.010996,-0.012828
-0.097076,3.5892,6.6881,7.1785,-0.0281,0.011606,-0.01405
-0.10385,3.4127,6.7274,7.1589,-0.028711,0.012828,-0.016188
-0.10406,3.5696,6.6685,7.1589,-0.02138,0.0030543,-0.013134
-0.10306,3.2558,6.6881,7.2373,-0.029322,0.0024435,-0.0079412
-0.098267,3.3146,6.7274,7.2765,-0.032681,0.002138,-0.039401
-0.10242,3.3931,6.7274,7.1589,-0.034514,0.00030543,-0.035125
-0.098175,3.2558,6.8058,7.2961,-0.034819,0.0012217,-0.032376
-0.096649,3.4716,6.6881,7.1589,-0.030543,0.0018326,-0.030543
-0.083679,3.4127,6.747,7.1589,-0.025045,0.0036652,-0.025351
-0.085541,3.5304,6.6489,7.1392,-0.023518,0.0058032,-0.019242
-0.089325,3.3146,6.6881,7.1392,-0.013439,0.016188,0.010385
-0.064697,3.4127,6.7274,7.1589,-0.018326,0.013744,0.0076358
-0.045502,3.55,6.6293,7.1392,-0.019242,0.015272,0.011606
-0.034851,3.2166,6.8058,7.1785,-0.018631,0.017104,0.012217
-0.023865,3.3146,6.7274,7.2373,-0.021686,0.01741,0.011912
-0.018585,3.4912,6.6489,7.1196,-0.022602,0.016188,0.01069
-0.017242,3.5696,6.7862,7.2373,-0.012523,0.014966,0.010996
-0.0099182,3.3931,6.7274,7.2961,-0.01069,0.01405,0.011606
-0.036133,3.5696,6.5901,7.1589,-0.019242,0.013439,-0.0012217
-0.0061035,3.5304,6.7274,7.2373,-0.015577,0.014355,-0.0018326
-0.010345,3.4127,6.7274,7.1589,-0.016493,0.01069,0.0058032
-0.020447,3.3735,6.7274,7.1785,-0.017715,0.01069,0.0048869
-0.025848,3.3931,6.6881,7.1589,-0.016799,0.011606,0.0030543
-0.020508,3.4323,6.7274,7.1785,-0.016188,0.012828,0.0015272
-0.020477,3.2754,6.8058,7.2373,-0.020159,0.014355,-0.0015272
-0.028931,3.5696,6.7274,7.2961,-0.020464,0.013134,-0.0015272
-0.035339,3.5304,6.6489,7.1589,-0.021686,0.01741,0.0018326
-0.02005,3.4127,6.6685,7.1589,-0.023518,0.018631,0
-0.017883,3.4127,6.6881,7.1589,-0.021075,0.018021,0.0030543
-0.030457,3.2558,6.7274,7.2961,-0.018326,0.017104,0.0048869
-0.022491,3.3735,6.6489,7.2373,-0.016493,0.017104,0.0054978
-0.025635,3.4323,6.7862,7.1589,-0.012523,0.01741,0.0064141
-0.035522,3.4716,6.7274,7.1589,-0.011912,0.016188,0.0064141
-0.034027,3.4127,6.7274,7.2177,-0.013134,0.016188,0.0042761
-0.028961,3.4912,6.7862,7.1589,-0.017715,0.015272,0.0082467
-0.026489,3.5696,6.6881,7.1589,-0.022602,0.013439,0.010385
-0.033325,3.5696,6.6881,7.1589,-0.025962,0.015577,0.00030543
-0.040131,3.4127,6.7862,7.1589,-0.028405,0.01741,-0.0015272
-0.042755,3.4912,6.7274,7.2373,-0.025962,0.01741,0
-0.047516,3.3343,6.6685,7.0216,-0.022602,0.016493,0.0018326
-0.052887,3.5696,6.7274,7.1785,-0.017104,0.017104,0.0042761
-0.047974,3.2558,6.7274,7.2765,-0.013134,0.01741,0.0064141
-0.052582,3.5304,6.6489,7.1589,-0.0018326,0.020769,-0.014355
-0.034607,3.2166,6.6489,7.3158,-0.009163,0.026267,-0.012217
-0.024872,3.4127,6.6881,7.1589,-0.011301,0.025351,-0.015577
-0.021881,3.55,6.6489,7.1589,-0.013744,0.023518,-0.018021
-0.012238,3.3931,6.6881,7.1589,-0.01405,0.023518,-0.018937
-0.0092773,3.3931,6.7274,7.1589,-0.0097738,0.021991,-0.018326
-0.0062256,3.55,6.5901,7.1589,-0.0048869,0.020769,-0.015577
-0.011475,3.5696,6.7274,7.2177,0.00030543,0.021075,-0.014966
-0.0076599,3.5696,6.6489,7.1392,0.0039706,0.019853,-0.0033598
-0.0066833,3.4716,6.6881,7.1589,0.0030543,0.015882,-0.0015272
-0.010956,3.3735,6.6489,7.1196,-0.0030543,0.018326,-0.009163
0.0027771,3.3343,6.6489,7.2765,-0.010996,0.020769,-0.0076358
-0.0032043,3.5696,6.7862,7.2373,-0.014966,0.024129,-0.0076358
-0.0047607,3.5696,6.747,7.1589,-0.016188,0.022297,-0.0088575
-0.013123,3.4127,6.6881,7.1589,-0.012828,0.018937,-0.0073304
-0.0061646,3.5304,6.6489,7.1589,-0.0097738,0.017715,-0.0042761
-0.0021973,3.55,6.6489,7.1392,-0.010079,0.022297,0.0045815
0.0066528,3.5304,6.6489,7.1785,-0.012217,0.026267,0.002138
6.1035e-05,3.5696,6.7862,7.1785,-0.0097738,0.025045,0.012828
0.012573,3.55,6.6489,7.1589,-0.0058032,0.023518,0.011301
0.012451,3.5696,6.5901,7.1392,-0.0033598,0.02474,0.0076358
0.014099,3.4912,6.6489,7.1785,-0.0015272,0.024129,0.0073304
0.0051575,3.4912,6.8058,7.2177,-0.0012217,0.020769,0.0085521
0.0048218,3.2166,6.7862,7.2373,-0.0030543,0.018937,0.0064141
0.0075073,3.5304,6.7862,7.1589,-0.007025,0.016799,-0.012828
0.0086975,3.3539,6.6881,7.1589,-0.011301,0.012523,-0.013744
-0.0048828,3.3735,6.6685,7.1196,-0.014966,0.014966,-0.0024435
-0.015656,3.55,6.6489,7.1589,-0.016493,0.015882,-0.0061087
0.0070496,3.4127,6.8058,7.1589,-0.010996,0.015882,-0.0076358
0.0053101,3.4127,6.7862,7.1589,-0.0051924,0.015577,-0.01069
-0.0074768,3.4323,6.7274,7.1589,-0.00030543,0.016799,-0.011912
-0.0071106,3.3146,6.6685,7.0019,0.0015272,0.018631,-0.012217
-0.0071411,3.3931,6.6489,7.2177,-0.024129,0.021991,-0.0058032
-0.0036926,3.3343,6.7862,7.0608,-0.024129,0.020159,-0.0048869
0.01181,3.3146,6.7274,7.0019,-0.022907,0.019242,-0.013744
0.01239,3.3931,6.6881,7.2373,-0.018326,0.01741,-0.015577
-0.033997,3.4716,6.7274,7.1785,-0.01405,0.016188,-0.016493
0.015778,3.4912,6.7862,7.1785,-0.0088575,0.015272,-0.013439
0.0077515,3.4912,6.8058,7.1589,-0.017715,0.01405,-0.010385
0.018311,3.55,6.7274,7.1785,-0.023824,0.014966,-0.007025
0.013763,3.4127,6.7862,7.1589,-0.010385,0.022602,-0.0079412
0.0099487,3.4127,6.8058,7.1589,-0.019548,0.026878,-0.0085521
0.0071106,3.4912,6.6881,7.1589,-0.020464,0.026573,-0.0082467
0.0043945,3.3931,6.8058,7.1589,-0.016188,0.02474,-0.0073304
0.0099487,3.3146,6.8058,7.1196,-0.013439,0.02138,-0.0067195
0.00076294,3.3735,6.8058,7.1589,-0.010385,0.020159,-0.0073304
0.0098877,3.3146,6.7274,7.1785,-0.0054978,0.019548,-0.0064141
0.003479,3.5696,6.747,7.1196,-0.0027489,0.018631,-0.0064141
-0.0059204,3.4716,6.8058,7.1589,-0.015272,0.016799,-0.0094684
0.0041809,3.4127,6.845,7.1589,-0.020464,0.012828,-0.0094684
0.0079346,3.3343,6.8058,7.1196,-0.022907,0.015272,-0.009163
0.0014954,3.4912,6.7274,7.1392,-0.021686,0.020159,-0.0076358
-3.0518e-05,3.5304,6.7862,7.1589,-0.022602,0.021075,-0.0076358
-0.0066833,3.4323,6.6489,7.1196,-0.022602,0.019242,-0.009163
-0.00094604,3.3146,6.6881,7.0608,-0.0064141,0.020159,-0.0085521
-0.0020447,3.3343,6.747,7.1589,-0.010385,0.019548,-0.0097738
-0.012451,3.5304,6.6489,7.1589,-0.014355,0.01741,-0.01405
-0.019135,3.1774,6.8254,7.2373,-0.010996,0.018631,-0.01405
-0.022705,3.2166,6.8058,7.1589,-0.0085521,0.018631,-0.009163
-0.029449,3.4323,6.7274,7.1196,-0.0076358,0.019548,-0.0048869
-0.048981,3.3343,6.6881,7.1392,-0.0064141,0.02138,-0.0024435
-0.042938,3.3343,6.7274,7.0608,-0.010079,0.023518,-0.0027489
-0.04425,3.55,6.7862,7.1589,-0.019242,0.024129,-0.0064141
-0.046021,3.4912,6.7862,7.1589,-0.016188,0.023518,-0.010996
-0.053558,3.2558,6.8058,7.2373,-0.011606,0.017715,-0.0058032
-0.036499,3.2558,6.7862,7.3158,-0.0097738,0.020159,-0.007025
-0.017761,3.3146,6.6881,7.2373,-0.0067195,0.019548,-0.0039706
-0.013214,3.4716,6.7862,7.1589,-0.007025,0.018631,-0.0045815
-0.015198,3.4323,6.7274,7.1589,-0.0082467,0.01741,-0.0039706
-0.009552,3.2558,6.8058,7.2373,-0.0097738,0.017715,-0.0048869
-0.0097961,3.4127,6.7862,7.0804,-0.01405,0.018326,-0.0054978
-0.010773,3.4127,6.845,7.1589,-0.018937,0.017715,-0.0058032
-0.0065308,3.2362,6.8058,7.2373,-0.021075,0.016188,-0.0012217
0.0032349,3.4912,6.845,7.1589,-0.020464,0.014355,-0.0015272
-0.0028687,3.3735,6.7274,7.1589,-0.018326,0.013439,-0.0073304
-0.0047913,3.3931,6.7274,7.1589,-0.01405,0.01405,-0.0067195
-0.004303,3.1577,6.8058,7.2373,-0.0085521,0.01405,-0.0045815
0.0032043,3.55,6.8058,7.1785,-0.0058032,0.013134,-0.0033598
-0,3.2558,6.8058,7.2373,-0.0064141,0.013134,-0.0030543
0.006897,3.2558,6.8254,7.1196,-0.009163,0.01405,-0.0012217
0.0095215,3.4912,6.6489,7.1392,-0.010996,0.014661,0.0079412
0.011414,3.2166,6.8058,7.1785,-0.01405,0.013439,0.009163
0.0049438,3.4127,6.7274,7.1392,-0.01741,0.013134,-0.00030543
0.007843,3.3146,6.7274,7.2961,-0.019853,0.012523,0
0.026642,3.1774,6.8058,7.2373,-0.020159,0.013439,0.00061087
0.027679,3.4127,6.8058,7.0608,-0.016493,0.014661,0.0030543
0.019775,3.2754,6.747,7.1589,-0.011912,0.015272,0.0058032
0.023682,3.4912,6.6881,7.0608,-0.007025,0.016188,0.0082467
0.020416,3.5304,6.7862,7.1589,-0.0033598,0.01741,0.0015272
0.02005,3.4716,6.8254,7.1589,-0.0048869,0.018937,0.002138
0.017365,3.4912,6.8254,7.1589,-0.0079412,0.018937,0.0079412
0.0062256,3.4127,6.8058,7.1589,-0.012523,0.018937,0.0076358
0.0024414,3.4127,6.7274,7.0608,-0.013134,0.019853,0.0045815
0.0019531,3.4323,6.8058,7.1589,-0.013134,0.018631,0.0030543
0.0022888,3.4912,6.8058,7.1589,-0.014661,0.018326,0.0018326
0.0020447,3.4716,6.8254,7.1392,-0.012217,0.017715,0
0.0036926,3.3735,6.7862,7.1392,-0.019853,0.011301,0.0058032
0.0049133,3.1774,6.8254,7.2373,-0.02138,0.011606,0.0076358
0.026947,3.4127,6.747,7.1392,-0.021991,0.0097738,-0.0039706
0.027985,3.4912,6.8254,7.1589,-0.023518,0.0088575,-0.0015272
0.025574,3.3931,6.6881,7.2373,-0.021686,0.0094684,0.0009163
0.033783,3.4127,6.8058,7.1589,-0.020464,0.011912,0.0024435
0.024872,3.4127,6.8058,7.1589,-0.017104,0.014661,0.0042761
0.043518,3.4912,6.8058,7.2373,-0.010385,0.016493,0.0051924
0.027374,3.4912,6.6881,7.1392,-0.01405,0.016799,-0.0012217
0.040039,3.55,6.8058,7.1589,-0.015882,0.018021,0.0015272
0.044678,3.4912,6.7274,7.0608,-0.018937,0.021075,0.0073304
0.048645,3.5304,6.8254,7.2373,-0.016188,0.022602,0.0030543
0.048431,3.3931,6.7274,7.1392,-0.012523,0.023213,0.00030543
0.051575,3.2754,6.7862,7.1589,-0.010996,0.022297,-0.0027489
0.052063,3.3146,6.8058,6.9823,-0.0082467,0.019242,-0.0051924
0.061462,3.4323,6.8058,7.1196,-0.012523,0.016493,-0.0036652
0.064453,3.3146,6.8058,7.1196,-0.020464,0.01405,0.0064141
0.06488,3.4912,6.8058,7.1589,-0.027794,0.012828,0.0079412
0.061981,3.3931,6.6685,7.1589,-0.033598,0.010079,0.002138
0.05603,3.4127,6.8254,7.1785,-0.036652,0.0076358,0.00030543
0.060699,3.4323,6.8058,7.1392,-0.034819,0.0097738,-0.00061087
0.063385,3.3146,6.8058,7.1196,-0.028405,0.012828,0.00061087
0.059998,3.4912,6.8058,7.1589,-0.010385,0.01405,0.0033598
0.054321,3.1577,6.8058,7.2177,-0.013439,0.015577,0.0039706
0.046844,3.4127,6.9039,7.1392,-0.029016,0.016188,0.0033598
0.036072,3.4912,6.8254,7.1589,-0.017715,0.016493,0.0027489
0.035431,3.5696,6.7862,7.1589,-0.013134,0.017104,0.010385
0.033997,3.3931,6.7274,7.1392,-0.0094684,0.015272,0.012523
0.036926,3.4912,6.7274,7.1785,-0.011301,0.016188,0.013744
0.031464,3.3146,6.8058,7.0019,-0.018937,0.016188,0.013134
0.030243,3.4323,6.8058,7.1589,-0.023213,0.016493,0.0079412
0.031281,3.4912,6.8058,7.2373,-0.027184,0.014661,0.0042761
0.035004,3.5304,6.7274,7.1785,-0.023213,0.013439,0.0085521
0.043884,3.4323,6.7274,7.1589,-0.025351,0.013134,0.0073304
0.070648,3.5304,6.7274,7.1196,-0.022907,0.012523,0.002138
0.078583,3.55,6.8254,7.1589,-0.021991,0.011912,0.0042761
0.07547,3.2166,6.8058,7.2373,-0.020159,0.0097738,0.0036652
0.071228,3.2754,6.7862,7.1589,-0.017104,0.009163,0.0039706
0.071106,3.3146,6.747,7.2373,-0.014355,0.01069,0.0051924
0.077301,3.3146,6.6881,7.1785,-0.012523,0.013134,0.007025
0.079529,3.5696,6.8058,7.1589,-0.014661,0.012217,-0.0064141
0.079041,3.3146,6.8058,7.2373,-0.017104,0.0085521,-0.0076358
0.066589,3.3146,6.7862,7.0608,-0.023824,0.010385,0.0045815
0.05722,3.3146,6.7274,7.0019,-0.028405,0.014355,0.0033598
0.070038,3.2558,6.8058,7.2177,-0.02474,0.016188,0.0033598
0.072784,3.3146,6.747,7.0608,-0.018326,0.015882,0
0.058685,3.3146,6.7862,7.1392,-0.013439,0.017104,-0.0042761
0.069916,3.4323,6.8058,7.1589,-0.010996,0.015882,-0.0045815
0.074646,3.55,6.7274,7.2373,-0.011912,0.014966,-0.0067195
0.064056,3.5304,6.8058,7.2373,-0.018021,0.018631,-0.0039706
0.076355,3.4127,6.7274,7.1196,-0.019548,0.017715,-0.0097738
0.060883,3.4912,6.7274,7.1785,-0.02138,0.014661,-0.012217
0.057709,3.3146,6.6881,7.2373,-0.02138,0.014661,-0.013134
0.071686,3.4912,6.8058,7.1589,-0.020464,0.016188,-0.011301
0.085266,3.5696,6.7862,7.1785,-0.018631,0.016799,-0.0076358
0.069092,3.2558,6.8058,7.2961,-0.016493,0.016493,-0.0073304
0.060364,3.4127,6.6881,7.1392,-0.019242,0.012523,-0.00030543
0.05365,3.3735,6.7862,7.1785,-0.015577,0.013134,0.0015272
0.047394,3.3146,6.7274,7.2373,-0.014661,0.010996,-0.0067195
0.036652,3.3735,6.8058,7.0608,-0.018326,0.0097738,-0.007025
0.029694,3.4323,6.747,7.1589,-0.018631,0.011301,-0.0058032
0.033417,3.2558,6.7862,7.2373,-0.021075,0.012523,-0.0033598
0.029938,3.55,6.7274,7.2373,-0.023824,0.013134,-0.00061087
0.028168,3.5696,6.6489,7.1392,-0.022602,0.012828,0
0.029785,3.4716,6.7274,7.1392,-0.025351,0.014661,-0.0036652
0.046478,3.3343,6.7274,7.0608,-0.023518,0.012523,-0.0030543
0.05545,3.4912,6.6489,7.1589,-0.021991,0.016188,-0.014355
0.066956,3.5304,6.7862,7.1785,-0.017104,0.018021,-0.010996
0.066559,3.3343,6.8058,7.1196,-0.012523,0.018326,-0.0067195
0.061768,3.4127,6.8058,7.1589,-0.012523,0.018937,-0.0042761
0.06134,3.3343,6.8058,7.0608,-0.026267,0.018021,-0.0027489
0.059418,3.2558,6.8058,7.2373,-0.026573,0.016799,-0.0033598
0.054565,3.3146,6.7862,7.2373,-0.016493,0.016799,0.00030543
0.04892,3.2754,6.7862,7.1785,-0.019853,0.016493,0.0009163
0.056976,3.3931,6.7274,7.0216,-0.023518,0.016493,0
0.070435,3.5304,6.8058,7.1589,-0.022297,0.016188,0.0015272
0.07605,3.2754,6.8058,7.2765,-0.018937,0.015577,0.0009163
0.068268,3.2362,6.8058,7.2373,-0.014661,0.016799,0.0012217
0.068787,3.2166,6.8058,7.2177,-0.012523,0.017104,0.0012217
0.07605,3.4127,6.7862,7.1196,-0.01405,0.016493,0
0.069427,3.3931,6.747,7.1589,-0.010996,0.020769,-0.010079
0.06723,3.4912,6.6881,7.1589,-0.0073304,0.020769,-0.015882
0.07254,3.5304,6.7274,7.1589,-0.01069,0.023213,0.007025
0.07724,3.2558,6.8058,7.2373,-0.011912,0.024129,0.0039706
0.073822,3.4716,6.8058,7.0804,-0.011912,0.023518,0.0012217
0.076599,3.4323,6.8058,7.1785,-0.01405,0.022602,-0.0030543
0.080536,3.4323,6.7274,7.1589,-0.015882,0.020769,-0.0054978
0.076233,3.3146,6.7274,7.1196,-0.018631,0.020464,-0.0051924
0.077515,3.2558,6.8058,7.2373,-0.019853,0.019242,-0.017715
0.071442,3.4323,6.7274,7.1589,-0.021686,0.020464,-0.016799
0.067444,3.4912,6.8254,7.1392,-0.020159,0.016493,-0.018326
0.051575,3.2558,6.7862,7.2373,-0.018326,0.013439,-0.020769
0.051086,3.5696,6.747,7.1785,-0.01741,0.014355,-0.022907
0.052917,3.4127,6.7862,7.1589,-0.018631,0.014355,-0.021075
0.042328,3.4127,6.8058,7.1392,-0.021075,0.014355,-0.019548
0.025421,3.4127,6.8058,7.1589,-0.024435,0.01405,-0.018937
0.035248,3.4912,6.8058,7.1589,-0.012523,0.014966,0.0030543
0.059723,3.4127,6.747,7.3158,-0.014966,0.015577,0.0009163
0.070496,3.5304,6.7274,7.1785,-0.017715,0.016493,0.010385
0.077606,3.3735,6.7862,7.0216,-0.017715,0.017104,0.0079412
0.069916,3.4912,6.8058,7.2373,-0.016188,0.018631,0.0082467
0.06485,3.4912,6.6489,7.0608,-0.014355,0.020464,0.007025
0.07019,3.4912,6.8058,7.1589,-0.010079,0.019853,0.0061087
0.063477,3.4912,6.6685,7.1392,-0.0085521,0.018937,0.0042761
0.056946,3.3931,6.8058,7.1589,-0.029016,0.0094684,-0.002138
0.049622,3.4716,6.7862,7.1785,-0.0281,0.0048869,-0.0039706
0.048035,3.3146,6.747,7.0019,-0.023824,0.0073304,-0.0030543
0.039429,3.4323,6.7274,7.1392,-0.018937,0.010385,0.00030543
0.037262,3.3931,6.7274,7.1589,-0.013134,0.013744,0.0027489
0.029419,3.5304,6.7274,7.1785,-0.0094684,0.016799,0.0024435
0.029541,3.4912,6.8254,7.1589,-0.012828,0.015882,0.0018326
0.016693,3.4912,6.7274,7.1196,-0.019548,0.016493,0
0.014801,3.2558,6.7862,7.2177,-0.025962,0.018326,-0.0012217
0.014069,3.5696,6.6881,7.2765,-0.025962,0.018631,-0.00061087
0.023041,3.4912,6.8058,7.2177,-0.025351,0.01741,-0.0067195
0.022369,3.4127,6.8058,7.1589,-0.023824,0.015882,-0.0067195
0.022552,3.3931,6.7862,7.1589,-0.020159,0.015882,-0.0048869
0.024902,3.2558,6.7274,7.2373,-0.016799,0.014966,-0.0027489
0.01712,3.3931,6.6685,7.2373,-0.014966,0.015577,-0.0027489
0.026367,3.3735,6.747,7.1589,-0.018021,0.015577,-0.0030543
0.021667,3.3343,6.7862,7.1589,-0.020159,0.01405,0.01069
0.018372,3.4127,6.8058,7.1589,-0.024435,0.012217,0.010996
0.016998,3.3343,6.6881,7.2177,-0.027184,0.011912,-0.0009163
0.013489,3.3343,6.7862,7.2765,-0.027184,0.012523,-0.00030543
0.020569,3.3146,6.8058,7.2373,-0.023518,0.013744,0.0018326
0.029663,3.3931,6.8058,7.1589,-0.017104,0.013439,0.0042761
0.022186,3.4716,6.7274,7.1589,-0.013439,0.012828,0.0073304
0.022705,3.5304,6.6685,7.2373,-0.011301,0.012523,0.0088575
0.020477,3.4912,6.6293,7.1785,-0.00061087,0.013134,-0.020159
0.026917,3.5696,6.6489,7.1589,-0.0024435,0.011301,-0.016799
0.047333,3.3146,6.7862,7.0608,-0.0073304,0.010385,-0.0048869
0.060303,3.4323,6.7274,7.1589,-0.011912,0.0079412,-0.009163
0.061707,3.4127,6.7862,7.1196,-0.018021,0.009163,-0.013744
0.061188,3.55,6.6293,7.1392,-0.022602,0.011301,-0.016799
0.057495,3.2362,6.8058,7.2177,-0.0088575,0.011912,-0.018021
0.060211,3.3146,6.7862,7.2373,-0.0015272,0.01405,-0.02138
0.060822,3.4912,6.6685,7.1589,-0.019242,0.018021,-0.002138
0.068207,3.5304,6.7274,7.2373,-0.017715,0.015272,-0.002138
0.066528,3.4127,6.7274,7.1589,-0.016493,0.014661,-0.0061087
0.059174,3.55,6.8058,7.1589,-0.014661,0.014661,-0.0045815
0.058289,3.4127,6.8058,7.1589,-0.01069,0.016188,-0.0045815
0.056976,3.55,6.6881,7.1392,-0.007025,0.018021,-0.0051924
0.054352,3.4127,6.7274,7.1589,-0.0054978,0.018937,-0.0048869
0.054413,3.4912,6.7862,7.1589,-0.0073304,0.018937,-0.0030543
0.054169,3.2754,6.7274,7.2373,-0.013134,0.022602,0.009163
0.060242,3.2754,6.7862,7.2373,-0.014661,0.025351,0.011606
0.056854,3.4127,6.8058,7.1589,-0.017715,0.022907,-0.002138
0.063568,3.4912,6.747,7.1785,-0.018937,0.020769,-0.0024435
0.048523,3.3146,6.747,7.2373,-0.01741,0.019548,0.00061087
0.059265,3.2558,6.7274,7.2373,-0.013134,0.018326,0.0033598
0.04892,3.1774,6.7274,7.2177,-0.0079412,0.018021,0.0045815
0.02774,3.3931,6.6685,7.1785,-0.01069,0.01741,0.007025
0.03833,3.2558,6.8058,7.1785,-0.012217,0.018326,-0.00030543
0.026031,3.3146,6.7274,7.2373,-0.013744,0.018326,-0.0033598
0.029266,3.3735,6.7862,7.1785,-0.01741,0.016493,0.011912
0.021454,3.5304,6.747,7.2373,-0.020769,0.016188,0.01069
0.015991,3.55,6.7274,7.2373,-0.017715,0.016188,0.01069
0.012482,3.4912,6.7274,7.1392,-0.01405,0.016493,0.0097738
0.016998,3.4127,6.8058,7.1589,-0.0097738,0.017715,0.0079412
0.0061951,3.3735,6.747,7.0804,-0.010996,0.015272,0.0045815
0.011017,3.55,6.7274,7.1589,-0.022907,0.0082467,0.0012217
0.0040283,3.4127,6.7862,7.2765,-0.021075,0.0051924,0.002138
0.014832,3.4912,6.8058,7.0608,-0.018631,0.0076358,-0.0073304
0.014069,3.2558,6.7862,7.2373,-0.014661,0.0085521,-0.0042761
0.015778,3.2558,6.8058,7.2961,-0.013439,0.0079412,0.00030543
0.012207,3.3931,6.7862,7.1785,-0.014355,0.011912,0.0009163
0.01181,3.4912,6.8254,7.1589,-0.015577,0.013744,0.00030543
0.0062256,3.2558,6.8058,7.1785,-0.015882,0.015577,0.00061087
-0.004364,3.5304,6.6881,7.1589,-0.014661,0.015272,-0.0009163
-0.015106,3.5304,6.7274,7.1785,-0.011606,0.015882,0.0012217
0.01297,3.4127,6.8058,7.1589,-0.011301,0.014966,0.0015272
0.0021973,3.4912,6.8058,7.1196,-0.011912,0.014966,-0.00030543
0.011627,3.2166,6.7274,7.2373,-0.010996,0.014661,0
0.019989,3.2558,6.7274,7.2373,-0.011606,0.012828,0.0012217
0.014374,3.2362,6.8058,7.2373,-0.01405,0.012217,0.002138
0.022064,3.5696,6.7862,7.1392,-0.018021,0.012523,-0.00030543
0.029633,3.4912,6.8058,7.1785,-0.022907,0.012523,0.0082467
0.031952,3.2558,6.7274,7.2373,-0.025656,0.014661,0.0064141
0.02951,3.3735,6.7862,7.1589,-0.019548,0.014661,0.0012217
0.034668,3.55,6.6685,7.1392,-0.014661,0.015882,0.0027489
0.024597,3.5304,6.7274,7.1589,-0.01069,0.018631,0.0058032
0.018951,3.2166,6.8058,7.2373,-0.0045815,0.019853,0.007025
0.021973,3.2362,6.7862,7.2373,0,0.020769,0.0061087
0.01712,3.4127,6.6881,7.1589,0.00061087,0.02138,0.0079412
0.016693,3.1774,6.8058,7.2961,0.00061087,0.021991,-0.0097738
0.010864,3.4716,6.7274,7.1392,-0.00030543,0.019242,-0.009163
0.0058594,3.3931,6.7862,7.1589,-0.0076358,0.019242,0.0064141
0.00027466,3.4912,6.6685,7.1196,-0.01405,0.018937,0.0036652
-0.0051575,3.3735,6.7862,7.0608,-0.016493,0.018326,-0.00061087
-0.015533,3.3146,6.8058,7.0608,-0.018937,0.016493,-0.0045815
-0.0065918,3.4912,6.7274,7.1785,-0.019242,0.014355,-0.007025
0.0040894,3.4912,6.6685,7.1589,-0.01741,0.013134,-0.0094684
0.0052185,3.55,6.7274,7.2373,-0.014355,0.016188,-0.00061087
0.010956,3.5696,6.6685,7.0608,-0.016493,0.014355,-0.0018326
0.041138,3.6285,6.7862,7.1785,-0.015272,0.015577,0.0042761
0.0495,3.2558,6.8058,7.2373,-0.015577,0.017104,0.0030543
0.053894,3.2754,6.8058,7.2373,-0.014966,0.018326,0.00061087
0.046478,3.4912,6.8058,7.1392,-0.013744,0.018631,0.0009163
0.048767,3.1774,6.8058,7.2373,-0.012523,0.015577,-0.00030543
0.054993,3.4716,6.7274,7.1589,-0.012523,0.015577,-0.0018326
0.044464,3.5696,6.8058,7.1589,-0.014966,0.017104,-0.002138
0.042786,3.55,6.747,7.1589,-0.014966,0.02138,-0.0048869
0.043793,3.3931,6.6881,7.1589,-0.016188,0.019242,-0.002138
0.040405,3.4127,6.8058,7.1589,-0.015882,0.016799,-0.002138
0.027527,3.55,6.8058,7.1589,-0.015272,0.016799,-0.0030543
0.032043,3.3146,6.747,7.2177,-0.013744,0.015882,-0.0024435
0.021912,3.3146,6.7274,7.1785,-0.014661,0.016493,-0.0048869
0.015106,3.4912,6.747,7.1785,-0.015882,0.01741,-0.0033598
0.017151,3.3735,6.7274,7.1196,-0.018326,0.018021,-0.00061087
0.01474,3.4912,6.6881,7.1589,-0.018326,0.013744,0.00030543
0.0063171,3.3931,6.7274,7.0216,-0.01741,0.011606,-0.0042761
0.010132,3.4323,6.7274,7.1392,-0.01741,0.012828,-0.0042761
0.012817,3.4127,6.7862,7.1196,-0.01741,0.013134,-0.0039706
0.0044556,3.5304,6.6489,7.1196,-0.018326,0.013134,-0.0027489
0.00354,3.4127,6.8058,7.1589,-0.013134,0.014355,-0.0012217
-0.014069,3.2754,6.7274,7.2373,-0.015577,0.017104,0
-0.013275,3.5304,6.6685,7.1589,-0.018631,0.014355,0.0033598
-0.015228,3.4912,6.7862,7.2177,-0.020769,0.015272,0.0033598
-0.017426,3.4127,6.7862,7.1392,-0.019548,0.015272,0.00061087
-0.021118,3.5304,6.6489,7.1589,-0.014966,0.015882,0.0033598
-0.022064,3.5696,6.8058,7.1785,-0.014355,0.016188,0.0039706
-0.030762,3.5304,6.8058,7.1589,-0.014355,0.015577,0.0036652
-0.042297,3.4127,6.7862,7.1589,-0.014661,0.016493,0.0036652
-0.041351,3.4912,6.7274,7.1589,-0.01405,0.017715,0.0036652
-0.029724,3.4716,6.7862,7.1589,-0.0088575,0.016188,-0.011912
-0.040588,3.4912,6.6881,7.2373,-0.0085521,0.019548,-0.010079
-0.01828,3.5304,6.8058,7.2177,-0.010996,0.02138,-0.010996
-0.019409,3.3146,6.747,7.0608,-0.012523,0.022297,-0.0088575
-0.025177,3.2558,6.7862,7.2373,-0.01069,0.022907,-0.0088575
-0.015991,3.3931,6.6685,7.2961,-0.0094684,0.021075,-0.010385
-0.013336,3.5696,6.8058,7.1589,-0.010996,0.018937,-0.011606
-0.01181,3.4323,6.7274,7.1196,-0.013439,0.016493,-0.013439
-0.013489,3.2558,6.8254,7.2177,-0.014355,0.014966,-0.011606
-0.016602,3.4912,6.7274,7.1785,-0.014966,0.013744,-0.011606
-0.0031738,3.4127,6.8254,7.1589,-0.016799,0.014355,-0.010996
-0.0080872,3.3931,6.8058,7.0804,-0.017715,0.013439,-0.012828
-0.0081787,3.3735,6.7274,7.0608,-0.02138,0.012217,-0.015272
-0.017914,3.2166,6.8058,7.2373,-0.022297,0.013134,-0.015577
-0.018646,3.3931,6.6685,7.1785,-0.022297,0.012523,-0.013744
-0.0053406,3.5696,6.8058,7.1589,-0.023518,0.013134,-0.012217
-0.02002,3.4127,6.8058,7.1392,-0.015882,0.012828,-0.0009163
-0.012238,3.4127,6.8058,7.1589,-0.022907,0.011606,-0.0018326
-0.015717,3.3146,6.8058,7.1196,-0.020464,0.013744,-0.010079
-0.013367,3.5696,6.6489,7.1589,-0.019548,0.014966,-0.0076358
-0.0050659,3.3146,6.6881,7.1785,-0.015882,0.016188,-0.0048869
-0.016052,3.3146,6.7862,7.1589,-0.014966,0.016493,-0.0018326
-0.009491,3.2754,6.8058,7.1392,-0.014966,0.015882,0.00061087
-0.0032349,3.4912,6.8058,7.2177,-0.013744,0.015577,0.00030543
-0.015381,3.4912,6.7274,7.1589,-0.0036652,0.021991,-0.009163
-0.013184,3.4912,6.8058,7.1589,-0.0045815,0.019853,-0.011606
-0.01944,3.3146,6.7862,7.1196,-0.0039706,0.019242,-0.0015272
-0.025299,3.5304,6.6293,7.1392,-0.007025,0.018021,-0.0024435
-0.030121,3.5304,6.7862,7.1589,-0.010996,0.015882,-0.0048869
-0.029663,3.55,6.7862,7.1589,-0.010996,0.015272,-0.0079412
-0.03186,3.5304,6.8058,7.1785,-0.01069,0.015577,-0.007025
-0.028015,3.3343,6.8058,7.0608,-0.0094684,0.015577,-0.007025
-0.031403,3.4127,6.7274,7.1589,-0.023213,0.012523,0.0015272
-0.029907,3.4127,6.8058,7.1196,-0.020159,0.013439,-0.0027489
-0.0097351,3.3735,6.8058,7.1589,-0.018021,0.013439,0.009163
-0.0082703,3.4912,6.7862,7.0804,-0.015577,0.011606,0.0088575
0.0055847,3.55,6.7862,7.1785,-0.01405,0.013134,0.010079
0.0083923,3.3735,6.7274,7.0608,-0.01405,0.016188,0.0094684
0.0046997,3.4912,6.7274,7.1589,-0.025962,0.015882,0.0054978
-0.0028076,3.3343,6.6881,7.2373,-0.025656,0.013439,0.0036652
-0.0046997,3.4127,6.845,7.1392,-0.022907,0.012828,-0.0030543
-0.0063477,3.4127,6.8058,7.1589,-0.023213,0.011301,0
-0.013031,3.4716,6.7274,7.1785,-0.020769,0.011301,-0.0027489
-0.012726,3.4912,6.6489,7.1589,-0.015882,0.010385,-0.0024435
-0.010895,3.4912,6.7862,7.1589,-0.015577,0.010996,-0.0024435
-0.017456,3.55,6.7274,7.0804,-0.01741,0.012217,-0.0045815
-0.013947,3.4912,6.747,7.2373,-0.019548,0.012523,-0.0045815
-0.020172,3.4912,6.6881,7.1589,-0.02474,0.011301,-0.0036652
-0.018829,3.4323,6.8058,7.0804,-0.021686,0.014355,-0.0024435
-0.026672,3.3735,6.7274,7.1196,-0.022907,0.014355,-0.00030543
-0.030304,3.4716,6.6489,7.1589,-0.026267,0.013439,-0.00061087
-0.029785,3.3931,6.8058,7.1589,-0.0281,0.012828,-0.00061087
-0.031647,3.2754,6.7274,7.1196,-0.026878,0.012217,-0.0027489
-0.038025,3.4127,6.7862,7.0608,-0.024129,0.012523,-0.002138
-0.031006,3.4716,6.8058,7.1589,-0.022297,0.011912,-0.002138
-0.031891,3.2754,6.7274,7.2373,-0.023824,0.010996,-0.0036652
-0.044067,3.4127,6.8058,7.1392,-0.027794,0.010385,0.011912
-0.04892,3.3146,6.7862,7.0804,-0.027184,0.010385,0.011606
-0.067688,3.4716,6.8058,7.1589,-0.025045,0.011301,0.0015272
-0.059998,3.4127,6.8058,7.1392,-0.022602,0.011912,0.002138
-0.052582,3.3146,6.7274,7.0804,-0.02138,0.012217,0.0012217
-0.056885,3.4127,6.8058,7.1785,-0.021686,0.011606,0.0048869
-0.054871,3.3146,6.8058,7.2373,-0.026267,0.010996,0.0076358
-0.05426,3.55,6.8058,7.1785,-0.027489,0.012523,0.0094684
-0.044128,3.3735,6.7862,7.1589,-0.011606,0.020769,-0.0012217
-0.032959,3.2754,6.7274,7.2373,-0.01405,0.018326,-0.0024435
-0.015961,3.4127,6.8058,7.1589,-0.014966,0.018631,-0.0027489
-0.0049133,3.5304,6.7274,7.1196,-0.014355,0.019242,-0.0018326
-0.010681,3.5304,6.6489,7.1589,-0.015272,0.017715,0.0018326
-0.0076599,3.5304,6.7274,7.1785,-0.013439,0.018326,0.0018326
-0.0093079,3.4912,6.747,7.1785,-0.011606,0.018326,0.0009163
0.0021973,3.55,6.6489,7.1589,-0.010079,0.016799,0.0009163
-0.004425,3.5696,6.6685,7.1589,-0.010385,0.015882,0.0042761
-0.0025635,3.2754,6.7862,7.2373,-0.0094684,0.022297,0.0024435
0.0038452,3.4912,6.8058,7.1589,-0.0082467,0.022297,0.0009163
0.014832,3.4912,6.7862,7.1196,-0.0085521,0.020769,0.0048869
0.014313,3.5696,6.8058,7.1392,-0.0079412,0.02138,0.0067195
0.012177,3.55,6.6881,7.2373,-0.0079412,0.02138,0.0076358
0.023102,3.5304,6.7862,7.2765,-0.0094684,0.021686,0.0076358
0.012634,3.3735,6.7274,7.1196,-0.0088575,0.022297,0.0058032
0.025177,3.4912,6.7862,7.1785,-0.009163,0.021991,-0.0064141
0.043396,3.3146,6.6685,7.1589,-0.012828,0.019548,-0.0064141
0.020111,3.3146,6.747,7.1196,-0.012217,0.016493,0.00030543
0.019684,3.5304,6.6685,7.1589,-0.011301,0.014966,-0.0015272
0.016205,3.55,6.7862,7.2373,-0.013134,0.013134,-0.002138
0.018494,3.4127,6.7862,7.1392,-0.014661,0.010996,-0.0030543
0.016907,3.2754,6.8058,7.2373,-0.015272,0.011606,-0.0036652
0.020721,3.2558,6.8058,7.2373,-0.012828,0.013439,-0.0058032
0.023499,3.5304,6.8058,7.1589,-0.012523,0.015577,-0.0042761
0.013458,3.4127,6.8058,7.1392,-0.013744,0.01741,-0.0027489
0.012451,3.2558,6.747,7.1589,-0.01405,0.01405,-0.0079412
0.0012512,3.4912,6.8058,7.2177,-0.010996,0.013439,-0.009163
0.0046997,3.3735,6.7274,7.0804,-0.010996,0.015882,-0.0088575
0.0028687,3.5304,6.6881,7.1392,-0.0094684,0.018021,-0.0045815
0.0023804,3.2754,6.7862,7.2177,-0.0094684,0.020464,-0.0045815
0.010986,3.4127,6.7862,7.2373,-0.010996,0.02138,-0.0054978
0.011688,3.4912,6.8058,7.1196,-0.01069,0.014355,-0.0012217
0.01947,3.4127,6.7274,7.1785,-0.007025,0.011912,-0.00030543
0.040283,3.2558,6.7862,7.1392,-0.0097738,0.013439,0.00061087
0.044434,3.4127,6.7862,7.1392,-0.014661,0.014661,0.0024435
0.03537,3.4323,6.8058,7.1589,-0.018021,0.013134,0.002138
0.044098,3.2166,6.8254,7.2373,-0.019242,0.013134,-0.0015272
0.035583,3.5304,6.7274,7.2177,-0.016188,0.013744,-0.0030543
0.035339,3.4912,6.6489,7.1589,-0.013439,0.014661,-0.0018326
0.041473,3.5304,6.8058,7.1392,-0.01741,0.014661,-0.0018326
0.033875,3.5304,6.8058,7.1589,-0.01741,0.016188,-0.0030543
0.028992,3.3146,6.6685,7.2373,-0.016493,0.013744,-0.00030543
0.019104,3.4323,6.7862,7.1392,-0.011606,0.012523,-0.0012217
0.029388,3.3735,6.747,7.1196,-0.0088575,0.015272,0
0.015961,3.3146,6.7862,7.1196,-0.011301,0.018326,0.0030543
0.018677,3.4912,6.8058,7.1589,-0.014661,0.019242,0.002138
0.014679,3.4127,6.8058,7.2177,-0.018631,0.018021,-0.00030543
0.016998,3.4127,6.8058,7.1196,-0.023824,0.016799,-0.0058032
0.01416,3.4912,6.747,7.1589,-0.02474,0.01405,-0.0033598
0.021118,3.4912,6.7274,7.1589,-0.024129,0.015272,-0.0051924
0.013397,3.5304,6.8254,7.1589,-0.019853,0.014966,-0.0076358
0.013672,3.2558,6.8058,7.2373,-0.016493,0.014355,-0.007025
0.015686,3.5304,6.7862,7.1589,-0.015272,0.014966,-0.0061087
0.013428,3.55,6.7274,7.1589,-0.016799,0.015882,-0.0054978
0.0049744,3.4912,6.7862,7.1392,-0.020769,0.015272,-0.0058032
0.00012207,3.3146,6.8058,7.2373,-0.019242,0.016188,0.0024435
0.0027161,3.2558,6.8058,7.2373,-0.02138,0.018021,0.0033598
0.00036621,3.5304,6.7274,7.1589,-0.022602,0.015577,-0.0018326
-0.0084534,3.3146,6.7274,7.2765,-0.018631,0.012828,-0.0018326
0.0046387,3.3931,6.8058,7.1785,-0.015577,0.012828,-0.0027489
0.0097656,3.4912,6.8254,7.1589,-0.01405,0.012523,-0.0027489
-0.0016785,3.4912,6.8058,7.1589,-0.016799,0.011301,-0.0009163
0.0074768,3.2166,6.7862,7.2373,-0.020464,0.011912,0.0012217
9.1553e-05,3.3343,6.7274,7.1589,-0.032987,0.0073304,-0.0045815
0.010895,3.4716,6.6489,7.2177,-0.030543,0.010385,-0.0042761
0.022461,3.55,6.7274,7.1392,-0.025962,0.011301,-0.0039706
0.029114,3.4323,6.7862,7.1589,-0.021686,0.011301,-0.0064141
0.044128,3.3931,6.747,7.1392,-0.020464,0.01069,-0.0054978
0.050903,3.4912,6.8058,7.1589,-0.024435,0.012217,-0.0036652
0.059296,3.4912,6.6489,7.1392,-0.026267,0.014661,-0.0042761
0.052887,3.5696,6.7862,7.1589,-0.027184,0.016188,-0.0058032
0.055847,3.5696,6.7862,7.1589,-0.027184,0.016799,-0.0018326
0.053314,3.2558,6.7862,7.2373,-0.02474,0.014355,-0.0027489
0.049896,3.3931,6.8058,7.0804,-0.022602,0.015272,-0.0042761
0.046814,3.3343,6.7862,7.1589,-0.019548,0.014661,-0.0042761
0.047211,3.55,6.747,7.1196,-0.013744,0.013134,-0.0027489
0.069702,3.4127,6.8058,7.1589,-0.0094684,0.013744,-0.00030543
0.059204,3.55,6.6881,7.1392,-0.0064141,0.013134,0.00061087
0.056702,3.4912,6.7274,7.1589,-0.009163,0.012828,-0.00061087
0.052338,3.55,6.6881,7.1589,-0.012828,0.014661,-0.00061087
0.059387,3.5892,6.7862,7.1589,-0.016188,0.016188,-0.0012217
0.053314,3.4323,6.747,7.1196,-0.022297,0.014966,-0.0033598
0.053802,3.2362,6.7862,7.2373,-0.022907,0.013744,-0.0042761
0.044861,3.4127,6.7862,7.1392,-0.02138,0.012217,-0.0030543
0.048798,3.55,6.747,7.1785,-0.018326,0.011606,-0.002138
0.056366,3.2754,6.8058,7.2765,-0.013134,0.013744,-0.002138
0.053162,3.4127,6.8254,7.1589,-0.010079,0.014966,-0.0009163
0.045654,3.2362,6.7862,7.2765,-0.0064141,0.016188,0.0015272
0.040588,3.3931,6.6489,7.1785,-0.0097738,0.015272,0.0009163
0.024628,3.3146,6.6881,7.2373,-0.012828,0.014661,0.0009163
0.020233,3.3343,6.7274,7.2373,-0.016188,0.016799,0.0009163
0.02182,3.4127,6.747,7.1589,-0.019242,0.018021,0.00030543
0.020599,3.2558,6.7862,7.1785,-0.019548,0.019242,0.0012217
0.015167,3.3931,6.747,7.1589,-0.018937,0.019548,0.0024435
0.021667,3.5304,6.6489,7.1589,-0.016493,0.019548,0.0027489
0.01886,3.4716,6.7862,7.1589,-0.030543,0.015272,-0.012523
0.023376,3.3146,6.8058,7.1589,-0.025962,0.015272,-0.0097738
0.021881,3.4127,6.7274,7.1589,-0.021686,0.017104,-0.016799
0.045502,3.5696,6.7274,7.1589,-0.020769,0.01741,-0.014966
0.050476,3.4912,6.7862,7.1589,-0.020769,0.016188,-0.016493
0.05014,3.3735,6.7862,7.1196,-0.022602,0.01405,-0.016493
0.04364,3.5304,6.8058,7.1589,-0.034208,0.01405,-0.015882
0.043762,3.4912,6.8058,7.1196,-0.03543,0.012828,-0.015577
0.045044,3.3735,6.7274,7.1589,-0.019548,0.012523,0.0030543
0.029114,3.3931,6.7274,7.1392,-0.018326,0.010079,0.0039706
0.031616,3.3146,6.8058,7.1392,-0.019548,0.010385,-0.0073304
0.025726,3.5696,6.747,7.1392,-0.019853,0.01405,-0.0042761
0.03067,3.4127,6.7862,7.1785,-0.018631,0.016493,-0.0015272
0.028931,3.5892,6.6293,7.1589,-0.020769,0.018021,-0.00030543
0.020233,3.5696,6.6881,7.2373,-0.022907,0.018631,0.0012217
0.021332,3.4912,6.7862,7.1785,-0.020464,0.018937,0.0018326
0.011017,3.4127,6.8058,7.1589,-0.021075,0.019548,0.0079412
-0.00015259,3.5696,6.8058,7.1785,-0.021075,0.019548,0.0061087
0.013916,3.55,6.6489,7.1589,-0.019548,0.019242,0.0064141
0.0011902,3.55,6.6489,7.1589,-0.017104,0.018021,0.009163
-0.00015259,3.2166,6.7274,7.1785,-0.014966,0.017104,0.0085521
0.00094604,3.4127,6.7862,7.1589,-0.013134,0.017104,0.0073304
-0.0043335,3.2558,6.7274,7.1785,-0.024435,0.018021,0.0094684
0.0039673,3.4127,6.6881,7.0608,-0.022297,0.016799,0.0094684
0.0085449,3.1577,6.8058,7.2177,-0.031154,0.014661,-0.020769
0.0069885,3.4323,6.8058,7.1589,-0.022297,0.021686,-0.019548
0.0050659,3.4127,6.7862,7.1589,-0.014355,0.020464,-0.0039706
-0.0033875,3.3735,6.6881,7.0216,-0.010996,0.017715,-0.0061087
-0.0014343,3.3931,6.6685,7.2177,-0.013439,0.018326,-0.010385
-0.0015869,3.4127,6.747,7.1785,-0.019548,0.017104,-0.013744
-0.013702,3.3735,6.7274,7.1392,-0.025962,0.016799,-0.015577
-0.0012817,3.4912,6.7862,7.1589,-0.030238,0.016188,-0.019242
-0.010864,3.5304,6.6881,7.2373,-0.0079412,0.017715,0.0079412
0.0027161,3.2558,6.7274,7.2765,-0.011301,0.018631,0.0067195
0.01944,3.3931,6.6881,7.2765,-0.013744,0.01741,0.0024435
0.039154,3.5304,6.6881,7.1589,-0.014661,0.016493,0.0018326
0.031494,3.4716,6.7862,7.2373,-0.015272,0.017104,0.0030543
0.03891,3.3343,6.6489,7.2373,-0.013439,0.017715,0.0045815
0.041595,3.2754,6.7274,7.0804,-0.010079,0.018021,0.0051924
0.042114,3.5304,6.6489,7.1785,-0.0076358,0.01741,0.0067195
0.047089,3.2166,6.8058,7.2765,-0.0061087,0.015272,0.0082467
0.042969,3.3735,6.7274,7.2373,-0.0030543,0.014661,0.0085521
0.038574,3.3931,6.6489,7.2373,-0.0079412,0.016493,0.0064141
0.053467,3.4323,6.8058,7.2373,-0.014966,0.016799,0.007025
0.044098,3.3146,6.7274,7.1589,-0.019242,0.016799,0.0054978
0.044067,3.4912,6.6881,7.2373,-0.022602,0.018937,0.0042761
0.052551,3.4912,6.5901,7.1589,-0.026267,0.02138,0.0061087
0.04306,3.4127,6.6685,7.2765,-0.025351,0.023213,0.0082467
0.037476,3.5304,6.6685,7.1196,-0.016493,0.01405,0.007025
0.048187,3.55,6.747,7.1785,-0.018326,0.015272,0.0048869
0.045166,3.2558,6.7274,7.2373,-0.019853,0.015577,0.0088575
0.057312,3.3735,6.7274,7.2961,-0.019853,0.014966,0.0076358
0.046936,3.3146,6.7274,7.2961,-0.018937,0.01405,0.0085521
0.056427,3.2166,6.7862,7.2373,-0.017715,0.01405,0.0085521
0.04718,3.4127,6.7274,7.1196,-0.015272,0.014661,0.0076358
0.051849,3.5304,6.7274,7.1785,-0.013134,0.014355,0.0088575
0.043365,3.5304,6.6489,7.1392,-0.015577,0.016188,0.0015272
0.053528,3.4127,6.7274,7.1589,-0.018937,0.017715,0.0009163
0.045624,3.2754,6.747,7.2765,-0.018937,0.017104,0.0048869
0.035614,3.3931,6.747,7.0216,-0.018937,0.015272,0.0033598
0.033844,3.55,6.7274,7.1785,-0.018631,0.016188,0.0015272
0.038239,3.2754,6.7862,7.2961,-0.015577,0.018631,0.00030543
0.02948,3.4912,6.6293,7.1392,-0.011606,0.017715,0.00061087
0.036377,3.4323,6.7274,7.1589,-0.0079412,0.017104,0.0030543
0.023529,3.4127,6.7274,7.1196,-0.013134,0.012217,0
0.027435,3.3146,6.8058,7.1785,-0.012828,0.012523,-0.00061087
0.041229,3.5304,6.7274,7.1589,-0.012828,0.016188,-0.00030543
0.056793,3.3931,6.7274,7.0216,-0.011606,0.019242,-0.0018326
0.049194,3.5696,6.6489,7.2373,-0.01069,0.018326,0.00061087
0.045074,3.4127,6.7862,7.2373,-0.011912,0.017715,0.0015272
0.039551,3.4912,6.7274,7.1589,-0.015272,0.018021,0.00030543
0.040314,3.4323,6.8058,7.1589,-0.013134,0.016188,-0.00030543
0.036713,3.4127,6.6881,7.1196,-0.0051924,0.016188,0.0067195
0.040894,3.2558,6.7274,7.2765,-0.0033598,0.013134,0.009163
0.034485,3.4127,6.6881,7.0608,-0.0051924,0.014355,-0.0073304
0.029572,3.55,6.7274,7.1589,-0.019853,0.011301,-0.01069
0.02887,3.2754,6.7274,7.2765,-0.021686,0.011301,-0.0033598
0.031403,3.3146,6.7274,7.1589,-0.024435,0.0097738,-0.0058032
0.044739,3.3931,6.7862,7.1785,-0.027489,0.0085521,-0.0082467
0.045593,3.5696,6.7862,7.1589,-0.028711,0.010385,-0.0097738
0.045593,3.4912,6.7274,7.1589,-0.0048869,0.017104,0.0039706
0.057068,3.3931,6.7274,7.0216,-0.0018326,0.018937,0.0024435
0.054047,3.5696,6.7862,7.2765,-0.002138,0.020464,0.011301
0.063904,3.4323,6.747,7.1196,-0.0033598,0.021686,0.011912
0.069092,3.5304,6.7862,7.1589,-0.0045815,0.020464,0.010385
0.063354,3.4912,6.8254,7.1392,-0.0042761,0.020159,0.009163
0.079315,3.5696,6.7862,7.1589,-0.0048869,0.020769,0.0088575
0.076324,3.55,6.6489,7.1589,-0.0051924,0.019853,0.0064141
0.08252,3.3931,6.6685,7.1785,-0.0030543,0.020464,0.0027489
0.079712,3.4323,6.7274,7.1196,-0.0030543,0.022297,0.00030543
0.082062,3.3343,6.7862,7.1589,-0.0058032,0.020769,0.0018326
0.081573,3.5304,6.7274,7.1589,-0.010079,0.017715,0.002138
0.077515,3.3343,6.7862,7.1196,-0.01405,0.016188,0.0009163
0.075775,3.3146,6.7862,7.1589,-0.016493,0.014355,-0.00030543
0.071899,3.3931,6.7274,7.1589,-0.0039706,0.012523,-0.00061087
0.072266,3.55,6.7862,7.1589,-0.0039706,0.010996,0.0018326
0.06369,3.2166,6.7862,7.1785,-0.024129,0.012523,0.01069
0.085266,3.5696,6.7274,7.2961,-0.021075,0.015577,0.0088575
0.098114,3.5696,6.6881,7.1589,-0.015882,0.013439,-0.0042761
0.1145,3.2558,6.7862,7.2177,-0.01405,0.010996,0.00030543
0.11551,3.4912,6.6685,7.1785,-0.016799,0.01069,0.0045815
0.11411,3.55,6.8058,7.1392,-0.020464,0.011912,0.0045815
0.116,3.3931,6.6489,7.1589,-0.020464,0.013134,0.0048869
0.11508,3.5304,6.6881,7.1589,-0.020769,0.014661,0.0085521
0.10367,3.5696,6.8058,7.1589,-0.013744,0.013134,0.0009163
0.10574,3.5696,6.6881,7.1196,-0.014661,0.0097738,0.0015272
0.099609,3.3146,6.7274,7.1196,-0.017715,0.010385,0.0030543
0.10312,3.2362,6.7274,7.2373,-0.020464,0.013134,0.0015272
0.091553,3.4323,6.7274,7.1589,-0.021075,0.013744,0.0009163
0.10001,3.4127,6.7274,7.1196,-0.019853,0.013134,0.0012217
0.098511,3.4127,6.8058,7.1589,-0.020769,0.012217,0.00061087
0.092529,3.5696,6.7274,7.1785,-0.018937,0.013439,0.00061087
0.094086,3.5696,6.7274,7.1589,-0.018631,0.014355,0
0.085999,3.2362,6.7862,7.2373,-0.020464,0.016188,0.00061087
0.074036,3.2754,6.747,7.2765,-0.020464,0.014966,-0.00061087
0.078491,3.5696,6.6489,7.1196,-0.022602,0.012828,-0.0030543
0.08374,3.5696,6.6489,7.1589,-0.025656,0.012828,-0.0024435
0.069397,3.3931,6.6685,7.1392,-0.024129,0.013134,-0.0009163
0.065643,3.5696,6.7274,7.1589,-0.022297,0.014355,0.00030543
0.072937,3.4716,6.7274,7.2177,-0.019853,0.012523,-0.00061087
0.065369,3.4323,6.7274,7.1392,-0.017104,0.011606,-0.0082467
0.055725,3.4127,6.7862,7.1589,-0.01405,0.010385,-0.0067195
0.059723,3.3146,6.7274,7.1392,-0.013134,0.011912,-0.0015272
0.049347,3.5696,6.6881,7.1589,-0.014355,0.013134,-0.0039706
0.046295,3.2362,6.7274,7.2373,-0.01741,0.013134,-0.0054978
0.033173,3.4127,6.7274,7.1196,-0.023213,0.011606,-0.0067195
0.034576,3.4127,6.7274,7.1589,-0.024435,0.011606,-0.0082467
0.028259,3.3146,6.7274,7.2961,-0.024129,0.012523,-0.0088575
0.022552,3.5696,6.8058,7.1589,-0.019548,0.015272,0.0039706
0.026855,3.3343,6.747,7.1196,-0.013439,0.011606,0.0036652
0.04126,3.4127,6.747,7.1589,-0.0082467,0.013744,0.002138
0.054169,3.5696,6.6489,7.2373,-0.0058032,0.016188,0.0039706
0.061371,3.5696,6.6489,7.1589,-0.0073304,0.015882,0.0036652
0.036835,3.5304,6.7274,7.1589,-0.0085521,0.016493,0.0048869
0.038055,3.4127,6.7274,7.0804,-0.013439,0.017104,0.0051924
0.030182,3.4912,6.6685,7.2765,-0.020464,0.01741,0.0039706
0.025391,3.4127,6.7274,7.2373,-0.020159,0.016188,-0.010079
0.037933,3.4912,6.7862,7.1785,-0.012828,0.017104,-0.014966
0.041107,3.2558,6.7274,7.2373,-0.0027489,0.018937,0.0036652
0.039368,3.4912,6.7862,7.1589,0.002138,0.019548,0.0015272
0.035858,3.55,6.6489,7.1589,0.0012217,0.020464,-0.0015272
0.03772,3.4716,6.6685,7.1392,-0.0036652,0.022297,-0.0048869
0.038818,3.4912,6.7274,7.1589,-0.025351,0.022602,-0.0048869
0.035767,3.55,6.6489,7.1589,-0.023824,0.022602,-0.0048869
0.048035,3.3735,6.6881,7.2373,-0.022297,0.021991,-0.026267
0.052246,3.3146,6.7274,7.1589,-0.020769,0.019242,-0.023824
0.055298,3.3735,6.6685,7.1589,-0.02138,0.019853,-0.018326
0.053833,3.5696,6.6881,7.1785,-0.017104,0.018326,-0.023213
0.05899,3.5696,6.7274,7.2373,-0.011301,0.015882,-0.027489
0.06189,3.2362,6.7862,7.2373,-0.01069,0.015272,-0.030238
0.060333,3.4127,6.7274,7.1392,-0.0085521,0.013744,-0.030238
0.07077,3.5304,6.7274,7.1785,-0.018021,0.010079,-0.028711
0.067566,3.2362,6.6881,7.2373,-0.015577,0.0079412,0.0009163
0.060699,3.3146,6.6881,7.1196,-0.018631,0.0085521,0.0042761
0.057678,3.4127,6.7862,7.1589,-0.020464,0.0085521,-0.019853
0.058014,3.3931,6.6881,7.1589,-0.02138,0.010079,-0.016799
0.050507,3.5304,6.7274,7.2373,-0.017715,0.011912,-0.014661
0.042847,3.2166,6.7862,7.2765,-0.012523,0.012217,-0.009163
0.039673,3.4912,6.7274,7.1589,-0.010996,0.012828,-0.0067195
0.047638,3.5304,6.5901,7.1589,-0.012217,0.014355,-0.0045815
0.048157,3.4716,6.7274,7.1392,-0.03207,0.013134,-0.0054978
0.056915,3.4323,6.7274,7.2373,-0.030238,0.011912,-0.0033598
0.078766,3.55,6.7862,7.2373,-0.030543,0.013439,-0.013439
0.082764,3.3735,6.7274,7.1589,-0.029932,0.015882,-0.012217
0.087219,3.3931,6.7274,7.1589,-0.026878,0.015272,-0.0094684
0.073486,3.4323,6.7274,7.1785,-0.025351,0.013134,-0.0082467
0.084137,3.4912,6.7274,7.1196,-0.028405,0.011912,-0.007025
0.083374,3.5696,6.7274,7.1392,-0.0281,0.012217,-0.0079412
0.079132,3.2362,6.8058,7.2373,-0.027489,0.015272,-0.0018326
0.082031,3.4127,6.8058,7.1589,-0.030543,0.017715,-0.00061087
0.081757,3.4127,6.8058,7.1589,-0.030238,0.016799,-0.0015272
0.096558,3.4912,6.7274,7.1785,-0.029627,0.015577,-0.00061087
0.070557,3.5304,6.6293,7.1392,-0.029322,0.014661,0
0.065033,3.5696,6.6881,7.1589,-0.029932,0.012217,0.00061087
0.063721,3.3735,6.747,7.1589,-0.0281,0.010996,0.0009163
0.061188,3.4912,6.8254,7.2373,-0.022297,0.013134,0.00030543
0.046448,3.4912,6.6685,7.1392,-0.01741,0.013134,-0.01069
0.033722,3.4912,6.7274,7.2177,-0.01405,0.011606,-0.01069
0.043243,3.5304,6.7274,7.2765,-0.01405,0.014661,0.00061087
0.042267,3.4519,6.7274,7.1589,-0.01741,0.016493,-0.0009163
0.038452,3.5304,6.7274,7.1196,-0.023518,0.016799,-0.0051924
0.025635,3.4127,6.7274,7.1589,-0.025962,0.016799,-0.009163
0.013123,3.4912,6.6489,7.2177,-0.0281,0.015272,-0.0097738
0.024597,3.55,6.6489,7.2177,-0.0281,0.014661,-0.010385
0.017273,3.3146,6.7274,7.2765,-0.025045,0.019548,-0.012523
0.014313,3.5696,6.8058,7.2373,-0.023824,0.019548,-0.013134
0.0062866,3.3343,6.6881,7.2373,-0.018326,0.017104,-0.00030543
0.0043945,3.5304,6.6489,7.1392,-0.016799,0.016188,-0.0027489
-0.0091858,3.4912,6.6685,7.2177,-0.01741,0.01741,-0.0051924
-0.0079651,3.5304,6.7274,7.2373,-0.020159,0.017104,-0.0061087
0.00039673,3.2754,6.7274,7.2961,-0.024435,0.015272,-0.0073304
-0.0090332,3.4127,6.6881,7.1589,-0.029932,0.01405,-0.0094684
-0.0087891,3.55,6.7274,7.2373,-0.015577,0.014355,-0.0030543
0.0030823,3.5304,6.6489,7.0608,-0.014661,0.016799,-0.002138
0.023102,3.4912,6.6489,7.1785,-0.013439,0.014966,-0.012828
0.038361,3.2166,6.7274,7.2961,-0.01069,0.01405,-0.0097738
0.038239,3.2558,6.7274,7.2765,-0.007025,0.01405,-0.0064141
0.047546,3.4127,6.7274,7.1785,-0.0079412,0.014966,-0.0064141
0.039215,3.3146,6.6685,7.3158,-0.014355,0.01741,-0.0051924
0.040863,3.4127,6.7274,7.1589,-0.015577,0.018631,-0.0042761
0.038422,3.5696,6.6881,7.2373,-0.018631,0.019548,-0.00030543
0.051575,3.55,6.6489,7.1196,-0.019242,0.018937,-0.00061087
0.056152,3.3146,6.6881,7.1392,-0.017715,0.018631,-0.0015272
0.062714,3.4127,6.6881,7.2373,-0.01405,0.018021,-0.00030543
0.059509,3.3735,6.6881,7.1196,-0.012217,0.017715,0.00061087
0.065063,3.4127,6.6489,7.2373,-0.011301,0.017104,0.0024435
0.067108,3.4912,6.7274,7.1589,-0.012217,0.015882,0.0045815
0.070282,3.4912,6.6489,7.1589,-0.018326,0.016799,0.002138
0.075623,3.55,6.7274,7.2373,-0.011301,0.016799,0.00030543
0.07196,3.2754,6.7274,7.2765,-0.0097738,0.013439,0.00030543
0.074677,3.4912,6.747,7.1589,-0.01069,0.01405,-0.0024435
0.091431,3.4323,6.7862,7.1589,-0.016188,0.016493,-0.0033598
0.094025,3.5696,6.6489,7.1392,-0.019242,0.019242,-0.0039706
0.092194,3.5304,6.6489,7.1785,-0.020769,0.021075,-0.0033598
0.086212,3.5696,6.7274,7.2373,-0.017715,0.020769,-0.00061087
0.090759,3.3146,6.7862,7.1589,-0.013744,0.019548,0.00061087
0.094055,3.4912,6.7862,7.1589,-0.0051924,0.019242,-0.014355
0.090942,3.4912,6.7274,7.1589,-0.0048869,0.015882,-0.013134
0.082947,3.4716,6.6881,7.1392,-0.0067195,0.016493,0.00030543
0.077515,3.3931,6.747,7.1589,-0.0094684,0.016188,-0.0033598
0.071533,3.2558,6.7862,7.2373,-0.0094684,0.014355,-0.0058032
0.055634,3.4127,6.7862,7.1589,-0.011912,0.013134,-0.0073304
0.050781,3.4127,6.7862,7.2177,-0.015882,0.012828,-0.0097738
0.049103,3.4912,6.6489,7.2373,-0.017104,0.013439,-0.013744
0.056061,3.4912,6.6881,7.2373,-0.021075,0.013744,0.0058032
0.060883,3.4323,6.6881,7.2765,-0.02138,0.014661,0.007025
0.0672,3.5696,6.7274,7.1589,-0.021991,0.01405,-0.0039706
0.073883,3.4323,6.7274,7.1196,-0.019242,0.011912,-0.0039706
0.063324,3.4912,6.7274,7.2177,-0.018021,0.011301,-0.002138
0.064117,3.55,6.6489,7.1392,-0.015577,0.012523,-0.00061087
0.063141,3.3146,6.8058,7.2373,-0.012828,0.012217,-0.0012217
0.064362,3.4912,6.6489,7.1589,-0.011606,0.012217,0.0009163
0.056732,3.5304,6.6881,7.2177,-0.011301,0.01069,0.0085521
0.053741,3.4323,6.7274,7.1589,-0.011912,0.0064141,0.007025
0.046265,3.55,6.5901,7.1589,-0.010996,0.0088575,0.0067195
0.054626,3.5892,6.7274,7.1589,-0.010996,0.010996,0.009163
0.054474,3.2558,6.747,7.2373,-0.011606,0.010996,0.011912
0.048553,3.5304,6.6685,7.2177,-0.012523,0.013134,0.012523
0.039246,3.2558,6.7274,7.2177,-0.013134,0.016188,0.011301
0.04361,3.4323,6.7274,7.1589,-0.012828,0.016493,0.009163
0.034424,3.3735,6.7274,7.0608,-0.023518,0.013744,-0.0061087
0.02771,3.4912,6.6881,7.1589,-0.024129,0.013134,-0.007025
0.034637,3.4912,6.6881,7.1589,-0.020159,0.012217,-0.0030543
0.030365,3.4127,6.7862,7.1785,-0.018326,0.014661,-0.0036652
0.014587,3.2754,6.8254,7.2373,-0.016799,0.014355,-0.0045815
0.014191,3.5304,6.6685,7.2373,-0.01741,0.013744,-0.0039706
0.017731,3.3931,6.6489,7.0608,-0.018631,0.013744,-0.0067195
0.018707,3.5696,6.7274,7.2373,-0.019548,0.013439,-0.0073304
0.01709,3.4127,6.7274,7.1196,-0.017715,0.01405,-0.0061087
0.016541,3.4912,6.6685,7.1589,-0.013134,0.014966,-0.0036652
0.012115,3.5304,6.6489,7.1589,-0.011912,0.01741,-0.007025
0.010956,3.5696,6.6489,7.1589,-0.01069,0.018631,-0.0054978
0.010284,3.4127,6.7274,7.1785,-0.011606,0.017715,-0.0054978
0.0083313,3.5304,6.7274,7.2373,-0.017104,0.017104,-0.0058032
0.0067139,3.5892,6.6489,7.1589,-0.018631,0.015577,-0.0051924
0.010498,3.55,6.8058,7.1589,-0.019242,0.014966,-0.0058032
0.013428,3.5696,6.7274,7.1196,-0.021991,0.0094684,-0.0082467
0.019653,3.5304,6.7274,7.2765,-0.021075,0.0097738,-0.0064141
0.036713,3.5304,6.5901,7.1196,-0.02474,0.0073304,-0.010996
0.04892,3.4323,6.747,7.1589,-0.029016,0.0064141,-0.011912
0.057587,3.4716,6.7274,7.1589,-0.030543,0.007025,-0.010079
0.070587,3.4912,6.6489,7.1589,-0.029322,0.0076358,-0.0079412
0.07132,3.5304,6.8058,7.1589,-0.022907,0.0079412,-0.0085521
0.079132,3.4127,6.7274,7.1392,-0.023824,0.0085521,-0.010385
0.070923,3.55,6.6489,7.1589,-0.019548,0.014661,-0.00030543
0.079895,3.55,6.7274,7.2373,-0.021991,0.013439,-0.00061087
0.073822,3.3735,6.747,7.1589,-0.026878,0.011606,0.002138
0.069977,3.55,6.5901,7.1392,-0.029016,0.010079,0.0015272
0.082336,3.5696,6.6881,7.1785,-0.027794,0.0094684,0.00030543
0.084351,3.4323,6.7274,7.1589,-0.023824,0.0085521,-0.0012217
0.082642,3.4912,6.6685,7.1589,-0.02138,0.0079412,0
0.079712,3.2558,6.7274,7.2373,-0.020769,0.0073304,0.0015272
0.081482,3.3735,6.6881,7.1196,-0.021686,0.0076358,0.0018326
0.068848,3.2754,6.7274,7.1785,-0.024129,0.0051924,0.002138
0.071198,3.5696,6.6685,7.2373,-0.024435,0.0079412,0.00061087
0.062012,3.3931,6.7274,7.0608,-0.023824,0.012217,0.00061087
0.05954,3.4323,6.6881,7.1589,-0.026267,0.013439,0.0009163
0.063507,3.5696,6.6489,7.0804,-0.027794,0.013134,0.0009163
0.060089,3.5696,6.6489,7.1785,-0.025351,0.011301,-0.00061087
0.057709,3.4127,6.7862,7.1785,-0.02138,0.010996,0
0.049835,3.4716,6.6685,7.1589,-0.016188,0.0097738,-0.0073304
0.037628,3.3931,6.6881,7.1589,-0.019853,0.0097738,-0.010385
0.028748,3.2558,6.7274,7.2765,-0.023824,0.01069,0.002138
0.031952,3.3735,6.6881,7.1392,-0.026267,0.01069,0.00061087
0.020905,3.5696,6.6293,7.1589,-0.025351,0.010385,-0.0018326
0.0093994,3.5304,6.7274,7.1589,-0.023518,0.0097738,-0.0048869
0.015015,3.3343,6.7274,7.1589,-0.018326,0.0076358,-0.0058032
0.00012207,3.3146,6.7862,7.1589,-0.015577,0.0082467,-0.0064141
0.0056458,3.5696,6.7862,7.1589,-0.029016,0.011301,0.0033598
0.0055542,3.3343,6.7274,7.2961,-0.030543,0.015882,0.0045815
0.022522,3.5696,6.7274,7.1589,-0.031765,0.016493,0.0012217
0.034119,3.55,6.6685,7.1589,-0.031765,0.014661,0.0033598
0.024017,3.55,6.6489,7.2177,-0.03146,0.014966,0.0033598
0.022278,3.5696,6.7274,7.2373,-0.030238,0.013744,0.0009163
0.030914,3.4127,6.7274,7.2373,-0.0281,0.010996,0.0012217
0.020721,3.4127,6.6489,7.2373,-0.025045,0.0097738,0.0012217
0.017944,3.5696,6.6685,7.1589,-0.02138,0.012217,-0.01405
0.0028687,3.4127,6.7274,7.1589,-0.019853,0.015577,-0.014661
0.0050049,3.55,6.7274,7.1589,-0.01741,0.016188,0.0024435
0.0027161,3.2558,6.7274,7.2961,-0.018326,0.015882,-0.0018326
0.0014038,3.4323,6.6881,7.1785,-0.02138,0.017104,-0.0042761
-0.014221,3.55,6.5312,7.1392,-0.023824,0.017104,-0.0064141
-0.018036,3.4912,6.6685,7.2373,-0.027794,0.015577,-0.01069
-0.018707,3.3931,6.7274,7.1785,-0.027794,0.014355,-0.01405
-0.017273,3.4323,6.6881,7.1196,-0.023213,0.013439,-0.011912
-0.023987,3.5304,6.6685,7.2373,-0.015272,0.010385,-0.009163
-0.0289,3.3931,6.6489,7.1589,-0.012828,0.010996,-0.015577
-0.037903,3.4127,6.6293,7.1589,-0.011912,0.012523,-0.014355
-0.037231,3.4127,6.6881,7.2765,-0.01069,0.0094684,-0.012828
-0.036865,3.4127,6.6293,7.2961,-0.0097738,0.0079412,-0.010385
-0.031464,3.5696,6.6881,7.1785,-0.0085521,0.0097738,-0.0079412
-0.020721,3.3931,6.6489,7.0608,-0.007025,0.010385,-0.01069
-0.032104,3.5892,6.6293,7.2177,-0.0033598,0.011301,-0.009163
-0.037384,3.3146,6.7862,7.2961,-0.0033598,0.013744,-0.0094684
-0.03064,3.4127,6.6293,7.3158,-0.0030543,0.011606,-0.0061087
-0.034973,3.4127,6.6685,7.1589,-0.0048869,0.012217,-0.0048869
-0.04361,3.4127,6.6489,7.0608,-0.0076358,0.014355,-0.0039706
-0.048126,3.5304,6.6881,7.2373,-0.01069,0.014966,-0.0027489
-0.042419,3.3735,6.6881,7.2177,-0.011912,0.016188,-0.0030543
-0.038635,3.4716,6.8058,7.1785,-0.0097738,0.015272,-0.0054978
-0.038208,3.3146,6.747,7.2961,-0.018631,0.016188,0.0082467
-0.027679,3.55,6.6489,7.2373,-0.022907,0.019242,0.01069
-0.020966,3.4323,6.7274,7.2373,-0.024435,0.020159,0
-0.0072021,3.5696,6.6489,7.1589,-0.024435,0.018937,0.0027489
-0.00097656,3.3146,6.7274,7.3158,-0.021075,0.018631,0.0039706
0.011749,3.3146,6.7274,7.2765,-0.015577,0.019242,0.0033598
0.012573,3.5304,6.7274,7.1785,-0.011301,0.019242,0.0054978
0.0072021,3.3931,6.6489,7.1589,-0.0079412,0.016493,0.0073304
0.0069885,3.5696,6.7274,7.1785,-0.016188,0.017104,0.0012217
-0.0005188,3.55,6.7274,7.2373,-0.018326,0.016188,0.00061087
-0.0028992,3.55,6.5901,7.1392,-0.02138,0.016799,0.01069
0.00088501,3.5696,6.5901,7.2177,-0.023213,0.018631,0.0067195
0.0016174,3.5696,6.5901,7.1589,-0.021075,0.019548,0.0042761
0.0027466,3.4127,6.6685,7.1589,-0.016799,0.019548,0.0033598
0.0039978,3.4323,6.7862,7.1589,-0.0061087,0.018021,0.0033598
0.0031128,3.5696,6.6881,7.2961,-0.01069,0.01741,0.0033598
0.010132,3.5304,6.5901,7.1589,-0.010385,0.016493,0.0064141
0.010437,3.5696,6.5705,7.1589,-0.01069,0.01405,0.0082467
0.0094604,3.3146,6.7274,7.2569,-0.011912,0.015272,0.002138
0.00021362,3.3931,6.6489,7.3158,-0.012828,0.016799,0.0051924
0.0095215,3.4912,6.7274,7.2373,-0.015882,0.01741,0.0076358
0.012634,3.3931,6.6489,7.0804,-0.017104,0.019548,0.0085521
0.020996,3.2558,6.747,7.2373,-0.012217,0.020159,0.0085521
0.034241,3.4323,6.6881,7.2373,-0.009163,0.019548,0.007025
0.025879,3.3931,6.6881,7.1589,-0.015882,0.019853,0
0.024231,3.5696,6.7274,7.2765,-0.013439,0.021075,-0.002138
0.022369,3.3931,6.6489,7.1392,-0.012217,0.018937,0.0079412
0.014282,3.5696,6.6881,7.1785,-0.0094684,0.016493,0.0097738
0.013031,3.4323,6.6881,7.1589,-0.007025,0.015882,0.0094684
0.0032654,3.3931,6.6489,7.1589,-0.0079412,0.016799,0.007025
0.0057068,3.55,6.6489,7.1589,-0.01741,0.015577,0.0039706
-0.0015564,3.3931,6.6489,7.2373,-0.018631,0.014661,0.0030543
-0.0014954,3.4323,6.7274,7.1589,-0.028711,0.015272,0.022297
-0.0011292,3.4912,6.6293,7.2373,-0.026267,0.015882,0.02138
0.0088196,3.3735,6.6685,7.1589,-0.021686,0.018021,0.00030543
0.0082703,3.3931,6.6685,7.0216,-0.019242,0.018631,0.0064141
0.0015259,3.4912,6.7274,7.1589,-0.018937,0.018937,0.012828
0.0031433,3.4323,6.6685,7.1785,-0.018937,0.018937,0.019548
-0.013428,3.3735,6.6489,7.2961,-0.020769,0.018937,0.020464
-0.014221,3.5696,6.6881,7.2373,-0.027184,0.018021,0.021686
-0.01297,3.55,6.7862,7.1589,-0.03207,0.016799,0.0045815
-0.029114,3.5304,6.6685,7.1785,-0.034208,0.014661,0.0015272
-0.038818,3.4323,6.7274,7.1392,-0.034208,0.013439,0.022602
-0.027313,3.4127,6.6685,7.1785,-0.030543,0.011606,0.019853
-0.032684,3.5696,6.7274,7.1589,-0.025962,0.0088575,0.016188
-0.024414,3.3343,6.7274,7.2765,-0.025962,0.0058032,0.013744
-0.016357,3.4323,6.8058,7.2373,-0.025045,0.0042761,0.010385
-0.011963,3.5696,6.6881,7.2177,-0.023213,0.0036652,0.0067195
-0.014496,3.5304,6.5901,7.1589,-0.02138,0.0048869,-0.0018326
-0.0094604,3.5696,6.5901,7.1589,-0.019853,0.0088575,-0.0018326
-0.0059814,3.3146,6.7274,7.2373,-0.019242,0.011301,-0.00030543
-0.007782,3.2558,6.6881,7.2373,-0.020159,0.011606,-0.0018326
-0.016144,3.55,6.7862,7.1589,-0.02138,0.013439,-0.00061087
-0.0063477,3.4127,6.7274,7.1785,-0.018937,0.01405,0.00030543
-0.012848,3.3931,6.6881,7.1589,-0.015577,0.016188,-0.0009163
-0.0086975,3.5696,6.7274,7.1589,-0.014966,0.01741,-0.002138
-0.0083618,3.55,6.6489,7.2373,-0.010079,0.012523,-0.012828
-0.0066528,3.4323,6.5901,7.3158,-0.0058032,0.014355,-0.0058032
-0.0043335,3.4912,6.6685,7.1589,-0.0073304,0.013439,-0.023824
-0.0075684,3.4127,6.6685,7.2373,-0.0079412,0.011606,-0.022602
-0.010223,3.5696,6.6489,7.1785,-0.01405,0.012217,-0.023518
-0.015472,3.6285,6.6489,7.2177,-0.023518,0.011301,-0.023518
-0.016846,3.2754,6.7274,7.2765,-0.027184,0.01069,-0.021686
-0.026825,3.5696,6.6685,7.1785,-0.028711,0.013439,-0.018326
-0.029846,3.4127,6.7274,7.1589,-0.016188,0.017715,-0.0015272
-0.017151,3.3931,6.6489,7.1196,-0.01741,0.016493,0.00061087
0.0087891,3.3735,6.6881,7.2177,-0.018631,0.015577,0.0027489
0.0093079,3.2558,6.6881,7.2961,-0.021991,0.014966,0.0015272
0.013214,3.4127,6.6489,7.1392,-0.021991,0.014966,0.0012217
0.017517,3.3146,6.7274,7.3158,-0.019853,0.015272,0
0.0081482,3.5696,6.6489,7.2373,-0.013439,0.014661,-0.0018326
0.013214,3.5696,6.6293,7.2373,-0.015882,0.013134,-0.002138
0.014435,3.55,6.6293,7.1589,-0.015882,0.014355,-0.0009163
0.01593,3.3931,6.6881,7.1589,-0.014661,0.015577,-0.0009163
0.016052,3.4716,6.7274,7.2373,-0.015577,0.015272,-0.00061087
0.0048218,3.6285,6.6489,7.1589,-0.016799,0.014661,-0.0015272
-0.0032043,3.5892,6.6881,7.2373,-0.018021,0.015577,-0.00030543
0.0032959,3.4127,6.7274,7.0608,-0.021991,0.015577,0.0009163
-0.0031738,3.5892,6.6489,7.1785,-0.016799,0.015577,0.0012217
-0.0028687,3.4127,6.6685,7.1785,-0.015577,0.014661,0
-0.0083313,3.5696,6.6489,7.2373,-0.018021,0.013744,-0.00030543
-0.01535,3.6285,6.5901,7.1589,-0.01405,0.010996,-0.00030543
-0.010864,3.5892,6.5312,7.1785,-0.012828,0.012828,0.0030543
-0.016022,3.4912,6.6881,7.1785,-0.015577,0.014966,0.0033598
-0.016083,3.4127,6.6685,7.1589,-0.016799,0.016188,0.002138
-0.026031,3.4127,6.6685,7.1392,-0.019242,0.01741,0
-0.029327,3.5696,6.6685,7.2373,-0.020769,0.016493,-0.00061087
-0.022095,3.4127,6.5901,7.2177,-0.020159,0.015882,-0.0012217
-0.030151,3.5696,6.6489,7.1589,-0.018631,0.015577,0.0036652
-0.033447,3.3931,6.6489,7.1589,-0.019242,0.018021,0.0024435
-0.039398,3.4127,6.6489,7.1785,-0.016799,0.016188,0.0012217
-0.049164,3.5696,6.6489,7.2373,-0.013439,0.01405,0.0030543
-0.051971,3.4323,6.6489,7.0608,-0.012828,0.014661,0.0036652
-0.06076,3.55,6.6489,7.1589,-0.013744,0.015577,0.0033598
-0.061646,3.4912,6.6685,7.2177,-0.014966,0.016799,0.0033598
-0.069153,3.55,6.6293,7.1785,-0.014355,0.018021,0.0036652
-0.062225,3.4323,6.5901,7.2765,-0.0088575,0.022907,-0.014661
-0.05777,3.4912,6.7274,7.2961,-0.007025,0.023518,-0.016188
-0.060974,3.5892,6.5901,7.2177,-0.0094684,0.02474,0.00061087
-0.053497,3.2558,6.6881,7.2373,-0.012217,0.023824,-0.00061087
-0.049042,3.4127,6.6489,7.1589,-0.013439,0.020769,-0.002138
-0.049286,3.3146,6.6489,7.2961,-0.011301,0.018631,-0.0045815
-0.050812,3.6285,6.6685,7.2373,-0.0088575,0.018021,-0.0082467
-0.041748,3.6088,6.5901,7.1785,-0.0082467,0.016188,-0.011606
-0.049713,3.4912,6.6685,7.1589,-0.0085521,0.013439,-0.0094684
-0.055176,3.4127,6.6489,7.0608,-0.012523,0.016493,-0.0073304
-0.051849,3.55,6.5116,7.1589,-0.016799,0.014966,-0.01741
-0.054718,3.55,6.6489,7.2373,-0.017104,0.012523,-0.018631
-0.053955,3.5696,6.6293,7.2765,-0.015272,0.014966,-0.018937
-0.040161,3.5304,6.6293,7.2373,-0.014966,0.016493,-0.018937
-0.040741,3.5892,6.6293,7.1785,-0.013744,0.017104,-0.014966
-0.040009,3.3146,6.6881,7.2765,-0.011301,0.018021,-0.01069
-0.040192,3.2558,6.7274,7.2961,-0.015272,0.020159,-0.0030543
-0.040436,3.6285,6.6881,7.1589,-0.012523,0.019853,-0.0048869
-0.034576,3.5696,6.6881,7.1589,-0.013134,0.018021,0.0039706
-0.030212,3.5696,6.6685,7.2961,-0.011912,0.01741,0.0036652
-0.039337,3.4323,6.5901,7.2373,-0.010385,0.016493,0.0018326
-0.032776,3.5304,6.6881,7.1589,-0.010385,0.014661,-0.0012217
-0.023499,3.4127,6.6881,7.1785,-0.01069,0.014355,-0.0027489
-0.024323,3.6285,6.6293,7.1785,-0.014966,0.014355,-0.0027489
-0.028137,3.4912,6.6489,7.1589,-0.019242,0.011912,0.0045815
-0.0289,3.3931,6.6881,7.2373,-0.025656,0.011606,0.002138
-0.032043,3.55,6.5116,7.1589,-0.023213,0.011606,-0.0054978
-0.049744,3.5696,6.6489,7.1785,-0.016188,0.011912,-0.0045815
-0.046021,3.4127,6.6489,7.1392,-0.013134,0.013744,-0.0015272
-0.035828,3.55,6.6685,7.2765,-0.012523,0.016188,0
-0.033173,3.4323,6.7274,7.2177,-0.012217,0.019548,0.00061087
-0.035645,3.4127,6.6685,7.1589,-0.010996,0.021991,0.0027489
-0.028534,3.3735,6.6881,7.2373,-0.019853,0.018021,0.0061087
-0.018768,3.55,6.6685,7.2765,-0.016493,0.018021,0.0054978
-0.004303,3.3343,6.6685,7.0608,-0.013439,0.016188,0.0054978
-0.0013123,3.5696,6.6489,7.1589,-0.013744,0.015272,0.0085521
0.0086975,3.4127,6.6489,7.1392,-0.018021,0.014661,0.0085521
0.0081787,3.5108,6.6685,7.1785,-0.022907,0.013134,0.0082467
0.012482,3.5696,6.7862,7.1589,-0.027794,0.012523,0.0094684
-0.012695,3.4912,6.7274,7.2373,-0.023518,0.011301,0.0085521
0.0071106,3.5304,6.6881,7.1785,-0.021075,0.01741,-0.0012217
0.0058289,3.4912,6.6489,7.2373,-0.018631,0.014966,-0.0027489
-0.00094604,3.55,6.6685,7.2373,-0.015882,0.015882,-0.00061087
-0.008667,3.5696,6.6685,7.1785,-0.015882,0.017715,-0.00061087
-0.016144,3.4912,6.6685,7.1785,-0.01405,0.017715,-0.00030543
-0.017578,3.5696,6.7274,7.1785,-0.012523,0.018021,-0.0015272
-0.016388,3.5696,6.5901,7.1589,-0.010079,0.018021,-0.0018326
-0.016052,3.4716,6.7274,7.1589,-0.010996,0.018326,-0.00061087
-0.022308,3.3343,6.6685,7.3158,-0.014355,0.019548,-0.012217
-0.030182,3.4127,6.6881,7.0804,-0.016799,0.022602,-0.012217
-0.026367,3.2558,6.7274,7.2373,-0.020159,0.020464,-0.0058032
-0.024292,3.2754,6.7274,7.2373,-0.021991,0.018631,-0.0073304
-0.035767,3.4912,6.6489,7.1589,-0.021991,0.017104,-0.0085521
-0.036133,3.5304,6.6881,7.2373,-0.019242,0.016493,-0.0085521
-0.034241,3.4912,6.6685,7.1785,-0.011606,0.015882,-0.0076358
-0.048798,3.5696,6.6881,7.1589,-0.012828,0.016188,-0.0094684
-0.054352,3.4912,6.8058,7.1589,-0.0097738,0.016188,0.0009163
-0.052917,3.4912,6.7274,7.1589,-0.011912,0.013439,0.0039706
-0.056488,3.4127,6.6881,7.2177,-0.014966,0.014661,-0.011606
-0.053345,3.3735,6.6489,7.1392,-0.023518,0.017104,-0.0082467
-0.065582,3.4912,6.6881,7.1589,-0.029322,0.019242,-0.0051924
-0.076904,3.4323,6.7274,7.2373,-0.028711,0.019853,-0.0061087
-0.071045,3.5696,6.6881,7.1589,-0.012523,0.018937,-0.0048869
-0.083862,3.5892,6.5312,7.1589,-0.0079412,0.018937,-0.0024435
-0.093384,3.6285,6.7274,7.2177,-0.024435,0.010385,0.009163
-0.097076,3.4127,6.6489,7.3158,-0.024129,0.012523,0.0097738
-0.070221,3.4127,6.6489,7.1785,-0.022297,0.016799,0.011912
-0.067078,3.4127,6.7274,7.1589,-0.020769,0.018326,0.012828
-0.075836,3.3931,6.6489,7.1196,-0.018326,0.017715,0.014661
-0.071381,3.4127,6.6685,7.2373,-0.015882,0.017715,0.013134
-0.071716,3.5892,6.7862,7.2177,-0.018021,0.018021,0.011301
-0.065552,3.6285,6.7274,7.1589,-0.018631,0.015577,0.010996
-0.082855,3.4127,6.6489,7.0608,-0.020159,0.014661,-0.002138
-0.06488,3.5696,6.6489,7.1589,-0.019548,0.01405,-0.0030543
-0.074554,3.2754,6.7274,7.2373,-0.021991,0.011606,0.007025
-0.063324,3.2362,6.6881,7.2961,-0.027794,0.0094684,0.0051924
-0.066254,3.5696,6.7274,7.1392,-0.03146,0.0076358,0.0048869
-0.05658,3.5696,6.6489,7.2373,-0.031765,0.0079412,0.0024435
-0.057098,3.5696,6.6489,7.1589,-0.031154,0.010385,0
-0.041565,3.3146,6.6881,7.3158,-0.028711,0.010996,-0.002138
-0.03537,3.5304,6.6881,7.1196,-0.025351,0.013744,-0.0079412
-0.027069,3.4716,6.6881,7.1589,-0.02474,0.016188,-0.011301
-0.020966,3.5696,6.6489,7.2373,-0.020159,0.017104,-0.0036652
-0.0062256,3.5696,6.7274,7.2373,-0.016493,0.017715,-0.0012217
-0.0047607,3.4127,6.6685,7.1392,-0.013134,0.017715,0.00030543
-0.014893,3.4127,6.6489,7.1589,-0.0088575,0.018631,-0.00030543
-0.0044556,3.5696,6.6685,7.1589,-0.0076358,0.016799,-0.0018326
-0.0030823,3.2558,6.6881,7.2373,-0.012217,0.015882,-0.0054978
-0.0024109,3.5696,6.6489,7.1196,-0.01405,0.014661,-0.010996
-0.0096436,3.4323,6.6881,7.1589,-0.011301,0.010079,-0.0085521
-0.01236,3.4127,6.6293,7.2373,-0.014966,0.010079,-0.012523
-0.01059,3.5696,6.6685,7.2177,-0.016188,0.011301,-0.01405
-0.011017,3.4127,6.6489,7.2177,-0.015272,0.010996,-0.017104
-0.02771,3.5892,6.7274,7.1589,-0.014661,0.010996,-0.018326
-0.024902,3.5696,6.6685,7.2373,-0.014355,0.011912,-0.014355
-0.023743,3.4127,6.6489,7.1392,-0.015577,0.013134,-0.012523
-0.028778,3.55,6.5901,7.1589,-0.012217,0.02138,0.0061087
-0.016724,3.5696,6.6489,7.1589,-0.0045815,0.018631,0.0061087
0.00033569,3.4912,6.7862,7.2177,-0.0039706,0.018021,-0.0051924
0.013367,3.3146,6.7274,7.2373,-0.0036652,0.018631,-0.0048869
0.030243,3.4127,6.6881,7.1589,-0.0042761,0.018937,-0.0018326
0.027466,3.55,6.6881,7.1589,-0.0018326,0.019548,0.00030543
0.031708,3.5304,6.6685,7.1785,-0.002138,0.021686,0.0009163
0.042145,3.5696,6.6489,7.1589,-0.0058032,0.022297,0.0039706
0.034912,3.4716,6.7274,7.1785,-0.020769,0.021686,-0.0015272
0.035095,3.3931,6.6685,7.2373,-0.021686,0.020769,-0.002138
0.028717,3.3735,6.6489,7.0216,-0.019242,0.020159,0.0058032
0.024353,3.4127,6.6293,7.2373,-0.016493,0.020464,0.0082467
0.028107,3.3931,6.6685,7.1589,-0.013439,0.01741,0.0088575
0.026154,3.4127,6.6881,7.1196,-0.009163,0.015882,0.0061087
0.018799,3.5696,6.7862,7.2177,-0.010996,0.017104,0.0036652
0.0079346,3.3931,6.6293,7.2373,-0.015882,0.017715,0.0015272
0.0084534,3.3931,6.6685,7.1392,-0.015882,0.018021,-0.0067195
-0.002594,3.5304,6.6489,7.1589,-0.02138,0.014355,-0.0058032
-0.0029602,3.2558,6.7862,7.1785,-0.024435,0.015882,-0.0042761
-0.0035095,3.4127,6.747,7.1589,-0.024129,0.018937,-0.0079412
0.0049438,3.5696,6.747,7.1589,-0.021075,0.018937,-0.01069
-0.01828,3.5696,6.6881,7.1785,-0.016493,0.019853,-0.01069
-0.020142,3.4127,6.6685,7.0608,-0.0082467,0.019242,-0.0094684
-0.018982,3.5696,6.6881,7.1785,-0.011301,0.015882,-0.0073304
-0.030579,3.4716,6.7274,7.0608,-0.0094684,0.024129,-0.0039706
-0.03772,3.5696,6.6881,7.1392,-0.0082467,0.025962,-0.0045815
-0.038422,3.3146,6.7274,7.2373,-0.0067195,0.021991,0.0030543
-0.048248,3.2558,6.6685,7.2961,-0.0036652,0.018937,0.0027489
-0.045929,3.5696,6.7274,7.1589,-0.0033598,0.020464,0.002138
-0.056213,3.4912,6.7862,7.1589,-0.007025,0.020464,0.00030543
-0.050446,3.5304,6.7862,7.1589,-0.013744,0.021075,-0.0030543
-0.054169,3.4127,6.747,7.1589,-0.015882,0.022602,-0.0048869
-0.061615,3.55,6.6881,7.2373,-0.016188,0.018631,-0.002138
-0.045532,3.4912,6.5312,7.2373,-0.016493,0.018937,-0.0045815
-0.039703,3.5696,6.6489,7.1589,-0.015272,0.018326,0.0036652
-0.034668,3.4323,6.7274,7.1589,-0.013439,0.017104,0.0027489
-0.034576,3.5696,6.6881,7.2373,-0.011912,0.016799,0.0027489
-0.014404,3.4716,6.7274,7.1589,-0.011301,0.015577,0.0015272
-0.028687,3.4127,6.7274,7.1785,-0.014661,0.015272,0
-0.027832,3.5696,6.7274,7.1589,-0.019548,0.01405,-0.0012217
-0.026306,3.3931,6.6685,7.1589,-0.021991,0.012828,-0.0085521
-0.030121,3.55,6.6881,7.1392,-0.026573,0.014966,-0.0079412
-0.031372,3.5696,6.6881,7.2373,-0.025351,0.011912,-0.0045815
-0.036072,3.4127,6.7274,7.1589,-0.024435,0.0097738,-0.0048869
-0.030914,3.5304,6.5901,7.1589,-0.025045,0.010385,-0.0061087
-0.041718,3.6285,6.6881,7.2373,-0.026267,0.009163,-0.0058032
-0.04126,3.4323,6.747,7.1785,-0.026573,0.007025,-0.0058032
-0.044678,3.4716,6.7274,7.1785,-0.02474,0.0064141,-0.0076358
-0.029419,3.4127,6.6881,7.0804,-0.026267,0.0067195,0.00030543
-0.037109,3.5304,6.5901,7.1589,-0.029322,0.0073304,-0.0009163
-0.045868,3.4127,6.7274,7.0019,-0.031154,0.0073304,-0.007025
-0.038116,3.5696,6.6685,7.1589,-0.028405,0.0076358,-0.0076358
-0.033264,3.4127,6.6881,7.2373,-0.021686,0.010079,-0.0082467
-0.032867,3.4127,6.6489,7.2373,-0.018326,0.011606,-0.0067195
-0.038483,3.5696,6.6881,7.1785,-0.015882,0.011606,-0.0054978
-0.024658,3.3931,6.7274,7.1392,-0.015272,0.012828,-0.002138
-0.019135,3.4323,6.7862,7.1785,-0.012828,0.012828,0.00030543
-0.02121,3.5696,6.6881,7.2373,-0.010996,0.013439,0.0012217
-0.029541,3.5696,6.6881,7.2373,-0.010079,0.014355,0.0082467
-0.03833,3.5892,6.6881,7.2373,-0.01069,0.013744,0.0058032
-0.033081,3.5696,6.6489,7.1589,-0.017715,0.013744,0.0024435
-0.033112,3.5696,6.6489,7.2373,-0.020159,0.013439,0.0012217
-0.031433,3.5696,6.6881,7.1589,-0.017104,0.013439,-0.00030543
-0.036743,3.4127,6.7274,7.1589,-0.015577,0.016188,-0.0009163
-0.046631,3.3931,6.7274,7.1196,-0.016493,0.01741,-0.0097738
-0.040314,3.5696,6.7274,7.1589,-0.017715,0.021686,-0.0088575
-0.038879,3.5892,6.6685,7.2373,-0.019853,0.018937,-0.0054978
-0.024811,3.3735,6.5901,7.2373,-0.019853,0.017104,-0.0067195
-0.021545,3.5696,6.6293,7.0608,-0.016799,0.018021,-0.0082467
-0.025787,3.5696,6.7274,7.2373,-0.011606,0.018631,-0.01069
-0.024231,3.4127,6.6293,7.2177,-0.014355,0.018021,-0.012828
-0.030365,3.4323,6.6685,7.1589,-0.014966,0.016493,-0.010996
-0.027161,3.4127,6.6881,7.1589,-0.012523,0.014661,-0.015882
-0.033295,3.3735,6.747,7.1785,-0.014966,0.0094684,-0.012217
-0.035492,3.5696,6.6685,7.1196,-0.014661,0.010079,-0.011301
-0.037903,3.3931,6.6489,7.2373,-0.014661,0.013134,-0.014661
-0.034668,3.4912,6.6489,7.1196,-0.011301,0.01405,-0.01405
-0.045654,3.6285,6.7274,7.2765,-0.0094684,0.014661,-0.013439
-0.045807,3.4127,6.6489,7.3158,-0.010996,0.016799,-0.014355
-0.053314,3.5696,6.6881,7.2373,-0.010079,0.016188,-0.016799
-0.047974,3.5696,6.7274,7.1589,-0.013134,0.01405,0.0018326
-0.052094,3.4716,6.7274,7.1589,-0.018021,0.014966,0.0024435
-0.06424,3.3931,6.6881,7.1785,-0.021075,0.014966,-0.0018326
-0.053802,3.4127,6.6881,7.1589,-0.024435,0.015882,-0.0012217
-0.055115,3.4127,6.5901,7.2765,-0.026267,0.018326,-0.0024435
-0.044525,3.5892,6.6685,7.2177,-0.023518,0.018631,-0.0015272
-0.076599,3.3146,6.747,7.2765,-0.021075,0.01741,0.00030543
-0.071869,3.4716,6.747,7.1589,-0.019242,0.016799,0.00061087
-0.089996,3.5696,6.6489,7.2373,-0.022297,0.016493,-0.0015272
-0.097168,3.5696,6.5901,7.1785,-0.024129,0.01405,-0.0042761
-0.095398,3.5696,6.7274,7.1785,-0.024129,0.013744,0.0039706
-0.090759,3.4323,6.6881,7.1196,-0.022602,0.014966,0.0051924
-0.093384,3.4127,6.6881,7.0608,-0.019548,0.014966,0.0042761
-0.10291,3.55,6.747,7.1785,-0.016799,0.015272,0.0012217
-0.11142,3.3343,6.7274,7.1589,-0.019548,0.015882,0
-0.10062,3.4127,6.6685,7.1392,-0.020769,0.016188,0.00030543
-0.11557,3.5304,6.6881,7.2373,-0.037263,0.012217,-0.0045815
-0.10721,3.4127,6.6881,7.2961,-0.034819,0.012217,-0.0030543
-0.093567,3.4127,6.6489,7.1589,-0.029627,0.015577,-0.011912
-0.080566,3.4127,6.6685,7.1196,-0.026573,0.016188,-0.01069
-0.072815,3.5304,6.7274,7.1589,-0.025351,0.016188,-0.0097738
-0.075073,3.55,6.7274,7.1785,-0.024435,0.015272,-0.0079412
-0.075073,3.4912,6.6881,7.2373,-0.022602,0.015272,-0.0073304
-0.086426,3.1774,6.747,7.2373,-0.019853,0.014966,-0.0064141
-0.079651,3.4323,6.7274,7.1196,-0.012217,0.018937,-0.015272
-0.079193,3.4127,6.6881,7.2177,-0.01741,0.021991,-0.017715
-0.077515,3.5696,6.6489,7.1785,-0.016799,0.020464,-0.007025
-0.077484,3.5696,6.6685,7.2373,-0.014355,0.018021,-0.010385
-0.065491,3.3146,6.6881,7.2373,-0.015882,0.015882,-0.0097738
-0.066162,3.5696,6.7274,7.2177,-0.019548,0.012828,-0.010996
-0.065979,3.4323,6.7862,7.1785,-0.021686,0.011301,-0.01069
-0.054291,3.4323,6.747,7.1785,-0.022297,0.0094684,-0.011912
-0.05722,3.4127,6.7274,7.1589,-0.021075,0.0082467,-0.011912
-0.062134,3.4127,6.6685,7.1589,-0.021991,0.0061087,-0.012523
-0.055206,3.5696,6.6489,7.1785,-0.022602,0.009163,-0.016493
-0.051392,3.4716,6.747,7.1589,-0.022297,0.011912,-0.013744
-0.065155,3.3931,6.6881,7.0804,-0.025351,0.013744,-0.014355
-0.065338,3.5696,6.7274,7.2373,-0.025351,0.016188,-0.012217
-0.059204,3.55,6.7274,7.1785,-0.023213,0.017715,-0.010385
-0.069672,3.4323,6.7274,7.1589,-0.021991,0.015272,-0.011606
-0.078339,3.4127,6.6881,7.1785,-0.022907,0.016188,-0.01405
-0.092743,3.55,6.7274,7.1589,-0.023518,0.019853,-0.013439
-0.086334,3.55,6.6881,7.1785,-0.025962,0.015577,-0.013439
-0.090881,3.5304,6.5901,7.1589,-0.026878,0.012217,-0.014661
-0.087128,3.4716,6.7274,7.1785,-0.027489,0.012217,-0.016493
-0.087463,3.3931,6.6489,7.1589,-0.028405,0.012523,-0.016188
-0.085114,3.4127,6.7274,7.2373,-0.030238,0.012523,-0.016188
-0.092743,3.4912,6.6685,7.1589,-0.035125,0.011912,-0.015882
-0.089142,3.5696,6.6685,7.2373,-0.0042761,0.015272,-0.00030543
-0.071259,3.4127,6.5705,7.1785,-0.018631,0.015272,-0.00061087
-0.052216,3.3931,6.6489,7.1392,-0.019853,0.014661,-0.0094684
-0.048584,3.55,6.6489,7.2961,-0.017715,0.013744,-0.0094684
-0.050323,3.2558,6.7862,7.3158,-0.012828,0.013134,-0.0079412
-0.055084,3.4127,6.6881,7.1589,-0.0073304,0.014661,-0.0067195
-0.043671,3.4912,6.6489,7.2373,-0.0027489,0.015882,-0.0054978
-0.060211,3.55,6.6881,7.1589,-0.0015272,0.017104,-0.0015272
-0.060974,3.4127,6.6489,7.1589,-0.010385,0.014661,-0.0039706
-0.073639,3.4912,6.7274,7.2177,-0.01405,0.018326,-0.0042761
-0.087372,3.5696,6.7274,7.2765,-0.014966,0.016799,-0.0033598
-0.089233,3.2754,6.6881,7.2765,-0.020464,0.015577,-0.0051924
-0.085602,3.2754,6.6685,7.2961,-0.023213,0.016493,-0.0073304
-0.083557,3.4127,6.5901,7.2373,-0.023213,0.016493,-0.009163
-0.097687,3.5696,6.6881,7.2373,-0.022602,0.016493,-0.007025
-0.090118,3.2754,6.6881,7.2961,-0.019853,0.016188,-0.0045815
-0.091309,3.5304,6.7274,7.1589,-0.017715,0.016188,0.0076358
-0.090454,3.4127,6.6489,7.1589,-0.020159,0.015272,0.0088575
-0.091827,3.2558,6.7274,7.2373,-0.022907,0.01405,-0.0024435
-0.089355,3.3146,6.7274,7.2765,-0.020464,0.016493,0.00030543
-0.093323,3.3146,6.6489,7.2373,-0.016493,0.01741,0.0027489
-0.091064,3.2362,6.6881,7.3158,-0.015882,0.018631,0.0058032
-0.095581,3.5696,6.5901,7.1589,-0.018631,0.019548,0.0073304
-0.086975,3.55,6.5116,7.2177,-0.016493,0.018326,0.0073304
-0.096527,3.4323,6.7274,7.1589,-0.014966,0.018326,-0.0036652
-0.1069,3.4912,6.6489,7.1589,-0.015882,0.018021,-0.0073304
-0.11322,3.5892,6.6489,7.2177,-0.012828,0.01741,0.0082467
-0.12473,3.4127,6.6881,7.1589,-0.013439,0.017104,0.0054978
-0.12381,3.2558,6.6685,7.2765,-0.013744,0.018326,0.0042761
-0.11856,3.3146,6.6685,7.2373,-0.014966,0.017715,0.002138
-0.12714,3.55,6.6293,7.2961,-0.015882,0.019242,0.002138
-0.12625,3.2558,6.7274,7.2961,-0.013134,0.018021,0
-0.11746,3.4127,6.6881,7.2373,-0.0018326,0.020159,-0.011301
-0.11182,3.3146,6.6881,7.2765,-0.0024435,0.023824,-0.013134
-0.10538,3.5696,6.6293,7.1392,-0.0036652,0.020769,-0.0051924
-0.084595,3.5304,6.6881,7.2177,-0.0076358,0.016799,-0.0064141
-0.090912,3.4127,6.7274,7.1589,-0.011912,0.01741,-0.0088575
