0.2843,2.1575,-3.4127,8.2376,-0.10293,-0.01069,0.025351
0.28842,2.3732,-3.5108,8.1787,-0.11851,-0.019548,0.030849
0.27997,2.2359,-3.6873,8.1199,-0.12278,-0.023824,0.010385
0.30157,2.3732,-3.3735,8.2572,-0.1069,-0.022602,0.011301
0.29309,2.1575,-3.3146,8.1787,-0.076664,-0.013134,0.013134
0.27829,2.3732,-3.5304,8.0807,-0.049786,-0.002138,0.012217
0.26001,2.4517,-3.6873,8.0022,-0.032987,0.010385,0.0097738
0.24271,2.4517,-3.7069,8.1003,-0.028711,0.018326,0.015272
0.23703,2.4517,-3.3539,8.2376,-0.026878,0.019548,0.026267
0.23425,2.2948,-3.3146,8.218,-0.03146,0.0039706,0.012217
0.21844,2.2948,-3.5304,8.218,-0.030849,0.0076358,0.040317
0.21161,2.5497,-3.8638,8.0611,-0.023824,0.0030543,0.044593
0.19757,2.5497,-3.6677,8.0807,-0.039706,-0.0018326,0.040317
0.18832,2.3732,-3.5304,8.1787,-0.052229,0.0042761,0.035736
0.15741,2.5497,-3.5304,8.218,-0.067501,0.0045815,0.032681
0.12888,2.4909,-3.7265,8.1787,-0.081551,0.013744,0.034208
0.090332,2.4713,-3.5304,8.1199,-0.08491,0.018326,-0.013134
0.034424,2.3928,-3.8442,8.0611,-0.079412,0.021991,-0.017715
-0.012054,2.2359,-3.6677,7.963,-0.058338,0.03146,0.0033598
-0.064667,2.4517,-3.6285,7.9042,-0.027794,0.045509,-0.0064141
-0.1098,2.1771,-3.55,8.0218,-0.0033598,0.054672,-0.012828
-0.16626,2.4517,-3.6873,8.3357,0.0073304,0.054978,-0.010385
-0.20178,2.2948,-3.55,8.1787,0.0061087,0.050091,-0.0054978
-0.25055,2.6086,-3.7069,7.9434,-0.0045815,0.042455,-0.0076358
-0.28268,2.432,-3.7069,7.8649,-0.11912,-0.012828,0.0039706
-0.32239,2.432,-3.7658,7.963,-0.11423,-0.016493,0.0085521
-0.34833,2.2948,-3.7265,8.0807,-0.0956,-0.011301,-0.01741
-0.36993,2.4517,-3.55,8.0611,-0.078496,-0.0045815,-0.019242
-0.37665,2.432,-3.5696,8.0022,-0.079107,-0.0094684,-0.030849
-0.40192,2.2163,-3.5304,8.0807,-0.065668,-0.010079,-0.03146
-0.41623,2.2948,-3.6677,8.0611,-0.044288,-0.010079,-0.030238
-0.43472,2.432,-3.8246,8.0807,-0.01405,-0.0042761,-0.025656
-0.45187,2.5497,-3.7658,8.0611,0.18143,0.19456,0.11148
-0.44104,2.4517,-3.7265,8.0022,-0.060476,0.13073,0.06689
-0.42374,2.2359,-3.5892,7.9042,-0.29596,0.062919,0.058032
-0.43167,2.2948,-3.5304,8.0611,-0.48839,-0.00061087,0.071166
-0.42755,2.4517,-3.6873,8.0807,-0.59376,-0.039401,0.085216
-0.43011,2.6086,-3.7854,8.0611,-0.59193,-0.061392,0.099876
-0.43915,2.6086,-3.7658,7.9434,0.63683,-0.081856,0.11545
-0.4407,2.4909,-3.6285,7.963,0.41722,-0.093462,0.1295
-0.44653,2.2948,-3.6677,8.0807,-0.055894,-0.07758,0.0030543
-0.43652,2.4517,-3.55,8.1199,0.1405,-0.024129,0.0018326
-0.41989,2.2948,-3.6677,8.1199,0.24679,0.062003,0.027794
-0.41376,2.6086,-3.8638,7.8649,0.25962,0.14172,0.0024435
-0.40289,2.4517,-3.8638,7.9238,0.18479,0.18204,-0.010996
-0.37808,2.1771,-3.5304,7.963,0.048564,0.17959,-0.013134
-0.36603,2.3732,-3.5696,8.0218,-0.48869,0.13775,-0.0094684
-0.37918,2.4713,-4.3934,7.7669,-0.29352,0.068722,-0.0009163
-0.48312,2.9224,-5.1975,8.0807,-0.23213,-0.0036652,0.051618
-0.68781,2.6086,-3.9423,8.6495,-0.21228,-0.0562,0.05681
-0.9386,2.0594,-2.3144,8.5514,-0.14264,-0.080634,-0.00030543
-0.99997,1.9025,-1.4122,8.218,-0.050091,-0.077274,0.0027489
-0.99997,2.0594,-1.8829,7.9238,0.028711,-0.051007,0.0076358
-0.99997,2.1575,-2.6086,8.0807,0.053756,-0.013439,0.014661
-0.99997,2.1378,-3.8638,8.2572,-0.093462,0.025045,0.024435
-0.99997,2.6086,-4.9426,7.963,-0.19487,0.045815,0.036957
-0.99997,2.8047,-4.6484,8.0807,0.04215,0.065363,-0.002138
-0.99997,2.2163,-3.5304,8.3945,-0.0281,0.0281,0.034819
-0.99997,1.9809,-2.9028,8.4337,-0.022297,-0.036957,-0.0009163
-0.99997,1.9613,-2.9028,8.316,0.18051,-0.026573,-0.016799
-0.99997,2.1771,-3.3931,8.0807,0.49847,0.081551,-0.067806
-0.99997,2.4713,-3.8638,7.9434,0.75198,0.1857,-0.13195
-0.99997,2.4713,-3.8638,7.9434,0.85399,0.24557,-0.13103
-0.99908,2.1378,-3.4519,8.3749,0.79871,0.2416,-0.063225
-0.92374,2.3732,-3.3539,8.218,0.27214,0.12401,-0.197
-0.80707,2.2948,-3.6873,8.2572,0.28161,0.088575,-0.20097
-0.70084,2.1182,-3.3146,8.1787,0.32437,0.086437,-0.12248
-0.6131,2.1378,-3.6285,8.0807,0.3934,0.1182,-0.17318
-0.54785,2.1771,-3.8638,8.0218,0.47556,0.16371,-0.20647
-0.47293,2.2359,-3.7658,8.0022,0.53298,0.19792,-0.2193
-0.40366,2.3732,-3.7265,8.0022,0.53267,0.20281,-0.21655
-0.34604,2.0202,-3.3146,8.1003,0.46731,0.17135,-0.20495
-0.2821,2.2359,-3.5304,8.2376,0.31215,0.11148,-0.51832
-0.21844,2.1575,-3.6285,8.1787,-0.049786,0.038485,-0.58002
-0.15106,2.2359,-3.8638,8.0611,-0.49144,-0.075136,-0.21441
-0.09375,2.3732,-4.0403,7.8061,-0.66157,-0.23091,-0.25626
-0.0091248,2.432,-4.0403,7.6884,-0.69761,-0.2532,-0.34117
0.076416,2.4713,-3.3931,8.0022,-0.67378,-0.22083,-0.40959
0.16736,2.0006,-2.9028,8.7279,-0.57635,-0.19059,-0.43677
0.24835,1.9221,-2.9028,8.8064,-0.43463,-0.15149,-0.47037
0.32504,1.6083,-3.4519,8.8456,0.55619,0.18662,-0.01741
0.41644,1.824,-3.6677,8.2572,0.64691,0.24862,-0.040012
0.51178,1.9809,-3.5108,7.9434,0.63102,0.27733,-0.033292
0.62283,2.0006,-3.0008,8.0218,0.51649,0.24954,0.0076358
0.72556,1.7456,-2.6086,8.5514,0.3711,0.1854,0.040623
0.83344,1.824,-3.0793,8.9437,0.23854,0.11393,0.036652
0.92325,2.0202,-3.7658,8.7083,0.15394,0.05681,0.018326
0.99835,2.5497,-3.8834,8.316,0.13073,0.028711,0.00030543
1,2.5301,-3.2362,8.3749,0.20953,0.047342,-0.04948
1,2.4517,-2.6086,9.1986,0.27794,0.0956,-0.074831
1,1.9221,-2.7262,9.3752,0.33139,0.13347,-0.058643
1,2.0006,-3.0989,8.8848,0.38882,0.15821,-0.081856
1,2.7851,-3.5304,8.1591,0.42699,0.18265,-0.10232
1,2.9224,-4.0796,7.9042,0.41966,0.20739,-0.098655
1,3.1185,-4.5699,7.7865,0.37324,0.208,-0.07422
1,3.0989,-4.4914,7.9238,0.31001,0.17226,-0.051313
1,3.0008,-4.0796,8.1003,-0.50305,-0.35858,-0.58185
1,2.7851,-3.7658,8.218,-0.56108,-0.31826,-0.60842
1,3.2558,-4.0403,7.6492,-0.70097,-0.30268,-0.58429
1,3.2558,-4.3542,7.4531,-0.91019,-0.30391,-0.58551
1,3.5304,-4.7268,7.3746,-1.1112,-0.31857,-0.59865
1,3.6285,-4.4914,7.2373,-1.1927,-0.35736,-0.6127
1,3.5696,-4.158,7.1589,-0.68478,-0.42638,-0.61025
1,3.903,-3.7658,6.6685,-0.54734,-0.49266,-0.59101
1,4.0011,-3.6873,6.7666,-0.86437,0.98716,-1.5815
1,4.0403,-3.6873,7.1589,-0.91538,0.99632,-1.4722
1,4.1188,-3.4127,7.4531,-0.98685,0.99602,-1.8182
1,3.903,-3.0008,7.4531,-1.0675,0.97341,-1.7978
1,3.8638,-2.6282,7.3158,-1.1289,0.93951,-1.7831
1,3.6873,-2.9028,7.7473,-1.1356,0.90652,-1.7715
1,3.3146,-3.0401,8.3945,-1.0748,0.87079,-1.7455
1,3.2166,-2.8439,8.9044,-0.9557,0.82192,-1.6784
1,2.7066,-2.4517,9.3555,-0.81825,0.74312,-0.8323
1,2.5301,-2.5301,9.3163,-0.72265,0.63041,-0.78771
1,2.6086,-2.3732,9.1986,-0.68417,0.50396,-1.3592
1,2.687,-2.1575,9.8066,-0.6973,0.36927,-1.2544
1,2.432,-2.432,9.5713,-0.75961,0.25259,-1.1628
1,2.1378,-3.6873,9.3359,-0.8604,0.15852,-1.088
1,3.0204,-4.6091,8.3749,-1.0085,0.048258,-1.0037
1,3.1774,-5.4329,7.4727,-1.1912,-0.094073,-0.90408
1,3.1774,-5.8252,7.4334,-1.4523,-0.26114,-0.60659
1,3.1774,-5.5898,7.3746,-1.4942,-0.4102,-0.59743
1,2.9224,-4.8249,7.1196,-1.482,-0.49144,-0.72693
1,3.6481,-4.0403,6.747,-1.3754,-0.54978,-0.6805
1,4.0011,-4.5111,6.3547,-1.1487,-0.59315,-0.6634
1,3.8638,-6.0605,5.8055,-0.89156,-0.59223,-0.63255
1,4.6876,-6.9039,5.276,-1.3283,-0.53848,-0.60323
1,4.6484,-6.4528,5.7467,-1.3931,-0.43952,-0.6017
1,4.6287,-6.0409,5.4917,0.27733,0.23579,-0.086743
1,4.9426,-5.5506,4.4914,-0.00061087,0.17196,-0.078191
1,4.9622,-4.5699,4.1972,-0.080023,0.13164,-0.085521
1,4.5111,-4.7072,4.8249,-0.09163,0.13134,-0.10873
0.87582,4.5111,-4.9229,5.0995,-0.035736,0.1686,-0.12462
0.5928,4.4914,-3.9227,4.8249,0.047953,0.21228,-0.1237
0.24152,3.9423,-2.7655,4.8249,0.135,0.24038,-0.11209
-0.1412,2.7851,-2.5105,6.3547,0.21686,0.26298,-0.097128
-0.57425,2.1771,-3.8442,7.9434,0.90316,0.25992,0.16616
-0.93777,1.8044,-5.2956,9.0417,0.82375,0.2416,0.13897
-0.99997,2.1182,-5.7467,9.2575,0.71532,0.25717,0.31948
-0.99997,2.0006,-4.4718,9.3359,0.55894,0.28588,0.28283
-0.99997,2.0006,-3.5304,8.8848,0.40073,0.30177,0.25565
-0.99997,1.6083,-3.2362,8.5514,0.29047,0.31001,0.23793
-0.99997,1.1964,-3.6285,8.5514,0.23549,0.32467,0.21777
-0.99997,1.3729,-3.6677,7.9042,0.22602,0.34758,0.19242
-0.99997,1.6867,-3.3931,6.9823,0.29169,0.36652,0.041539
-0.99997,1.6671,-3.6873,6.845,0.35919,0.38546,-0.010996
-0.99997,1.8044,-4.0207,6.9039,0.39706,0.40225,0.11332
-0.99997,1.8437,-4.3345,7.4923,0.37415,0.39798,0.10782
-0.99997,2.1182,-4.3542,8.0807,0.27336,0.37324,0.12156
-0.99997,2.2751,-3.8638,8.316,0.11332,0.31948,0.11851
-0.99997,2.1575,-3.5108,8.1787,-0.07025,0.23824,0.098655
-0.99997,2.3732,-3.8638,7.7865,-0.21686,0.14264,0.076053
-0.99997,2.7066,-4.4718,7.2177,-0.28069,0.068722,-0.059559
-0.99997,3.1185,-4.3542,7.1589,-0.25259,0.039706,-0.069944
-0.99997,3.0008,-3.7854,7.7669,-0.13897,0.061697,-0.058032
-0.99997,2.5497,-3.3735,8.4141,0.029322,0.12828,-0.090103
-0.99997,2.4713,-3.4127,8.7279,0.17165,0.21716,-0.11393
-0.99997,2.687,-3.3931,8.4141,0.21777,0.29535,-0.11057
-0.99997,2.9028,-3.0597,8.316,0.15791,0.32376,-0.081245
-0.99997,2.6282,-2.687,8.6299,0.05284,0.29444,-0.061697
-0.99997,2.6086,-2.4517,8.8652,-0.27214,0.025351,-0.17257
-0.99997,2.2359,-2.0594,9.1202,-0.31032,0.0079412,-0.14264
-0.99997,2.1771,-2.0594,9.1986,-0.34636,-0.012217,-0.076053
-0.99997,2.2948,-2.2751,8.9437,-0.33934,-0.0094684,-0.11026
-0.99997,2.1182,-2.687,8.6299,-0.28375,0.03146,-0.15363
-0.99997,2.3928,-3.3931,8.8456,-0.20067,0.092546,-0.18204
-0.99997,2.5497,-3.6088,8.5906,-0.098349,0.15821,-0.18998
-0.99997,2.8635,-3.3735,8.316,-0.029322,0.20525,-0.18967
-0.99997,2.2948,-2.8243,8.4141,-0.34544,0.1909,-0.11423
-0.99997,1.9809,-2.5105,8.5318,-0.41111,0.10965,-0.082161
-0.99997,2.5497,-2.7851,8.1003,-0.41783,0.018631,-0.13317
-0.99997,2.8635,-3.2166,8.0611,-0.39981,-0.032987,-0.14966
-0.99997,2.7851,-3.3735,8.0807,-0.35155,-0.043982,-0.15852
-0.92395,2.6478,-3.2362,8.2376,-0.26695,-0.043066,-0.14203
-0.81891,2.6086,-3.4127,8.0807,-0.068111,-0.030849,-0.12553
-0.71887,3.0008,-3.7265,7.9434,-0.20617,-0.0058032,-0.12523
-0.6337,3.1185,-3.7069,7.8649,-0.067501,0.034208,-0.05284
-0.56787,2.6478,-3.0597,8.3749,-0.039401,0.048258,-0.055589
-0.49557,2.2948,-2.7262,8.8652,-0.0012217,0.036957,-0.058338
-0.4314,2.4909,-3.1577,8.2768,0.043982,0.023518,-0.06689
-0.39734,2.6282,-3.4519,8.0022,0.060476,0.017104,-0.083689
-0.34283,2.6086,-3.6677,7.7865,0.026573,0.027489,-0.086743
-0.31387,2.4517,-3.6873,7.9238,-0.1741,0.034208,-0.079107
-0.27206,2.589,-3.6677,8.0611,-0.10507,0.021075,-0.062614
-0.24832,2.7851,-3.6873,8.1003,-0.24129,-0.016799,-0.063225
-0.23114,2.7851,-3.4127,8.2376,-0.2981,-0.065363,-0.076053
-0.21103,2.432,-3.2166,8.3357,-0.3094,-0.087965,-0.067195
-0.19684,2.5301,-3.3735,8.218,-0.27581,-0.089797,-0.078496
-0.16043,2.687,-3.5108,8.0022,-0.2193,-0.079107,-0.076664
-0.1246,2.8635,-3.6873,8.0022,-0.146,-0.057116,-0.063835
-0.088989,2.8439,-3.8834,7.9434,-0.054062,-0.025656,-0.05681
-0.049561,2.7851,-3.7069,7.9238,-0.15333,0.015882,-0.0562
-0.023438,2.9224,-3.6285,7.963,0.050702,0.11484,0.061697
-0.0066833,2.2751,-3.6285,8.4141,-0.034514,0.073609,0.059254
0.020142,2.4517,-3.3735,8.2768,-0.13836,0.025351,-0.043066
0.027802,2.589,-3.5304,8.1199,-0.24221,-0.022907,-0.027489
0.040009,2.5497,-3.7658,7.8649,-0.30665,-0.062308,-0.0073304
0.055298,2.8047,-3.7658,7.9434,-0.31765,-0.083689,0.021991
0.073364,2.7851,-3.6873,8.0022,-0.29841,-0.086437,0.049175
0.072571,2.6282,-3.6873,8.0022,-0.26053,-0.08094,0.060781
0.082245,2.7851,-3.6873,7.7865,-0.16585,-0.069944,0.013134
0.098938,2.942,-3.7854,7.8649,-0.1127,-0.055589,0.022907
0.11392,2.9224,-3.8442,7.7865,-0.067806,-0.040317,0.058643
0.13449,2.942,-3.9815,7.7473,-0.045204,-0.026573,0.061392
0.15729,3.0793,-4.0011,7.4727,-0.059865,-0.030849,0.063835
0.16663,2.8635,-3.9815,7.6492,-0.071777,-0.05284,0.065973
0.1759,2.7851,-3.55,7.9434,-0.051618,-0.051313,0.061087
0.20755,2.5497,-3.3735,8.1199,-0.022602,-0.0281,0.030543
0.20502,2.3732,-3.0793,8.316,-0.009163,-0.007025,0.029322
0.19879,2.0594,-3.1381,8.5318,-0.0036652,0.0051924,0.039401
0.20398,2.2948,-3.2362,8.4141,0.0058032,0.010079,0.023824
0.20059,2.4517,-3.6873,8.0022,0.019242,0.012828,0.01405
0.18811,2.589,-4.0207,7.9238,0.032376,0.014661,0.01069
0.18829,2.942,-4.0207,7.7669,0.04948,0.018021,0.014966
0.18591,2.8635,-3.8834,7.7669,0.075136,0.023518,0.020464
0.18082,2.7066,-4.0207,8.1003,0.098044,0.030238,0.022602
0.16574,3.0793,-4.0207,7.708,-0.0082467,0.03207,-0.085521
0.16034,2.9028,-3.7658,7.6296,0.037568,0.067501,-0.063225
0.13916,2.687,-3.8638,7.61,0.080634,0.09896,-0.089186
0.1304,2.8047,-3.7658,7.9434,0.12767,0.1295,-0.095295
0.10965,2.6282,-3.9423,7.9434,0.17135,0.15363,-0.10171
0.092896,2.687,-3.9815,7.8649,0.17929,0.15852,-0.1011
0.06369,2.7655,-3.5304,8.0218,0.15485,0.14997,-0.092241
0.043152,2.687,-3.6677,8.0022,0.1124,0.13622,-0.092852
0.0067444,2.4517,-3.6285,8.1199,-1.7572,-0.67684,-0.52107
0.0019836,2.7459,-3.7265,7.8061,-1.9771,-0.92852,-0.5901
0.020081,2.687,-3.8834,7.8649,-2.1209,-1.1402,-0.27825
0.038879,2.9224,-3.8246,7.6884,-2.1973,-1.2972,-0.29566
0.053802,2.7655,-3.7658,8.0022,-2.2443,-1.4142,-0.29688
0.072327,2.6282,-3.6285,8.0022,-2.2098,-1.4997,-0.31643
0.085938,2.589,-3.5696,8.0611,-1.1979,-1.5754,-0.36377
0.09787,2.6086,-3.7658,7.9434,-1.5052,-1.6075,-0.43646
0.13174,2.7851,-3.7658,7.9042,-1.7324,-1.5702,-0.69608
0.14514,2.6282,-3.8638,7.8649,-1.536,-1.4759,-0.67409
0.16528,2.589,-3.7854,8.0022,-1.2581,-1.35,-0.62492
0.1582,2.8635,-3.9815,7.9042,-0.96303,-1.2688,-0.6295
0.19778,2.8047,-3.7069,7.9238,-0.77824,-1.1585,-0.6014
0.2146,2.6086,-3.7069,8.0022,-0.63591,-0.96608,-0.63225
0.22852,2.5497,-3.8638,8.1199,-2.0772,-0.83444,-0.73731
0.23383,2.2948,-3.8834,8.2768,-1.9035,-0.73304,-0.74831
0.25781,2.7655,-4.0403,8.3945,-0.0024435,0.027489,-0.027794
0.28098,3.1774,-3.55,8.7083,-0.0097738,0.026878,-0.039401
0.30539,3.0793,-3.0401,9.5125,-0.020159,0.02138,-0.01741
0.33929,2.0594,-3.3735,10.67,-0.029016,0.016799,-0.01741
0.35043,1.5102,-4.2561,10.67,-0.03207,0.014966,-0.022297
0.35385,2.2948,-4.7856,9.7478,-0.037263,0.014661,-0.025656
0.36411,3.3931,-5.1975,8.3749,-0.041539,0.010996,-0.025045
0.38461,3.7265,-6.139,6.9627,-0.038485,-0.0042761,-0.026573
0.42654,4.5111,-6.5901,5.6682,-0.030238,-0.027794,-0.18509
0.48087,5.1975,-5.8055,4.5503,-0.013744,-0.062003,-0.23671
0.56137,4.1972,-5.3544,4.6287,0.0018326,-0.088575,-0.059865
0.64236,4.3345,-4.6287,4.2561,-0.014661,-0.097738,-0.090408
0.72382,3.8834,-4.1972,3.9423,-0.081245,-0.10018,-0.12004
0.79083,4.1776,-4.3345,4.0207,-0.23793,-0.1347,-0.12859
0.86307,4.668,-4.7072,4.4914,-0.50671,-0.23427,-0.13134
0.91776,4.8053,-4.3345,4.9622,-0.84788,-0.42516,-0.14722
0.95187,5.0014,-3.3931,5.0406,0.33048,0.13592,-0.0030543
0.99725,4.5111,-2.2751,5.1779,0.31154,0.13103,-0.040012
1,4.5111,-1.6475,5.1779,0.27825,0.14478,-0.061697
1,4.5699,-3.2558,4.6484,0.22266,0.16188,-0.058643
1,5.374,-5.8252,3.8442,0.16799,0.17776,-0.038179
1,5.5898,-6.3743,3.8834,0.11118,0.1854,-0.014355
1,5.0014,-5.8055,4.9229,0.059865,0.16952,0.0088575
1,4.8053,-5.1779,5.8055,0.045509,0.13256,0.018937
1,4.1972,-4.7856,6.3351,0.092546,0.11118,0.043677
0.99094,4.1776,-4.9426,6.492,0.16738,0.13317,0.03543
0.91693,4.6287,-4.8837,6.1978,0.19853,0.17685,-0.041233
0.82611,4.2757,-3.9423,5.9821,0.15058,0.19761,0.013744
0.71118,3.0989,-3.7265,6.8058,0.041233,0.17043,0.062308
0.57907,2.5497,-4.0207,7.8649,-0.072998,0.10263,0.080023
0.44894,2.7655,-4.8249,8.4926,-0.15027,0.0281,0.081551
0.32001,2.9224,-5.4133,9.0221,-0.17898,-0.03146,0.063225
0.20624,2.7655,-4.7856,9.3752,0.52962,1.0653,0.042761
0.097687,2.4909,-3.8834,9.3359,0.49572,0.99113,0.017104
-0.010071,2.1575,-3.5304,9.2771,0.48289,0.9276,0.20067
-0.10712,2.4713,-3.8638,9.179,0.52504,0.89034,0.15455
-0.18735,2.6086,-4.0403,8.9437,0.57727,0.85521,0.10873
-0.23218,2.5301,-3.7658,8.8652,0.58338,0.79535,0.083994
-0.28955,2.2359,-3.5304,8.5318,0.52504,0.70402,0.068722
-0.3338,2.3928,-3.2558,8.0022,0.42486,0.58979,0.056505
-0.36823,2.2948,-3.0793,7.7865,0.25565,0.47434,-0.055283
-0.3913,2.6086,-2.9224,7.7473,0.21777,0.37263,-0.058338
-0.42325,2.6086,-3.1381,8.0022,0.24007,0.29871,-0.014966
-0.43936,2.6478,-3.6873,8.0022,0.2981,0.25748,-0.033292
-0.43854,2.6478,-3.5108,8.0022,0.36285,0.23243,-0.046731
-0.44409,2.2948,-3.0008,8.1199,0.40348,0.21319,-0.053145
-0.43027,2.1182,-3.295,8.1199,0.39309,0.19181,-0.053756
-0.41708,2.1771,-3.8246,8.0807,0.35919,0.16188,-0.053451
-0.39944,2.2359,-3.8638,8.2572,-1.9545,-1.2709,-0.30482
-0.36078,2.4713,-3.9227,8.2572,-1.959,-1.4242,-0.37049
-0.31473,2.2359,-3.7069,8.0807,-1.9157,-1.5641,-0.11912
-0.28787,2.4713,-3.6088,7.61,-1.8928,-1.6866,-0.15699
-0.27176,2.4517,-3.5304,7.8649,-1.9203,-1.7514,-0.19517
-0.24014,2.6478,-3.8638,8.0022,-2.0076,-1.7669,-0.20739
-0.2388,2.6086,-3.9423,7.9434,-1.8011,-1.7541,-0.22022
-0.22888,2.8635,-3.8834,7.9042,-1.8977,-1.7523,-0.26084
-0.2258,2.6282,-3.7658,7.7473,0.30085,0.16402,-0.097128
-0.2608,2.6478,-3.6677,7.9042,0.3375,0.1909,-0.096211
-0.28693,2.687,-3.6873,8.0218,0.40195,0.21747,-0.1014
-0.3255,2.3732,-3.6285,8.0022,0.46609,0.24374,-0.09896
-0.35449,2.4517,-3.8442,7.963,0.5006,0.25137,-0.084605
-0.38901,2.6086,-3.8442,8.0022,0.49022,0.23121,-0.073609
-0.42657,2.1575,-3.6285,8.2376,0.4499,0.20128,-0.068417
-0.4426,2.0594,-3.3931,8.6299,0.41905,0.17715,-0.081856
-0.47977,2.1378,-3.0597,8.4141,0.4328,0.15577,-0.019548
-0.50394,2.0594,-3.0793,8.3945,0.44502,0.13775,0.0079412
-0.51678,2.4517,-2.942,8.4141,0.42883,0.13286,-0.10049
-0.52051,2.0006,-2.687,8.7475,0.34758,0.13653,-0.11118
-0.51501,2.2359,-2.1967,9.1202,0.18845,0.13928,-0.10385
-0.43207,1.7064,-1.824,9.7478,-0.020464,0.13134,-0.087354
-0.35159,1.7652,-2.0986,10.356,0.40989,0.07422,-0.072388
-0.24966,2.0594,-2.5105,10.375,0.41997,-0.034514,-0.049786
-0.12869,2.2359,-2.8243,10.12,-0.74281,-0.15974,0.024129
-0.0046997,1.8633,-3.4519,10.317,-0.99418,-0.30788,-0.059559
0.1134,2.4517,-4.0403,9.9832,-1.2135,-0.45693,0.034208
0.23788,2.5497,-4.9229,10.12,-1.4071,-0.58124,0.044288
0.38907,2.7459,-5.2956,9.1006,-1.5583,-0.68325,0.052229
0.57031,2.6478,-5.1191,7.1589,-1.6793,-0.77794,0.07025
0.75534,2.8635,-5.2564,5.9624,-0.23305,-0.93096,0.081245
0.9476,3.903,-7.2961,4.0207,-0.47159,-1.1112,0.075136
1,5.884,-8.9044,2.589,-0.07758,0.46548,0.20342
1,6.0017,-8.5514,3.6088,-0.18662,0.4609,0.27855
1,5.0602,-5.5898,5.0406,-0.2532,0.45173,-0.29841
1,4.6484,-3.7658,5.6486,-0.24312,0.46242,-0.21319
1,5.0602,-2.9224,5.4525,-0.14416,0.50213,-0.15088
1,5.1975,-2.7851,5.1191,0.010996,0.56566,-0.085827
1,5.4721,-3.3539,4.6287,0.18295,0.63927,0.0039706
1,5.9232,-3.7658,3.8442,0.32345,0.70708,0.10751
1,5.9428,-3.5304,4.0992,0.39767,0.74281,0.4328
1,5.276,-2.942,4.7072,0.40134,0.74464,0.43982
1,5.2956,-2.432,5.0406,0.37751,0.7251,0.33262
1,5.374,-2.0594,5.3544,0.36438,0.7138,0.36744
1,5.1387,-2.1182,5.3937,0.35644,0.69608,0.39645
1,5.5702,-2.687,4.9426,0.38423,0.66035,0.42699
1,5.5113,-3.2558,5.0995,0.47953,0.65118,0.44593
1,5.6682,-3.6285,5.3544,0.63469,0.67806,0.43952
1,5.629,-3.7265,6.0801,1.0482,0.75533,0.6017
1,5.2956,-3.8246,6.3547,1.3204,0.85674,0.61361
1,5.1387,-3.8638,6.5508,1.5214,0.96272,0.4722
1,5.374,-4.158,6.237,1.5934,1.0385,0.52168
1,5.2564,-4.3149,5.9821,1.5656,1.0458,0.57757
0.99637,5.0602,-3.8638,6.1193,1.493,1.0143,0.61239
0.89102,4.5699,-3.5304,7.2961,1.4157,1.0217,0.61148
0.6853,4.1972,-3.3146,7.6884,1.332,1.0287,0.59743
0.45148,3.8638,-2.9224,7.2373,1.2489,1.003,0.41417
0.17755,3.3735,-3.0793,7.8649,1.171,0.94531,0.39828
-0.11563,3.2362,-3.6088,9.3555,1.0721,0.85796,0.63072
-0.42831,3.5304,-4.5111,11.219,0.90927,0.74373,0.63897
-0.73239,3.7265,-4.9622,10.434,0.70402,0.5736,0.62003
-0.96909,3.9423,-4.7856,9.2575,0.51771,0.37202,0.5901
-0.99997,3.8638,-3.9423,8.4926,0.42822,0.19639,0.5397
-0.99997,3.6481,-3.0008,7.963,0.51129,0.072388,0.46578
-0.99997,3.7069,-2.2751,7.5511,0.29871,0.55833,-0.0067195
-0.99997,3.2558,-1.6279,7.1589,0.25626,0.50732,-0.013439
-0.99997,3.1185,-1.4122,7.2373,0.22633,0.4554,-0.054672
-0.99997,3.0793,-1.6867,7.2961,0.2193,0.4215,-0.081245
-0.99997,3.4323,-3.2166,7.3746,0.21625,0.39218,-0.086132
-0.99997,3.8442,-4.5699,7.7865,0.17959,0.35369,-0.052229
-0.99997,4.0011,-5.2564,7.5511,0.11576,0.29413,-0.013134
-0.99997,3.9423,-5.0798,7.2373,0.065057,0.22144,0.00030543
-0.99997,4.0011,-4.5111,7.1589,0.04948,0.16493,-0.03146
-0.99997,3.805,-3.6285,7.1785,0.066584,0.13683,-0.048564
-0.99997,3.4716,-2.942,8.0611,0.099571,0.13439,-0.01741
-0.99997,3.1774,-3.3146,8.0022,0.13714,0.14264,-0.03146
-0.99997,3.5304,-3.9227,7.5903,0.17013,0.16402,-0.040623
-0.99997,3.3146,-3.4519,7.7865,0.18754,0.18082,-0.039095
-0.99997,3.0989,-2.9812,8.1787,0.16677,0.16921,-0.028711
-0.99997,2.687,-3.0989,8.6887,0.10873,0.13683,-0.021686
-0.99997,2.8635,-3.0793,8.7083,0.04948,0.10537,-0.0061087
-0.99997,2.8047,-2.7851,9.179,0.064141,0.091324,-0.0039706
-0.99997,2.589,-2.7851,9.179,0.071471,0.085521,-0.048869
-0.99997,2.4713,-3.2166,8.8064,0.069944,0.081856,-0.036652
-0.99997,2.8635,-3.1381,8.2572,0.06017,0.081856,-0.034514
-0.99997,2.9224,-2.9224,8.0807,0.020769,0.082161,-0.036346
-0.99997,2.7851,-2.8243,8.4141,0.057116,0.074831,-0.026573
-0.99997,2.7655,-2.942,8.5514,0.041844,0.055589,-0.01405
-0.99997,2.8635,-2.8243,8.4926,-0.13439,0.036041,0.017104
-0.99997,2.687,-2.7655,8.316,-0.039401,0.028711,0.016493
-0.99997,2.7655,-2.687,8.4141,-0.068417,0.027184,0.002138
-0.99997,2.6086,-2.7459,8.5318,-0.080023,0.024129,0.011301
-0.99997,2.6086,-2.8243,8.4141,-0.097128,0.017104,0.015882
-0.99997,2.6086,-2.8243,8.3357,-0.11393,0.009163,0.017104
-0.99997,2.6478,-2.7655,8.5514,-0.12492,0.0024435,0.019242
-0.99997,2.6282,-2.9028,8.2572,-0.13195,-0.0064141,0.020464
-0.99997,2.6282,-2.9224,8.4337,-0.34941,-0.11087,0.038179
-0.99997,2.8047,-3.3931,8.4926,-0.28069,-0.11148,0.046731
-0.96948,2.8635,-3.2558,8.0807,-0.18234,-0.079412,-0.018326
-0.94562,2.7851,-3.3146,8.2768,-0.10263,-0.031765,-0.027184
-0.91028,2.9224,-3.0793,8.1003,-0.082467,0.0076358,-0.013134
-0.88812,2.7459,-2.6282,8.4141,-0.14661,0.018021,0.0051924
-0.86337,2.5497,-2.5693,8.5318,-0.29963,-0.0024435,0.02138
-0.85373,2.5497,-3.0401,8.3749,-0.53115,-0.045815,0.032376
-0.82428,2.8047,-3.0793,8.2376,-0.82467,-0.10079,-0.027489
-0.79984,2.8439,-3.0008,8.5514,-1.1356,-0.16646,-0.033598
-0.77478,2.6086,-2.687,8.7279,-1.4239,-0.25381,0.063835
-0.75726,2.6086,-2.9224,8.7279,-1.6429,-0.35919,0.082467
-0.74124,2.9224,-3.3735,7.963,-1.7358,-0.46181,0.093462
-0.6991,2.8635,-3.8638,7.4334,-1.7049,-0.53817,0.089492
-0.67426,2.8635,-4.0207,7.61,-1.5925,-0.55375,0.063225
-0.64279,3.0008,-3.5696,8.218,-1.4325,-0.52015,0.015577
-0.62683,2.8635,-3.3735,8.0807,-1.2501,-0.4667,-0.019242
-0.60275,2.7851,-3.3931,8.1003,-1.0559,-0.41661,-0.021075
-0.5798,2.8439,-3.7658,7.7473,-0.87842,-0.37263,-0.01741
-0.56876,3.0989,-3.9423,7.7669,-0.73059,-0.32101,-0.0094684
-0.54819,2.7851,-3.6873,8.1003,-0.59865,-0.26848,-0.019853
-0.5358,2.8635,-3.1381,8.5514,-0.47861,-0.22052,-0.025045
-0.52216,2.6282,-2.9028,8.9044,-0.3766,-0.16982,-0.024435
-0.51126,2.6282,-2.8832,8.7279,-0.29871,-0.1295,-0.023518
-0.48254,2.687,-3.3931,8.4141,-0.47098,-0.16738,0.047342
-0.44858,2.7655,-4.2953,7.4531,-0.27917,-0.091019,0.018937
-0.40048,2.9616,-4.9818,6.9235,-0.11942,-0.030849,0.051618
-0.3501,3.2558,-5.2564,6.5312,-0.030849,0.0039706,0.079718
-0.30466,3.5304,-5.5506,6.492,-0.026573,0.0051924,0.088575
-0.26361,3.3146,-5.3348,6.4332,-0.092241,-0.015272,0.088575
-0.22855,3.4127,-5.1975,6.2959,-0.18754,-0.042761,0.075442
-0.19778,3.4716,-4.9622,6.237,-0.28497,-0.079107,0.059559
-0.18256,3.1774,-5.0995,6.3939,-0.91813,-0.58918,-0.24801
-0.15662,3.2558,-5.1387,6.4332,-1.0464,-0.6918,-0.2416
-0.13043,3.5304,-5.1191,6.747,-1.175,-0.8094,-0.1405
-0.1329,3.4127,-5.0798,6.9235,-1.2892,-0.94073,-0.15149
-0.1333,3.3735,-4.9818,7.0216,-1.3699,-1.0614,-0.16341
-0.15115,3.4716,-4.9229,7.0019,-1.3818,-1.1414,-0.18173
-0.17929,3.4323,-4.7856,7.0216,-0.68875,-1.1732,-0.21014
-0.22177,3.0793,-4.7072,7.1196,-0.80054,-1.1771,-0.23579
-0.25436,3.4127,-4.8837,6.9235,-1.5342,-1.1435,-0.27428
-0.29736,3.2754,-4.7072,7.0019,-1.668,-1.1029,-0.25107
-0.33459,3.1185,-4.7856,7.0019,-1.7623,-1.0876,-0.23243
-0.3761,3.2362,-4.9426,6.8254,-1.7654,-1.0699,-0.23946
-0.41199,3.2558,-4.9622,7.0019,-1.6869,-1.0525,-0.23946
-0.44287,3.4912,-5.0798,7.1196,-1.5721,-1.0214,-0.22663
-0.45523,3.4912,-4.7072,7.1589,-1.3476,-0.95753,-0.22999
-0.46323,3.1774,-4.413,7.0216,-1.4114,-0.85552,-0.25443
-0.46506,3.0793,-4.6091,7.2961,0.06017,0.017104,-0.013439
-0.4808,3.3146,-4.766,7.5903,0.10354,0.023518,-0.02138
-0.4859,3.2558,-4.7268,8.0218,0.13653,0.035125,-0.012828
-0.4863,3.0008,-4.7072,8.4141,0.14661,0.044593,-0.02138
-0.47595,3.0008,-5.1975,8.7083,0.13439,0.048258,-0.030543
-0.48938,2.9616,-5.4329,8.6299,0.088881,0.045509,-0.027184
-0.48083,2.7851,-5.3937,8.2572,0.011912,0.025962,-0.021075
-0.46344,3.3146,-5.5113,7.8061,-0.07422,-0.0088575,-0.017104
-0.43457,4.0403,-5.2564,7.0019,-0.14233,-0.045204,-0.085827
-0.38412,4.06,-5.021,6.492,-0.18326,-0.066584,-0.12095
-0.33588,4.3542,-5.021,5.7075,-0.2135,-0.093157,-0.030849
-0.30423,4.4914,-4.5699,4.9426,-0.24587,-0.12798,-0.030849
-0.26804,4.1972,-4.6091,4.1972,-0.29413,-0.18112,-0.034208
-0.25562,4.5111,-5.3937,3.0008,-0.36469,-0.27428,-0.033598
-0.25137,4.7464,-5.7075,2.2555,-0.4612,-0.38668,-0.031154
-0.25146,4.668,-5.5506,2.0398,-0.57391,-0.48961,-0.047953
-0.26501,4.5307,-5.1387,1.8044,0.052229,-0.19426,-0.05284
-0.24951,5.2956,-4.4914,1.6475,0.13958,-0.12889,-0.04215
-0.20734,5.1191,-4.3149,1.9417,0.2474,-0.037263,0.035125
-0.22098,4.9622,-5.2956,2.5301,0.35919,0.057116,-0.023518
-0.17508,5.1975,-6.5312,2.5301,0.45723,0.14569,-0.058032
-0.11649,4.7856,-7.4531,3.2166,0.51832,0.22602,-0.078802
-0.032898,4.1188,-7.4923,4.7268,0.54153,0.29871,-0.081245
0.029236,4.0207,-7.4531,5.1387,0.53817,0.34636,-0.069944
0.062592,3.8834,-6.6685,5.5506,3.204,2.0006,-0.22755
0.029266,3.2754,-5.2956,6.3743,2.9822,1.9145,-0.20342
-0.076508,2.4713,-3.8638,7.4923,2.4163,1.7321,-0.13225
-0.27341,1.7456,-2.6282,9.1202,1.5153,1.2196,-0.042455
-0.60727,-0.33343,-0.70608,15.396,0.50519,0.34575,0.10568
-0.9621,-1.9417,-2.3536,15.396,-0.12767,-0.31704,0.24068
-0.99997,1.6867,-3.3146,10.454,-0.19853,-0.53817,0.15608
-0.99997,3.5696,-2.432,8.5514,0.065057,-0.48167,-0.082772
-0.99997,1.3925,-1.824,9.434,0.37232,-0.32956,-0.11576
-0.99997,1.3925,-1.5102,9.4144,0.46365,-0.23824,-0.063225
-0.99997,2.2359,-2.8439,7.1785,0.25473,-0.28039,-0.096517
-0.99997,3.0793,-4.158,5.4917,-0.21869,-0.43066,-0.0015272
-0.99997,3.4912,-4.8641,5.9036,-0.8042,-0.65027,0.029016
-0.99997,3.805,-4.5699,6.6685,-1.23,-0.83719,0.025962
-0.95584,3.8442,-4.2561,7.7669,-1.3396,-0.9108,-0.0012217
-0.75653,3.3931,-4.1776,7.8649,-1.1729,-0.85827,-0.075136
-0.59119,3.6285,-4.4914,7.1589,-0.54184,-0.66951,0.15149
-0.47495,3.4323,-4.4914,6.747,-0.30604,-0.47678,0.10324
-0.39996,3.5892,-4.0011,6.747,-0.14569,-0.35888,0.03207
-0.36557,3.5892,-3.6285,7.1589,-0.052229,-0.26145,0.083078
-0.36636,3.1774,-3.3539,7.3746,-0.025351,-0.20769,0.11973
-0.3735,2.9224,-3.2166,7.61,-0.018326,-0.2022,0.17746
-0.40729,2.7851,-3.1381,8.0022,-0.017104,-0.20983,0.20433
-0.42484,2.687,-3.1381,8.6495,0.00030543,-0.21289,0.18509
-0.42532,2.7851,-3.2362,8.8064,0.08491,0.0067195,0.022907
-0.42679,2.5497,-3.5108,8.7083,0.12737,0.016493,0.019853
-0.41785,2.7851,-3.4716,8.3749,0.13164,0.029932,-0.034514
-0.40634,2.5497,-3.4519,8.3945,0.087965,0.03879,-0.014966
-0.38266,2.8047,-3.5304,8.4926,0.015882,0.030849,-0.00030543
-0.36133,2.8439,-3.2362,8.2572,-0.031765,0.0018326,0.021991
-0.35123,2.8635,-3.3931,7.8453,-0.018937,-0.040317,0.037874
-0.31546,3.0989,-3.55,7.61,0.028711,-0.065973,0.033903
-0.27744,2.9616,-3.2362,7.7865,0.24801,0.24984,0.11881
-0.24194,3.1774,-3.1577,7.9434,0.29077,0.24801,0.1124
-0.19653,2.8635,-3.2558,8.1003,0.343,0.25137,-0.099876
-0.17511,2.6282,-3.3539,7.9434,0.36072,0.24099,-0.058948
-0.14478,2.6086,-3.197,8.3945,0.34361,0.208,0.00061087
-0.10428,2.6086,-3.197,8.316,0.29383,0.15882,0.053145
-0.090393,2.4909,-2.9028,8.3749,0.20892,0.097128,0.086437
-0.08017,2.0006,-2.4713,8.6887,0.10049,0.032681,0.11026
-0.078552,1.9809,-2.2555,9.0221,-0.12339,-0.028405,0.007025
-0.10223,2.1771,-2.0986,9.179,-0.07758,-0.075442,0.0088575
-0.12573,2.1182,-2.432,9.1986,-0.025351,-0.095295,0.095295
-0.16071,2.5497,-3.0989,8.7083,-0.002138,-0.07758,0.072998
-0.18771,2.6086,-3.0401,8.2572,0.0073304,-0.049175,0.054672
-0.20334,2.7851,-3.0793,8.2572,0.040928,-0.028405,0.06017
-0.1951,3.0204,-2.8243,7.9434,-0.018021,-0.00061087,0.061697
-0.19479,2.5497,-2.7459,8.316,-0.10629,0.034819,0.031154
-0.20435,2.2948,-2.7459,8.6299,0.12553,0.065363,-0.034208
-0.22986,2.2948,-2.7655,8.7083,0.11912,0.082161,-0.047037
-0.26334,2.6086,-3.0008,8.6299,0.10873,0.085827,0.015577
-0.29733,2.687,-3.0008,8.4926,0.085521,0.07758,0.010996
-0.31781,2.4909,-3.0793,8.5514,0.029627,0.073915,0.0012217
-0.35437,2.2751,-2.6086,8.8848,-0.021075,0.069639,-0.0088575
-0.39694,2.2359,-2.3536,8.9633,0.08491,0.048564,-0.018021
-0.43341,2.432,-2.4517,8.316,0.11087,0.016799,-0.023518
-0.47287,2.6086,-2.687,8.4926,-0.1463,-0.042455,-0.080329
-0.49295,2.6086,-2.942,8.8652,-0.11973,-0.019548,-0.075442
-0.47369,2.687,-3.0793,8.7279,-0.073304,0.017715,-0.040012
-0.45206,2.6478,-2.687,8.5514,-0.036346,0.050396,-0.036346
-0.39926,2.432,-2.6282,8.4926,-0.0064141,0.065668,-0.03146
-0.31302,2.9224,-2.7459,8.1787,0.020464,0.073609,-0.034819
-0.20508,3.0008,-3.0989,8.1003,0.04215,0.083078,-0.051924
-0.1192,2.7655,-3.0597,8.1787,0.059865,0.096517,-0.072998
-0.040436,2.4713,-3.197,8.316,0.015272,0.1066,-0.074526
0.029022,2.6086,-2.7459,8.7083,-0.043982,0.096822,-0.048564
0.097748,2.3928,-2.6086,8.7083,-0.087048,0.069944,-0.075747
0.14514,2.687,-2.687,8.4141,-0.10293,0.050091,-0.081856
0.17639,2.8635,-2.8243,7.963,-0.10996,0.053756,-0.086437
0.19525,2.9224,-3.0989,7.7669,-0.095906,0.073609,-0.087048
0.19632,2.8635,-3.197,8.1003,-0.051924,0.098655,-0.085827
0.20764,3.0008,-3.1381,8.4337,0.0058032,0.12065,-0.086743
0.2171,2.7851,-3.0401,8.3749,0.049175,0.13073,-0.039401
0.21323,2.8047,-2.7655,8.4337,0.054367,0.12889,-0.022602
0.21954,2.687,-2.7655,8.4141,0.043371,0.11209,-0.034514
0.22174,2.7851,-2.7851,8.3945,0.037263,0.091935,-0.03146
0.24319,2.9224,-2.9224,8.2572,0.033903,0.076969,-0.037263
0.26343,2.589,-3.0008,8.3749,0.032681,0.067806,-0.047037
0.30737,2.7459,-2.9812,8.6299,0.028711,0.068417,-0.044288
0.34708,2.4909,-2.9028,8.7475,0.017715,0.072388,-0.043677
0.39157,2.4517,-2.7851,8.5906,0.026878,0.063835,0.055894
0.42587,2.6086,-2.6086,8.316,0.029016,0.069639,0.057727
0.42896,2.2751,-2.3144,8.2376,-0.041844,0.078802,0.00061087
0.42389,2.3732,-2.5105,8.4729,-0.14966,0.047037,0.026573
0.42111,2.5497,-2.6086,8.8064,-0.21991,-0.01069,0.033903
0.41449,2.589,-2.9028,8.6887,-0.22419,-0.060781,0.027184
0.40796,2.5497,-3.0793,8.9044,-0.18601,-0.087965,0.028711
0.40274,2.687,-3.0793,8.316,-0.15547,-0.086743,0.041539
0.38388,2.9028,-2.8243,8.2376,0.52382,0.12248,-0.007025
0.36026,2.7851,-2.9028,8.1787,0.97433,0.34453,-0.19334
0.34665,2.7851,-2.9028,8.316,1.3616,0.5681,-0.0054978
0.32892,2.7459,-3.0597,8.316,1.536,0.83108,0.062614
0.30334,2.7066,-2.7851,8.2376,1.0681,0.92088,0.1347
0.27002,2.7459,-2.9028,8.0807,-0.27825,0.354,0.098349
0.22348,2.7851,-3.1381,8.0022,-1.6945,-0.52779,0.13928
0.18555,2.8047,-3.2362,8.218,-2.2492,-0.95417,0.14844
0.14389,2.687,-3.3931,8.316,-0.28253,-0.89156,-0.0030543
0.11316,2.687,-3.0008,8.3945,0.33598,-0.55253,-0.135
0.093201,2.4517,-3.0793,8.2572,0.49297,-0.14447,-0.29199
0.10419,2.7066,-3.0989,8.0807,0.1463,0.14111,-0.22052
0.13239,2.7655,-3.2362,7.3354,-0.52748,0.23946,-0.037263
0.18936,2.7851,-2.3144,8.2376,-1.1701,0.11759,0.047953
0.20883,2.1771,-2.2751,9.5713,-1.9086,-0.18601,0.051618
0.2005,2.2948,-4.0207,8.9437,-1.1377,-0.52198,0.050702
0.15637,3.7069,-5.1387,7.4531,-0.90805,-0.72693,-0.28069
0.039368,3.6285,-3.6873,5.7467,-0.44685,-0.71532,-0.3262
-0.186,1.4906,0.078453,12.317,-0.11454,-0.55925,-0.2642
-0.55896,-0.98067,0.31381,12.984,-0.037874,-0.3485,-0.32467
-0.87054,2.2948,-3.8638,7.4531,-0.22174,-0.17379,-0.30849
-0.97516,3.5304,-5.1975,6.2174,-0.54336,-0.11545,-0.25901
-0.84482,2.6086,-3.8246,7.6492,-1.452,-0.18509,-0.23335
-0.55359,2.1575,-1.7456,9.2183,-1.3115,-0.35033,-0.25015
-0.25787,2.2751,-2.9028,9.434,-0.054367,0.081856,0.059254
0.034912,2.7459,-5.4329,7.9434,0.12248,0.16371,0.027489
0.34061,3.4323,-6.0409,7.4531,0.24587,0.24893,0.066279
0.63696,3.0793,-4.7856,8.0022,0.21289,0.29291,0.13073
0.86646,2.3732,-3.2362,9.1202,-0.0085521,0.22235,0.17287
0.99408,2.2359,-3.0793,9.1006,-0.2645,0.053756,0.19059
1,2.8047,-3.7265,8.0807,-0.27336,-0.062614,0.1518
1,3.1577,-4.1384,7.7865,0.039401,-0.044288,0.089492
1,3.4127,-3.8638,7.5511,-0.062614,0.33598,0.31765
1,3.1774,-4.3149,7.6884,-0.086743,0.32681,0.33292
1,3.4127,-4.5699,7.6492,-0.048869,0.31857,0.12859
1,3.8638,-5.4133,6.6685,0.023518,0.31734,0.14966
1,4.3345,-6.5116,6.1978,0.08827,0.33781,0.17349
1,4.3345,-6.9627,6.2959,0.13347,0.36469,0.20281
1,4.8837,-6.845,5.9821,0.15882,0.36408,0.24038
1,4.9818,-6.3939,5.6682,0.1631,0.34361,0.28436
1,4.8053,-5.7075,5.0406,0.15791,0.32101,0.35094
1,4.6876,-4.9426,4.9229,0.13958,0.30727,0.3711
1,4.9622,-3.9423,4.8249,0.092546,0.31276,0.3317
1,4.8053,-3.5304,4.8641,0.03543,0.31887,0.33201
1,4.7464,-3.5696,5.021,-0.009163,0.30085,0.35705
1,4.9426,-3.6873,5.0798,-0.030849,0.26786,0.38423
1,4.9622,-3.4519,5.3544,-0.027184,0.24251,0.38179
1,5.0602,-3.3146,5.4917,0.012523,0.25168,0.35858
1,5.374,-3.0401,5.276,-0.48258,0.28863,0.39218
1,5.4329,-3.0401,5.2564,0.043371,0.33567,0.39034
1,5.374,-3.295,5.4329,0.096517,0.38454,0.39706
1,5.1191,-3.6873,5.884,0.10873,0.41356,0.41844
1,5.1387,-4.4914,5.9821,0.061392,0.39645,0.44532
1,5.1387,-4.9229,6.0801,-0.059559,0.33995,0.46456
1,5.0014,-4.6091,6.3547,-0.23335,0.28314,0.45601
1,4.7464,-4.4914,6.1193,-0.38607,0.25198,0.42028
1,4.9622,-4.4522,5.9232,-0.12981,0.18357,0.053145
1,4.9426,-4.4914,5.9036,-0.079107,0.20678,0.096822
1,4.5699,-4.8053,6.1782,-0.04215,0.23396,-0.44288
1,4.8053,-5.1387,6.1978,-0.017104,0.26817,-0.35552
1,4.7464,-5.1191,5.8055,0.0030543,0.2981,-0.27336
1,4.6484,-4.4914,5.5702,0.01741,0.32162,-0.19028
1,4.3738,-4.3934,5.9821,0.029016,0.33506,-0.10201
1,4.1972,-4.9622,6.1978,0.014661,0.34025,-0.015272
1,4.3542,-5.4133,6.0409,0.15852,0.078802,0.055283
1,4.5699,-5.6486,5.6682,0.21838,0.081856,0.039706
1,4.3345,-5.2368,5.4133,0.2645,0.079718,0.10904
1,4.1188,-5.021,5.7467,0.25901,0.092546,0.088881
1,3.8638,-6.0801,7.1589,0.21075,0.1069,0.08491
1,4.0403,-7.3158,6.8058,0.13897,0.10446,0.092852
1,4.1188,-6.7666,5.6682,0.13011,0.085521,0.087048
1,3.7461,-5.6486,6.1782,0.13683,0.059559,0.068722
1,3.4127,-4.8053,6.6097,-0.012217,0.032681,-0.027184
1,3.5696,-4.8641,6.7077,0.010996,0.012828,-0.0015272
1,3.6285,-5.5506,6.5116,0.062003,0.01405,0.009163
1,3.8638,-6.139,5.9036,0.14447,0.023824,-0.024129
1,3.7265,-6.3351,5.6682,0.25901,0.037568,-0.046731
1,3.8638,-6.4528,5.5702,0.37263,0.063835,-0.063835
1,3.8638,-6.1978,5.7467,0.055894,0.097738,-0.072082
1,3.6285,-6.0801,5.9036,-0.00061087,0.13134,-0.0562
1,3.4323,-6.1782,5.7467,-0.52015,0.044899,0.12248
0.97971,3.3146,-6.2763,5.7271,-0.52534,0.047037,0.12553
0.93634,3.4912,-6.2763,5.4525,-0.5736,0.040317,0.17807
0.88733,3.3931,-6.5901,5.1191,-0.63316,0.022297,0.16585
0.83588,3.55,-6.9039,4.7856,-0.67287,-0.0058032,0.1573
0.77081,3.7069,-6.8647,4.7856,-0.69211,-0.03207,0.14783
0.69534,3.8442,-6.5508,4.7856,-0.70799,-0.054978,0.13317
0.58908,3.4716,-6.5116,4.9229,-0.71838,-0.076969,0.12248
0.47775,3.6285,-6.5116,5.0406,-0.71319,-0.10232,0.12645
0.34799,3.55,-6.3743,5.4917,-0.6747,-0.1182,0.12553
0.23267,3.3343,-6.3351,5.6682,-0.58277,-0.1179,0.12034
0.11716,3.4127,-6.4528,5.3544,-0.44776,-0.097128,0.10873
0.025696,3.4323,-6.5901,4.9229,-0.28894,-0.058643,0.10171
-0.049316,3.4127,-6.9039,4.766,-0.13347,-0.013744,0.1011
-0.092407,3.5892,-6.4528,5.021,-0.0051924,0.020464,0.10843
-0.12103,3.55,-6.0409,5.4917,0.085521,0.050702,0.11851
-0.12677,3.3146,-6.139,5.7663,0.045204,-0.0039706,-0.016493
-0.12299,3.4323,-6.5312,5.2956,0.12889,0.025351,-0.030238
-0.14139,3.3146,-6.1782,5.3544,0.1573,0.054367,0.0281
-0.19116,3.4127,-6.2763,5.3544,0.12248,0.064141,0.034819
-0.25421,3.4912,-6.1782,5.7271,0.04948,0.04948,0.043066
-0.30252,3.0008,-5.9036,5.9624,-0.036652,0.023518,0.044288
-0.35175,3.1774,-5.5113,5.9821,-0.10385,-0.0045815,0.029627
-0.40823,3.2558,-5.5113,6.1193,-0.11576,-0.025045,0.0036652
-0.48288,3.3146,-5.5898,5.7467,0.14325,0.036957,-0.041844
-0.54996,3.6873,-5.884,5.7467,0.096211,0.0076358,-0.030238
-0.57501,3.6481,-6.3743,5.6094,0.048258,-0.015272,0.014661
-0.59805,3.4127,-6.0409,5.7663,0.027489,-0.017104,-0.0067195
-0.57809,3.4127,-5.6486,5.8055,0.04612,-0.0051924,-0.018021
-0.55063,3.3735,-5.7467,5.7467,0.079718,0.014966,-0.030849
-0.505,3.3931,-6.237,5.7467,0.11759,0.035125,-0.045815
-0.43845,3.6481,-6.2763,5.7075,0.14233,0.057421,-0.051313
-0.36798,3.4127,-6.0801,5.7663,0.13256,0.07086,-0.036652
-0.28558,3.3735,-5.8252,5.8055,0.090713,0.063835,-0.017104
-0.2077,3.3146,-5.9821,5.8644,0.035736,0.04612,-0.02474
-0.14157,3.5696,-6.0213,5.8252,-0.010079,0.01741,-0.032376
-0.090515,3.3146,-5.7663,5.7467,-0.0073304,0,-0.043982
-0.043854,3.2754,-5.4525,5.9821,0.062919,0.016493,-0.052229
0.037506,3.3931,-5.2368,6.1782,0.15302,0.053451,-0.054672
0.096649,3.2558,-5.3937,5.9036,0.20678,0.077274,-0.051618
0.13681,3.3735,-5.8252,5.7467,0.15363,0.081551,0.022297
0.16562,3.3146,-6.237,5.9232,0.061392,0.067195,0.021075
0.20261,3.5892,-6.3939,5.884,-0.041539,0.037874,-0.0082467
0.20667,3.4127,-5.7271,6.1193,-0.12339,0.0088575,-0.0082467
0.22964,3.0793,-5.4525,6.0801,-0.16005,-0.013134,-0.0033598
0.23843,3.4716,-5.884,5.8055,-0.15852,-0.02138,0.009163
0.25153,3.6285,-6.237,5.5702,-0.12553,-0.026878,0.025045
0.25806,3.5304,-6.4528,5.4525,-0.052534,-0.023213,0.029627
0.26303,3.4127,-6.139,5.9036,1.8344,0.48381,-0.072388
0.27747,3.3735,-5.5113,6.1782,1.956,0.52168,-0.062308
0.30362,3.4127,-5.4525,6.1782,1.9804,0.54184,-0.064446
0.30246,3.3146,-5.7271,5.9036,1.9148,0.50427,-0.085216
0.26828,3.4912,-6.139,5.7467,1.7932,0.43707,-0.083078
0.22437,3.4127,-6.1978,6.0213,1.6603,0.38057,-0.079412
0.18622,3.3146,-5.884,6.1193,1.551,0.34575,-0.094073
0.14764,3.3735,-5.4329,6.3351,1.4468,0.33842,-0.091324
0.081421,3.0989,-5.4329,6.2959,1.2886,0.32773,-0.028711
-0.0074768,2.942,-5.7663,6.4332,1.0516,0.29413,0.042455
-0.11517,3.2558,-5.7467,6.2959,0.77519,0.21564,-0.061087
-0.25015,3.2558,-5.4133,6.8647,0.54184,0.12462,-0.057421
-0.40759,3.0989,-4.6091,7.2961,0.39676,0.062003,-0.063225
-0.60001,3.0008,-4.1384,7.8649,0.32651,0.030238,-0.067501
-0.81598,2.687,-3.7854,7.9238,0.3149,0.038179,-0.068417
-0.99026,2.9224,-3.2362,8.0807,0.3146,0.061697,-0.064752
-0.99997,2.7655,-2.8439,8.2768,-0.056505,0.078191,0.046426
-0.99997,2.7459,-2.942,8.2768,-0.26359,0.054062,0.032376
-0.99997,2.8047,-3.3539,8.3945,-0.4105,-0.013134,0.083383
-0.99997,3.0008,-3.0793,8.1787,-0.46548,-0.092546,0.065973
-0.99997,2.7655,-2.6086,8.4141,-0.43768,-0.15027,0.054367
-0.99997,2.4517,-2.432,8.5906,-0.35461,-0.1741,0.064752
-0.99997,2.8635,-3.0793,8.1787,0.27184,-0.17074,0.072388
-0.99997,3.0597,-3.6285,7.7669,0.14508,-0.14508,0.065668
-0.99997,2.9224,-4.158,7.6884,-0.00061087,-0.10537,-0.025351
-0.99997,3.0008,-4.1972,7.6884,0.061392,-0.053145,-0.02474
-0.99997,3.0793,-3.6873,7.7669,0.08094,-0.0030543,0.020159
-0.99997,2.6478,-3.5108,7.8649,0.053451,0.02474,0.016799
-0.99997,3.0008,-3.6873,7.61,-0.0042761,0.037568,0.015577
-0.99997,2.8047,-3.8246,7.7865,-0.055589,0.043677,0.0097738
-0.99997,2.9616,-4.0207,7.9434,-0.23915,0.036041,0
-0.99997,2.9028,-3.5108,8.1003,-0.10996,0.022602,-0.015272
-0.99997,3.0597,-3.3931,8.1003,-0.048258,-0.0018326,0.0097738
-0.99997,3.0008,-3.8638,8.1787,-0.047342,-0.0009163,0.0067195
-0.99997,2.9224,-3.2362,8.1591,-0.042455,-0.002138,0.0036652
-0.99997,2.7851,-3.3931,8.0022,-0.044593,-0.0067195,0.0024435
-0.99997,2.8047,-3.6285,7.7473,-0.054367,-0.0085521,0.0042761
-0.99997,2.687,-3.4519,7.9042,-0.058032,-0.0030543,0.0045815
-0.99997,2.7655,-3.3146,8.0022,-0.059559,0.007025,0.0045815
-0.99997,2.9224,-3.1381,7.9434,-0.073609,0.0088575,0.0061087
-0.99997,2.7851,-3.0989,8.1787,-0.12065,0.0054978,0.0015272
-0.99997,2.8635,-3.55,8.2768,-0.14875,-0.0012217,0.011606
-0.99997,2.687,-3.7069,8.2572,-0.15088,-0.013439,0.0058032
-0.99997,2.7851,-3.5304,8.0022,-0.12095,-0.016799,0.0082467
-0.99997,2.7851,-3.3931,8.0807,-0.069333,-0.0064141,0.0030543
-0.99997,2.9616,-3.2362,8.0807,-0.023518,0.012217,-0.0012217
-0.99997,2.6478,-3.2362,8.0611,-0.0064141,0.0281,-0.0030543
-0.99997,2.7851,-3.4127,8.0807,-0.017104,0.034819,-0.0039706
-0.99997,2.687,-3.4519,8.0807,-0.044593,0.029016,0
-0.99997,2.8047,-3.4716,7.7865,-0.079107,0.01069,-0.002138
-0.99997,2.9224,-3.5304,8.0022,-0.10537,-0.0061087,0.014661
-0.99997,3.0008,-3.3735,8.1003,-0.11026,-0.012217,0.0042761
-0.99997,2.942,-3.6677,8.0022,-0.10018,-0.0088575,-0.0064141
-0.99997,2.9224,-3.6873,7.963,-0.080023,0.002138,-0.0076358
-0.99997,2.7851,-3.6677,8.2572,-0.055283,0.013134,-0.0061087
-0.99997,2.9028,-3.5304,8.1003,-0.043677,0.017104,-0.0024435
-0.99997,2.7459,-3.4127,7.8649,-0.043066,0.017715,-0.0073304
-0.99997,2.8439,-3.4716,7.9434,-0.051924,0.020464,-0.0097738
-0.99997,2.8635,-3.5304,7.9434,-0.079412,0.021075,-0.0064141
-0.99997,2.8635,-3.6285,8.0022,-0.12431,0.013744,-0.0061087
-0.99997,2.9224,-3.4519,8.0611,-0.15241,0,-0.0061087
-0.99997,2.9224,-3.3735,8.0807,-0.14264,-0.012217,-0.0042761
-0.9964,2.7851,-3.5108,7.9238,-0.11912,-0.012523,-0.0015272
-0.95465,2.6282,-3.6873,8.0807,-0.090408,-0.0076358,-0.00030543
-0.90616,2.7459,-3.6677,8.0807,-0.064752,-0.0024435,-0.0042761
-0.84625,2.687,-3.6285,8.0022,-0.037568,0.0088575,-0.0048869
-0.7746,2.8635,-3.3931,8.0218,-0.021075,0.013134,0.0015272
-0.72568,3.0008,-3.5696,8.0022,-0.01405,0.014661,-0.0018326
-0.67776,3.0597,-3.7854,7.9238,-0.0097738,0.015882,-0.0079412
-0.64548,2.9028,-3.7658,7.9042,-0.0036652,0.017715,-0.013744
-0.60629,2.8635,-3.6285,7.9042,-0.002138,0.021686,-0.013744
-0.57822,2.7459,-3.5304,7.8649,-0.013134,0.018631,-0.0094684
-0.54953,2.7851,-3.4519,7.9434,-0.074526,0.010385,-0.0064141
-0.52023,2.8047,-3.6873,8.0022,-0.062614,-0.0024435,-0.0082467
-0.50937,3.0008,-3.9227,7.9042,-0.034514,-0.009163,-0.0094684
-0.48233,2.687,-3.5304,7.9434,-0.0073304,-0.0051924,-0.0094684
-0.45929,2.7851,-3.5304,8.0022,0.0054978,0.0058032,-0.011301
-0.43509,2.942,-3.55,8.0022,0.0036652,0.018937,-0.012217
-0.40524,2.8635,-3.6285,7.9434,-0.03543,0.024435,-0.010996
-0.3848,2.7851,-3.5696,7.963,-0.061087,0.021991,-0.0076358
-0.35977,2.9224,-3.6285,7.9434,-0.0073304,0.020464,-0.0097738
-0.34689,2.9224,-3.6873,7.8649,-0.0097738,0.025351,-0.0033598
-0.32413,2.8047,-3.7658,7.7865,-0.0036652,0.023213,-0.0097738
-0.29868,3.0597,-3.8834,8.0022,0.0058032,0.017715,-0.0073304
-0.28821,3.0597,-3.6873,7.963,0.0082467,0.018326,-0.0064141
-0.27225,2.9224,-3.6285,8.0022,0.0024435,0.021075,-0.0088575
-0.25296,2.687,-3.4127,8.0022,-0.0015272,0.025962,-0.011912
-0.25861,2.9224,-3.7265,7.8649,-0.0051924,0.025656,-0.01405
-0.24692,2.687,-3.8246,7.9238,-0.023518,0.012523,0.0015272
-0.23639,2.8635,-3.7265,7.963,-0.04215,0.0088575,0.0033598
-0.24118,2.8047,-3.6088,7.9238,-0.053756,0.0061087,-0.0048869
-0.24701,2.9224,-3.6285,7.8649,-0.059865,0.0048869,-0.0033598
-0.24829,2.9028,-3.6873,7.9042,-0.069333,0.0015272,-0.002138
-0.26083,2.8439,-3.7658,7.9434,-0.087048,-0.0039706,-0.0039706
-0.27014,2.6282,-3.5696,8.0022,-0.09896,-0.0085521,-0.0073304
-0.27216,2.9616,-3.5304,8.0218,-0.091019,-0.010385,-0.0054978
-0.27847,3.0008,-3.6285,8.0807,-0.040928,0.012523,-0.0058032
-0.26511,2.7851,-4.0207,8.0611,-0.045509,0.0039706,-0.0076358
-0.23581,3.0008,-3.6677,7.9238,-0.041844,0.0018326,-0.0079412
-0.20566,2.687,-3.55,8.0022,-0.033598,0.0042761,-0.0094684
-0.18307,2.9028,-3.6285,7.9434,-0.020769,0.0094684,-0.0088575
-0.16907,2.9028,-3.6873,7.8649,-0.009163,0.014355,-0.0082467
-0.16077,2.9616,-3.6873,7.963,-0.0009163,0.019242,-0.009163
-0.14282,2.8047,-3.7658,7.9238,0.0033598,0.021991,-0.0085521
-0.12836,3.0008,-3.8834,7.9238,0.0024435,0.024435,-0.011606
-0.1134,2.8635,-3.6285,7.9238,-0.0054978,0.027794,-0.013439
-0.093719,2.9616,-3.5696,8.0218,-0.017715,0.023518,-0.0088575
-0.099457,2.7459,-3.6088,8.0022,-0.033903,0.018326,-0.0073304
-0.084686,2.9224,-3.7265,7.8649,-0.045509,0.0097738,-0.0042761
-0.087524,2.7851,-3.6873,7.8061,-0.040928,0.0054978,-0.0051924
-0.076508,2.9616,-3.6285,8.0611,-0.029932,0.0088575,-0.0094684
-0.069733,2.7066,-3.5304,7.963,-0.015272,0.012523,-0.010079
-0.07428,2.9224,-3.6873,7.9434,-0.034514,0.011912,-0.009163
-0.059998,2.7851,-3.6873,7.8649,-0.022907,0.011912,-0.0064141
-0.059601,2.8047,-3.7658,8.0611,-0.016799,0.014966,-0.009163
-0.061493,2.6282,-3.6677,8.0611,-0.010996,0.017715,-0.011606
-0.058197,2.9616,-3.55,8.0218,-0.0079412,0.019548,-0.011606
-0.054443,2.9224,-3.6285,7.9434,-0.01069,0.018021,-0.0088575
-0.059326,2.9224,-3.6677,7.9042,-0.016799,0.016188,-0.0082467
-0.06308,3.0008,-3.8246,7.8649,-0.022907,0.016188,-0.0097738
-0.059753,2.7459,-3.6677,7.9434,-0.030543,0.014661,-0.0076358
-0.068054,2.9616,-3.6285,7.9434,-0.032987,0.017715,-0.0079412
-0.075348,2.7851,-3.5304,7.963,-0.025962,0.014966,-0.007025
-0.086182,2.8635,-3.6677,8.0022,-0.016188,0.012523,-0.0076358
-0.098907,2.9224,-3.6285,7.9042,-0.0064141,0.01741,-0.0073304
-0.094727,2.8635,-3.6873,7.8649,0.00061087,0.020769,-0.0097738
-0.11606,2.8047,-3.6677,7.9238,-0.0018326,0.020769,-0.0094684
-0.12021,2.9616,-3.8638,7.8649,-0.012523,0.01741,-0.0082467
-0.13788,2.9028,-3.7265,7.9434,-0.067195,-0.021686,0.0281
-0.11734,2.8047,-3.6873,8.0022,0.050702,-0.011301,0.025351
-0.11539,3.0204,-3.5696,7.61,0.13164,0.019548,-0.02138
-0.11945,2.7851,-3.55,7.9042,0.13836,0.064141,-0.036041
-0.12479,3.0008,-3.6285,8.0807,0.091324,0.090713,-0.03207
-0.12485,2.8047,-3.8246,8.0022,0.025656,0.088881,-0.007025
-0.1355,2.6086,-3.55,8.0022,-0.20067,0.064446,0.010996
-0.14758,2.9224,-3.7069,7.8649,-0.15974,0.032376,0.021991
-0.16342,2.8439,-3.6285,7.9042,-0.0009163,0.0076358,0.021075
-0.16769,2.8635,-3.8442,7.9434,0.012217,0.010385,0.062614
-0.17395,3.0597,-3.8246,8.0022,0.02138,0.0085521,0.01405
-0.18301,2.9616,-3.6285,7.9434,0.0036652,-0.0012217,0.027794
-0.18323,2.9224,-3.5108,7.963,-0.019242,-0.01069,0.033292
-0.18552,2.687,-3.6677,7.9434,-0.042455,-0.024129,0.033598
-0.20511,2.9028,-3.6873,7.8649,-0.07086,-0.037874,0.036652
-0.2215,2.9224,-3.0008,8.0807,-0.059254,-0.024435,0.026267
-0.24982,2.9224,-3.7658,7.963,0.041233,0.043371,0.032987
-0.26544,3.2558,-4.8249,7.3942,-0.002138,0.039401,0.050702
-0.29855,2.942,-4.3345,7.3158,-0.20678,-0.057116,0.13073
-0.31442,2.4713,-3.5108,7.7865,-0.3262,-0.11484,0.080634
-0.34979,2.8439,-3.3735,8.1787,-0.29322,-0.10201,-0.0048869
-0.38916,3.0597,-3.7658,7.8649,-0.13836,-0.026573,-0.040012
-0.41913,2.942,-3.2558,7.4923,0.051618,0.075442,-0.041233
-0.45306,3.0793,-3.5304,8.1003,0.14264,0.12248,-0.009163
-0.48831,2.7655,-4.0207,7.7865,-0.035736,0.10263,-0.027794
-0.5177,2.7851,-4.0207,7.61,-0.060781,0.052534,-0.039706
-0.53653,2.7851,-3.6873,8.0611,-0.033292,0.007025,0.03146
-0.56662,2.7066,-3.5304,8.0022,0.025045,-0.0064141,0.0009163
-0.57748,2.7459,-3.6285,8.0807,-0.0061087,0.018631,-0.021991
-0.59521,2.9028,-3.8246,7.963,-0.15119,0.069028,-0.036652
-0.60455,2.8635,-3.8638,7.7473,0.11423,0.071471,-0.032376
-0.59552,2.942,-3.7854,7.8649,0.037263,0.0009163,-0.0088575
-0.57413,2.9616,-3.7069,7.9042,-0.015577,0.016493,-0.019242
-0.56131,2.6086,-4.0011,8.218,0.00030543,0.017715,-0.010996
-0.52356,2.7851,-3.6873,7.963,0.0079412,0.019853,-0.024129
-0.49042,2.7851,-3.7854,7.8649,0.0085521,0.024129,-0.033292
-0.47552,2.9028,-3.8638,7.7865,-0.00030543,0.023518,-0.032376
-0.47522,2.7851,-3.8834,7.9042,-0.013744,0.018937,-0.018937
-0.43607,2.8047,-3.8834,7.6884,-0.030238,0.015272,-0.014661
-0.42062,2.9616,-3.7658,7.9238,-0.045815,0.011301,-0.019242
-0.41443,2.9224,-3.7658,8.0022,0.017715,-0.015272,0
-0.40112,2.9028,-3.7265,8.0022,0.018937,-0.0048869,0.0048869
-0.38251,2.7655,-3.8638,7.7865,0.0009163,0.0033598,-0.046731
-0.37744,2.7851,-4.0207,8.0611,-0.033292,0.0051924,-0.033292
-0.36371,2.942,-3.8638,7.9434,-0.061697,0.0048869,-0.021991
-0.35141,2.8047,-3.7658,7.708,-0.065363,0.009163,-0.011606
-0.32504,3.0008,-3.5696,7.5511,-0.052534,0.018937,-0.007025
-0.28873,2.8635,-3.5108,7.7473,-0.030238,0.033292,-0.0051924
-0.28125,2.7851,-3.6873,7.61,-0.011912,0.050396,-0.016799
-0.24957,2.8047,-3.6285,7.7473,-0.03146,0.060476,-0.012523
-0.21429,2.9224,-3.6088,7.6884,-0.071166,0.048258,0.017104
-0.19427,2.6086,-3.5696,8.0807,-0.10751,0.017104,0.033292
-0.16095,2.9028,-4.0011,8.2768,-0.11179,-0.011912,0.03207
-0.13937,2.8047,-4.0207,7.9434,-0.076053,-0.024129,0.016493
-0.12241,3.0793,-4.0207,7.61,-0.023518,-0.015882,0.00061087
-0.099976,2.7655,-3.7658,7.6296,0.022297,0.0061087,-0.011606
-0.079956,2.8047,-3.7658,8.0022,0.046426,0.027489,-0.019548
-0.065765,2.9224,-3.7658,7.8061,0.04215,0.041233,-0.023213
-0.048187,3.0597,-3.9423,7.7865,0.0039706,0.040012,-0.0012217
-0.046326,2.9616,-3.9815,7.9434,-0.048564,0.023213,0.0042761
-0.031769,2.9028,-3.7658,7.8649,-0.081551,0.0030543,0.0024435
-0.019836,2.687,-3.7461,7.9434,-0.081245,-0.0042761,-0.0051924
-0.0012512,2.9224,-3.6285,7.7865,-0.062308,0.0009163,-0.014355
0.015533,2.942,-3.6873,7.963,-0.037568,0.01069,-0.017104
0.023621,2.9224,-3.8638,7.7669,-0.030238,-0.015577,-0.058032
0.048035,2.9224,-3.8442,7.7865,-0.033903,-0.025962,-0.054672
0.068939,3.0793,-3.7265,7.7865,-0.03879,-0.030849,-0.01405
0.090942,2.6478,-3.7658,7.9434,-0.042761,-0.034819,-0.015272
0.10336,2.8439,-3.8638,7.7865,-0.047037,-0.039095,-0.018631
0.10449,2.8635,-3.8638,7.7473,-0.051007,-0.044899,-0.02474
0.10294,2.8047,-3.8638,7.7865,-0.049175,-0.040623,-0.030849
0.11279,2.942,-3.8834,7.7669,-0.037874,-0.023518,-0.045204
0.10797,2.9224,-3.8834,7.7865,-0.024435,-0.0073304,0.0058032
0.11234,2.8439,-3.8442,7.7865,-0.016493,0.0067195,0.010385
0.11346,2.942,-3.7069,7.9434,-0.021075,0.015577,-0.043677
0.11832,2.8047,-3.8638,7.9434,-0.041844,0.01741,-0.036346
0.11685,2.8635,-3.8834,7.9434,-0.064752,0.017104,-0.023824
0.11047,2.8635,-3.8638,7.9434,-0.067806,0.023213,-0.012828
0.10959,2.9224,-3.9423,7.9238,-0.046426,0.037263,-0.0058032
0.10104,2.9224,-4.0207,7.9434,-0.023518,0.053451,0.002138
0.092194,3.0793,-3.8246,7.6296,-0.062308,0.054062,0.011301
0.076263,2.7459,-3.5696,7.5903,-0.047647,0.036041,0.011301
0.085846,2.7851,-3.6677,7.6884,-0.0064141,0.011606,0.01405
0.090698,2.7655,-3.6873,7.6884,0.039401,0.0012217,0.0064141
0.095428,3.0204,-3.6873,7.5903,0.066584,0.01069,-0.0051924
0.098602,3.0204,-3.7854,7.9434,0.064141,0.029016,-0.0088575
0.11716,2.7459,-3.9227,8.218,-0.023518,0.042761,-0.0030543
0.12677,3.0597,-4.158,7.9238,-0.046426,0.042761,0.0048869
0.14166,3.0793,-3.8442,7.6296,-0.033292,0.028711,0.013439
0.15448,2.8635,-3.7265,7.7473,-0.031154,0.0088575,0.013439
0.17432,2.6086,-3.7265,8.0022,-0.019548,0.0015272,0.0051924
0.19501,3.0793,-3.8442,7.9042,-0.016493,0.0042761,-0.0018326
0.21323,2.8047,-3.7658,7.9238,-0.024129,0.0097738,-0.0012217
0.23227,3.0008,-3.6873,7.9434,-0.047953,0.012828,0.0039706
0.2226,2.8635,-3.8638,7.9238,0.029932,0.011301,0.01069
0.23395,3.0793,-3.8834,7.8061,-0.010079,0.0033598,0.013134
0.25763,2.8635,-4.0403,7.7865,-0.041844,-0.0009163,-0.01069
0.28204,2.7655,-4.2953,7.9434,-0.023213,0,-0.0094684
0.30862,2.8635,-3.8638,7.6884,-0.0024435,0.0085521,-0.0061087
0.31726,2.9224,-3.6677,7.9238,0.014966,0.018021,-0.0058032
0.31693,2.8047,-3.7265,7.8649,0.02474,0.022907,-0.007025
0.32642,3.0793,-3.9423,7.6884,0.01741,0.021686,-0.0048869
0.31808,3.0008,-3.9423,7.61,-0.0067195,0.011606,-0.0061087
0.31747,2.8439,-3.903,7.61,-0.032987,0.0024435,-0.0088575
0.30682,3.0008,-3.8638,7.8453,-0.054367,-0.0033598,-0.010996
0.29672,3.0793,-3.8246,7.8649,-0.050702,-0.0076358,-0.0082467
0.29956,2.687,-3.8246,7.9434,-0.030238,-0.013134,-0.0079412
0.29965,2.8047,-3.8442,7.7865,-0.0088575,-0.0097738,-0.010996
0.28928,2.9224,-3.8638,7.7865,-0.00061087,-0.0012217,-0.016188
0.28699,2.7851,-3.8638,7.6884,-0.0012217,0.0015272,-0.014355
0.28375,3.0597,-3.7658,7.9434,-0.0079412,-0.0015272,-0.012523
0.27808,3.1185,-3.8834,7.8649,-0.027184,-0.0076358,-0.01405
0.2717,3.0008,-4.0207,7.7473,-0.058338,-0.022602,-0.02474
0.26868,3.0008,-4.0207,7.6884,-0.083078,-0.043982,-0.02138
0.26221,2.9224,-3.8638,7.7669,-0.08491,-0.059559,-0.012523
0.25836,3.0793,-4.0011,7.8649,-0.069028,-0.062003,-0.020464
0.24799,2.9224,-3.8246,7.7865,-0.043677,-0.051924,-0.020769
0.22418,2.9028,-4.0011,7.7669,-0.0088575,-0.034819,-0.02138
0.21048,3.0597,-3.8638,7.7865,0.022602,-0.014661,-0.021686
0.20026,2.8635,-3.8638,7.9434,0.043982,0.007025,-0.022907
0.17926,3.0008,-3.8246,8.0022,-0.009163,0.014661,-0.009163
0.16077,2.9028,-3.8638,7.9434,0.0082467,0.022907,-0.010996
0.13593,2.9224,-3.8638,7.6492,0.019242,0.029016,-0.010079
0.1156,3.0989,-3.8834,7.4334,0.019853,0.03207,-0.0067195
0.10666,3.0793,-3.7658,7.4334,0.0097738,0.031154,-0.0012217
0.092102,2.942,-3.7854,7.4727,-0.010385,0.025656,0.0030543
0.08548,3.0204,-3.9423,7.6884,-0.03207,0.013744,0.0033598
0.076813,3.0008,-3.7854,7.6296,-0.04612,0.0045815,-0.0015272
0.074341,2.9224,-3.8834,7.7865,-0.017104,0.030238,-0.011912
0.087006,3.1774,-4.0011,7.6884,-0.029627,0.028711,-0.01069
0.11337,2.9028,-3.9423,7.8061,-0.040012,0.023213,-0.010385
0.13495,3.0008,-3.7265,8.0022,-0.036346,0.014966,-0.0076358
0.14362,2.8635,-3.8442,7.9434,-0.018937,0.0058032,-0.0045815
0.14005,3.0008,-3.8638,7.9042,0.0042761,0.0015272,-0.0061087
0.14481,3.0793,-3.8246,7.8649,0.0051924,0.0073304,-0.012217
0.14435,2.7851,-3.6285,7.9042,-0.0048869,0.018937,-0.014661
0.15726,3.0008,-3.7658,7.8061,0.015577,0.029016,-0.027489
0.16165,3.0793,-3.8246,7.8061,0.0079412,0.033292,-0.025656
0.1702,3.0793,-3.8834,7.7669,-0.029322,0.040623,-0.010996
0.18317,3.0597,-3.7658,7.8649,-0.076664,0.048258,-0.0079412
0.1842,2.7459,-3.7069,7.9238,-0.084605,0.037263,-0.0048869
0.19894,2.9616,-3.8246,7.8649,-0.041844,0.015577,-0.0015272
0.21237,2.9224,-3.8638,7.7669,0.01741,0.007025,-0.0088575
0.21851,2.8635,-3.8834,7.9042,0.016799,0.018021,-0.023213
0.22162,2.9028,-3.7658,7.7669,-0.066584,0.041539,-0.0076358
0.23279,3.0204,-3.8246,7.8649,0.036346,0.062308,-0.0030543
0.22803,2.7851,-3.8246,7.9434,0.081551,0.069333,-0.016799
0.22879,2.9616,-3.8638,7.8061,0.083689,0.057727,-0.0088575
0.23441,2.7655,-3.7069,7.9042,0.051924,0.03879,-0.012217
0.22849,2.7851,-3.8638,7.9042,0.0027489,0.020769,-0.013439
0.22531,2.9224,-3.9423,7.8649,-0.040012,0.0073304,-0.011606
0.21487,3.0597,-3.7854,7.9238,-0.063225,0.0027489,-0.01069
0.21066,3.0793,-3.6677,7.6296,-0.034208,0.024435,-0.012828
0.21194,2.8047,-3.6285,7.7865,-0.019548,0.026267,-0.011606
0.17841,2.9224,-4.0011,7.9238,-0.007025,0.029627,-0.013134
0.17368,3.0008,-4.0207,7.6492,0.0027489,0.030238,-0.010996
0.15787,3.0008,-3.7658,7.7865,0.0073304,0.026878,-0.010385
0.13611,2.7655,-3.5696,7.9042,0.0085521,0.026878,-0.0097738
0.12363,2.7459,-3.6677,7.9238,0.0094684,0.028711,-0.013134
0.11142,2.9616,-3.6873,7.9434,0.0094684,0.030238,-0.014966
0.095612,3.0204,-3.8638,7.9042,-0.036957,-0.0036652,-0.00061087
0.096832,2.9028,-4.1384,7.9042,-0.045204,-0.0030543,-0.0030543
0.092712,3.0597,-3.7658,7.9238,-0.044593,-0.0076358,0.0027489
0.0867,2.942,-3.7265,7.9238,-0.030238,-0.0076358,-0.0030543
0.07016,2.8439,-3.8638,7.9434,-0.010079,0.00061087,-0.0073304
0.065857,2.9616,-3.6873,7.7865,0.0082467,0.012828,-0.0073304
0.064056,2.7851,-3.7265,7.8649,0.012828,0.023518,-0.0045815
0.053589,2.8047,-3.8638,7.8061,0.0024435,0.025962,-0.0015272
0.06012,3.0793,-3.9815,7.708,-0.013744,0.021686,-0.0033598
0.058411,2.7655,-3.7265,7.8649,-0.025351,0.012828,-0.0039706
0.054108,2.942,-3.7658,7.9042,-0.027184,0.0097738,-0.0061087
0.04538,2.9224,-3.8442,7.9042,-0.023824,0.0094684,-0.0058032
0.06958,3.0008,-3.7069,7.8649,-0.013439,0.010079,-0.0064141
0.062073,2.7851,-3.7069,7.8061,-0.0033598,0.013134,-0.0079412
0.060333,3.0989,-3.7265,7.4334,-0.0045815,0.015272,-0.0061087
0.051483,2.9028,-3.9815,8.0022,-0.013134,0.015272,-0.0030543
0.048767,3.2558,-4.0992,7.8453,-0.012828,0.015882,-0.014966
0.052124,2.8635,-3.7265,7.8649,-0.0097738,0.017715,-0.014661
0.05484,2.687,-3.5696,7.9434,0.0079412,0.033598,-0.0033598
0.055695,2.7459,-3.7069,8.0022,0.007025,0.038179,-0.0045815
0.060699,2.7851,-3.8442,8.0022,-0.029627,0.021686,0.0018326
0.05069,2.9224,-3.7069,7.8649,-0.037263,0.014661,-0.0036652
0.067291,2.9028,-3.7069,7.7473,-0.012217,0.025656,-0.020159
0.067596,3.0008,-3.7658,7.7865,0.018937,0.041539,-0.018631
0.087433,2.9028,-3.8638,7.8061,0.034514,0.046731,-0.0036652
0.084381,3.0008,-3.8834,7.7669,0.03146,0.043066,0.0009163
0.082703,2.9224,-3.7265,7.9042,0.0042761,0.031765,-0.012828
0.079803,2.8635,-3.7069,7.7865,-0.023824,0.016493,-0.010996
0.075378,2.7655,-3.7658,7.9434,-0.030543,0.0079412,-0.013134
0.081238,2.9224,-3.8442,7.8453,-0.03207,0.002138,-0.013134
0.06604,3.0597,-3.6873,7.8649,-0.030849,-0.0033598,-0.0067195
0.069366,2.7655,-3.7265,7.9434,-0.031765,-0.0042761,-0.0024435
0.07196,2.9028,-3.8834,7.9238,-0.029016,-0.0097738,-0.011912
0.084564,2.9028,-3.8442,7.9434,-0.027794,-0.0030543,-0.010996
0.096497,3.0008,-3.7069,7.9434,-0.034208,0.0009163,-0.0045815
0.099518,2.9616,-3.7658,7.8649,-0.039095,0.0009163,-0.0015272
0.10056,2.7459,-3.6873,7.8649,-0.034208,0.0012217,-0.0030543
0.10104,2.9224,-3.6873,7.8649,-0.021075,-0.0012217,-0.0054978
0.095306,2.9224,-3.8442,7.7865,-0.047647,-0.0018326,-0.0058032
0.087463,2.7851,-3.8442,7.6884,-0.038485,0.0033598,-0.0082467
0.086639,2.9224,-3.8442,7.8061,-0.045204,-0.00061087,0.0036652
0.087097,2.8635,-3.8246,7.8649,-0.044288,0.0009163,-0.0012217
0.063904,2.9616,-3.6873,7.963,-0.032681,0.0015272,-0.0088575
0.063049,3.0008,-3.7069,7.9434,-0.017104,0.0058032,-0.009163
0.061218,3.0008,-3.7658,7.8649,-0.00061087,0.015882,-0.0085521
0.071289,3.0793,-3.7658,7.8649,0.009163,0.029322,-0.0082467
0.068024,3.0793,-3.7265,7.7473,0.022907,0.049786,-0.002138
0.085541,2.8635,-3.5304,7.3158,0.007025,0.051618,0.0009163
0.071381,2.9224,-3.8638,8.0611,-0.062308,0.02138,-0.018021
0.087646,3.0793,-4.0207,7.9042,-0.10934,-0.0030543,-0.019242
0.10223,2.9224,-3.9423,7.6492,-0.10079,0.0030543,-0.020464
0.11661,2.8635,-3.8638,7.7865,-0.048564,0.022297,-0.027184
0.12119,2.7851,-3.6285,7.963,0.014355,0.042455,-0.020464
0.13437,2.9616,-3.8442,7.963,0.050702,0.053756,-0.016493
0.13977,2.9224,-3.7854,7.8649,0.048869,0.051313,-0.011606
0.15076,2.9616,-3.7265,7.7865,0.025045,0.036652,-0.012523
0.14648,2.9224,-3.7658,7.8649,-0.051924,0.019242,-0.0067195
0.1485,2.9224,-3.8834,7.9042,-0.04948,0.0045815,-0.0082467
0.15216,3.0008,-3.7658,7.7865,-0.036041,-0.0024435,-0.018937
0.15894,3.0008,-3.7658,7.8453,-0.029627,-0.0042761,-0.012828
0.15274,2.7655,-3.7265,7.8061,-0.03879,0,-0.007025
0.15964,3.0597,-3.8834,7.6884,-0.048869,0.0027489,-0.0058032
0.16843,2.8635,-3.8246,7.6884,-0.010079,-0.0033598,-0.0027489
0.16907,2.9224,-3.8638,7.7473,-0.03879,-0.010996,-0.0018326
0.17169,3.0793,-3.7658,7.9434,-0.03543,0,-0.015577
0.18787,2.6086,-4.0796,8.0218,-0.034819,0.0018326,-0.018937
0.2002,3.0204,-3.6677,7.7669,-0.033903,-0.0015272,-0.0009163
0.20944,3.0204,-3.6088,7.5511,-0.026573,0.002138,-0.010079
0.21036,2.7851,-3.8834,8.1003,-0.019242,0.0088575,-0.016493
0.21674,3.2558,-4.1384,7.8061,-0.025045,0.0054978,-0.012828
0.21246,2.7655,-3.8442,7.6884,-0.043982,-0.010385,-0.0073304
0.21591,2.7851,-3.5304,7.963,-0.064446,-0.025962,-0.010079
0.20035,2.8635,-3.6677,8.0022,-0.066279,-0.032681,-0.011301
0.18924,3.0204,-3.7658,7.9238,-0.049175,-0.025962,-0.0088575
0.1947,3.1185,-3.8834,7.7865,-0.032987,-0.01405,-0.020769
0.18506,3.0008,-3.8442,7.7865,-0.036041,-0.014661,-0.013134
0.19363,3.0793,-3.9619,7.7473,-0.049786,-0.021686,-0.0027489
0.19492,2.9224,-3.8638,7.9042,-0.058948,-0.024129,-0.0045815
0.19345,2.8635,-3.8442,8.0807,-0.050396,-0.019853,-0.010996
0.18008,2.942,-3.7265,7.7669,-0.028711,-0.0054978,-0.012217
0.17004,2.7851,-3.7854,7.6884,-0.00061087,0.010996,-0.010385
0.16895,2.7459,-3.8638,7.6296,-0.0024435,0.023518,-0.0012217
0.15424,3.0793,-3.9423,7.6884,-0.012828,0.028405,-0.0039706
0.15405,3.1774,-3.8638,7.6296,-0.023518,0.030238,-0.0042761
0.16867,3.0989,-3.9815,7.6296,-0.03207,0.029322,-0.0079412
0.17596,3.0008,-3.6873,7.6884,-0.029932,0.025656,-0.0051924
0.17969,2.7851,-3.8638,7.9042,-0.014661,0.025962,-0.0064141
0.19592,2.942,-3.9423,7.7865,0.0036652,0.035125,-0.011912
0.22293,2.8635,-3.6873,7.6884,0.014355,0.046426,-0.0094684
0.24783,2.942,-3.7265,7.9042,0.0076358,0.051924,-0.0076358
0.26068,2.9224,-4.0207,8.0022,-0.015272,0.043982,0.0039706
0.2793,2.8635,-3.8442,7.8061,-0.03543,0.030238,0.0027489
0.28787,2.8635,-3.7658,7.8649,-0.040928,0.018631,-0.002138
0.30701,2.942,-3.6873,7.9238,-0.027184,0.014661,-0.0054978
0.31061,3.0597,-3.8442,7.8453,-0.0051924,0.018326,-0.011606
0.31866,3.0793,-3.8442,7.7669,0.0061087,0.022602,-0.011301
0.32358,3.0793,-3.8442,7.6884,-0.00061087,0.020159,-0.0082467
0.34137,2.942,-3.8442,7.7865,0.010385,0.025045,-0.0085521
0.36191,2.9028,-3.9227,7.7669,0.0094684,0.024129,-0.010079
0.37479,3.0008,-3.7658,7.8061,-0.0076358,0.015577,-0.0058032
0.3855,2.9224,-3.7658,7.7865,-0.026573,0.0064141,-0.0024435
0.38327,2.9224,-3.8638,7.7865,-0.039095,0.0018326,-0.0054978
0.37891,2.9224,-3.8246,7.7865,-0.040317,0.0036652,-0.0067195
0.39139,3.0793,-3.8638,7.7865,-0.027184,0.0088575,-0.0064141
0.38232,2.942,-3.8246,7.7865,-0.0030543,0.015577,-0.0054978
0.39932,2.9616,-3.7854,7.9042,-0.0036652,0.018021,-0.0088575
0.38776,3.0793,-3.8442,7.8061,-0.010079,0.018937,-0.0085521
0.37039,2.9616,-3.8442,7.7865,-0.022297,0.020159,-0.011606
0.36353,2.8635,-3.8638,7.8649,-0.029016,0.018631,-0.01069
0.35815,2.7851,-3.8834,7.8453,-0.032987,0.015577,-0.0076358
0.3494,3.0597,-3.8834,7.7865,-0.010079,0.013134,-0.0061087
0.32825,3.0008,-3.7658,7.9042,-0.0027489,0.010996,-0.0048869
0.31744,3.0597,-3.9423,7.8061,-0.035125,0.0061087,-0.0061087
0.30478,2.9224,-3.8246,7.6884,-0.030849,0.002138,-0.0073304
0.27817,2.9616,-3.8834,7.7669,-0.026878,-0.0009163,-0.011301
0.26791,3.0989,-3.8442,7.9238,-0.023213,-0.0033598,-0.010996
0.26309,2.8047,-3.8246,7.9434,-0.022907,-0.0048869,-0.0067195
0.24356,2.8047,-3.8246,7.6492,-0.03146,-0.0036652,-0.0067195
0.23569,3.0008,-3.8442,7.8649,-0.034208,-0.0009163,-0.007025
0.22119,2.7851,-3.8638,8.0022,-0.033903,-0.002138,-0.0045815
0.2056,3.0793,-3.9423,7.9042,-0.058643,-0.0082467,-0.007025
0.17145,2.7655,-3.7658,7.8649,-0.048564,-0.014661,-0.0045815
0.15146,3.0597,-3.9815,7.7473,-0.030849,-0.012217,-0.009163
0.13287,3.0793,-4.0207,7.7865,-0.014966,-0.0027489,-0.010079
0.10837,2.9616,-3.8442,7.6884,-0.0048869,0.007025,-0.0058032
0.097046,2.9616,-3.8638,7.5903,0,0.01741,-0.0042761
0.0849,3.0989,-3.7265,7.5903,-0.04612,0.0281,-0.0061087
0.09433,2.9224,-3.7265,7.61,-0.058032,0.037874,-0.007025
0.10056,3.0793,-4.0403,7.8061,-0.015882,0.019548,-0.009163
0.13,2.8439,-4.3149,8.1003,-0.01069,0.024129,-0.0067195
0.17038,2.9028,-3.8442,7.8649,-0.0064141,0.025351,-0.0085521
0.18561,2.9616,-3.7265,7.8649,-0.0067195,0.023213,-0.0054978
0.19962,3.0008,-3.8442,7.7865,-0.010385,0.020159,-0.0054978
0.20697,3.1185,-3.8638,7.8061,-0.015272,0.015882,-0.007025
0.20663,2.8635,-3.7658,7.708,-0.01741,0.013134,-0.0076358
0.2222,3.0008,-3.7658,7.9042,-0.014966,0.013744,-0.0085521
0.21347,3.0793,-3.7658,7.7865,-0.014966,0.015882,0.00030543
0.21262,2.8047,-3.8834,7.8061,-0.019853,0.015272,0.0012217
0.20822,2.8635,-3.9815,7.8061,-0.020769,0.014661,-0.0045815
0.21213,2.9028,-3.8442,7.8061,-0.014661,0.014355,-0.0033598
0.20596,2.8635,-3.7658,7.9042,-0.0051924,0.018631,-0.0067195
0.21243,3.0793,-3.8638,7.7669,0.0009163,0.023213,-0.0097738
0.18896,2.9224,-3.7658,7.7865,-0.0009163,0.024435,-0.0067195
0.19897,3.0989,-3.8834,7.8649,-0.0073304,0.02474,-0.002138
0.18536,2.9028,-3.8638,7.7473,-0.019548,0.020464,-0.009163
0.18237,2.8635,-3.9423,7.6884,-0.027184,0.015577,-0.012523
0.18314,3.0597,-3.7265,7.7865,-0.023518,0.013439,0.00061087
0.17035,3.0008,-3.8442,7.8649,-0.018021,0.016493,-0.0030543
0.15033,2.9028,-3.9423,7.8649,-0.025045,0.020464,-0.0015272
0.14844,3.0597,-3.6873,7.6884,-0.036041,0.019853,0.002138
0.13776,3.0793,-3.7658,7.8061,-0.038179,0.019853,-0.00061087
0.12393,2.7851,-3.7658,7.9042,-0.029016,0.017715,-0.0067195
0.11133,3.0597,-4.0403,7.7865,-0.021075,0.014355,-0.0082467
0.090179,3.0597,-4.0207,7.7865,-0.018326,0.016493,-0.0088575
0.085022,2.9224,-3.7069,7.8649,-0.014661,0.019548,-0.012217
0.070038,2.9224,-3.7658,7.6884,-0.020159,0.017104,-0.0064141
0.051453,2.8635,-3.8638,7.61,-0.030238,0.012523,-0.0027489
0.039551,3.0793,-3.8638,7.6884,-0.035736,0.0094684,-0.0058032
0.029175,3.1774,-3.9815,7.8649,-0.033598,0.012828,-0.009163
0.018707,2.9616,-3.8638,7.8649,-0.023213,0.017104,-0.010385
0.013,2.8635,-3.8246,7.7473,-0.019242,0.017715,-0.009163
0.02356,2.942,-3.7658,7.9434,-0.0281,0.018021,-0.009163
0.034729,2.8635,-3.7658,7.7865,-0.039706,0.018021,-0.0064141
0.015594,2.9224,-3.9423,7.61,-0.045204,0.015272,-0.0048869
0.012115,2.7459,-3.8442,7.8649,-0.03879,0.0073304,-0.0036652
-0.0072937,3.0204,-3.8638,7.9238,-0.023518,0.0024435,-0.0045815
-0.013153,2.7851,-3.8638,7.9238,-0.019548,0.0051924,-0.007025
-0.035645,2.9616,-3.8246,7.7865,-0.016799,0.010079,-0.0088575
-0.036835,3.0008,-3.8638,7.8061,0.021991,0.016493,-0.0039706
-0.030579,3.0008,-3.7854,7.8649,0.01741,0.023824,-0.0045815
-0.020905,2.8047,-3.7658,7.9238,0.0045815,0.025656,-0.0094684
-0.014252,3.0597,-3.9423,7.9042,-0.014661,0.023518,-0.0088575
-0.013977,2.8635,-3.8834,7.8649,-0.031765,0.018631,-0.007025
-0.0042725,2.8047,-3.8638,7.8061,-0.043982,0.011606,-0.0054978
-0.0063782,3.0597,-3.8638,7.7865,-0.0054978,0.0061087,-0.0036652
0.014923,2.7851,-3.7265,7.8649,0.014661,0.00061087,-0.0027489
0.026672,3.0008,-3.8834,7.7669,-0.015882,0.0097738,-0.002138
0.017303,2.7851,-3.8442,7.6884,-0.026267,-0.00061087,-0.0067195
0.026489,2.9224,-3.8638,7.7865,-0.034514,-0.0051924,-0.0045815
0.022369,3.1577,-4.0403,7.7865,-0.036957,-0.007025,-0.0076358
0.010284,2.8635,-3.8638,7.7865,-0.033903,-0.0039706,-0.0073304
0.022827,2.942,-3.8442,7.8453,-0.029322,0.0012217,-0.0061087
0.011719,2.9028,-3.7658,7.8453,-0.026267,0.0042761,-0.0027489
0.014313,3.0597,-3.8442,7.8649,-0.02474,0.002138,0.0009163
0.017395,3.0008,-3.8638,7.7865,-0.018631,0.0027489,-0.01069
0.0055847,2.8439,-3.9815,7.8453,-0.012828,0.007025,-0.010079
-0.0068054,3.0008,-3.7854,7.8453,-0.015882,0.0085521,-0.010385
-0.01593,2.7851,-3.6873,7.9238,-0.018326,0.009163,-0.0088575
-0.030823,2.8047,-3.7854,7.6884,-0.019242,0.0094684,-0.0058032
-0.039886,2.8635,-3.9815,7.8649,-0.020464,0.012523,-0.0064141
-0.049622,2.7655,-3.9423,7.8061,-0.020769,0.015272,-0.009163
-0.05661,3.0597,-3.7658,7.7865,-0.02138,0.015882,-0.009163
-0.063385,3.0008,-3.7854,7.8649,-0.0079412,0.018021,-0.0094684
-0.059814,2.7851,-4.1384,7.8649,-0.01069,0.014661,-0.0094684
-0.050171,3.0204,-3.8246,7.8061,-0.014355,0.014661,-0.0085521
-0.05835,2.9224,-3.9423,7.8649,-0.019548,0.015272,-0.0094684
-0.069641,2.8047,-3.8246,7.7865,-0.025045,0.011912,-0.0088575
-0.065979,3.0008,-3.8638,7.7865,-0.025656,0.0076358,-0.007025
-0.083466,2.8635,-3.8638,7.6492,-0.019242,0.0079412,-0.0079412
-0.091827,2.8439,-3.8638,7.9042,-0.0088575,0.010996,-0.0073304
-0.096527,2.8439,-3.9227,7.8649,-0.017104,0.015882,-0.011606
-0.10233,3.0008,-3.7658,7.7865,-0.0045815,0.024129,-0.015272
-0.10696,3.0008,-3.8638,7.8649,-0.0036652,0.021075,-0.0076358
-0.11478,2.7655,-3.7658,7.8649,-0.012217,0.013439,-0.0048869
-0.13315,2.9616,-3.8246,7.8061,-0.025962,0.0079412,-0.0042761
-0.13763,2.942,-3.7658,7.7865,-0.038179,0.0024435,-0.0039706
-0.15201,2.687,-3.8638,7.8061,-0.041233,0.002138,-0.0058032
-0.15311,3.0793,-4.0796,7.7865,-0.031765,0.0076358,-0.0082467
-0.15756,3.0597,-3.8246,7.8649,-0.016188,0.014966,-0.0097738
-0.16901,2.7851,-3.8246,7.8649,-0.0045815,0.019853,-0.0045815
-0.1647,3.0008,-3.8638,7.7473,-0.0058032,0.018631,-0.0036652
-0.15714,3.0793,-3.9423,7.7865,-0.015272,0.016493,-0.0042761
-0.1629,2.9028,-3.9227,7.8649,-0.020769,0.015272,-0.0088575
-0.15286,2.9224,-3.9423,7.7865,-0.023518,0.012523,-0.0094684
-0.14905,3.0793,-3.7854,7.7865,-0.025351,0.01069,-0.007025
-0.1405,3.0793,-3.8638,7.8649,-0.025351,0.012523,-0.010385
-0.14069,2.942,-3.7658,7.8453,-0.029016,0.013439,-0.010079
-0.14392,3.0008,-3.8442,7.8061,-0.026267,0.012217,-0.009163
-0.15604,2.9224,-3.8834,7.6492,-0.019548,0.010079,-0.0039706
-0.15939,2.9224,-3.8638,7.708,-0.014661,0.011301,-0.0045815
-0.17307,3.0597,-3.8638,7.8649,-0.011301,0.014355,-0.0042761
-0.17825,3.0597,-3.6873,7.8649,-0.011301,0.014661,-0.0030543
-0.18671,2.8047,-3.7658,7.8649,-0.010385,0.014661,-0.0039706
-0.19916,3.0793,-3.9423,7.7865,-0.0085521,0.016188,-0.0082467
-0.1926,2.9028,-4.0207,7.8649,-0.019548,0.013744,-0.0027489
-0.19244,3.0008,-3.7658,7.8649,-0.0042761,0.011301,-0.0045815
-0.17279,3.0204,-3.7658,7.8061,0.0039706,0.017104,-0.0061087
-0.17532,2.7851,-3.7658,7.8649,-0.0039706,0.025656,-0.0030543
-0.17715,3.0597,-3.9815,7.7865,-0.019242,0.029016,-0.002138
-0.17487,3.0597,-4.0011,7.7473,-0.030543,0.025962,0.002138
-0.1835,2.9028,-3.8638,7.6492,-0.043677,0.018021,0.0048869
-0.18353,3.0008,-3.7265,7.7865,-0.033292,0.013439,0.0024435
-0.18137,2.9224,-3.8638,7.7669,-0.045509,0.0033598,-0.0082467
-0.18036,2.9224,-3.9423,7.7865,-0.059254,-0.011606,-0.0064141
-0.18262,2.8047,-3.8638,7.8453,-0.060476,-0.017104,-0.0061087
-0.19144,3.0204,-3.8834,7.7865,-0.058338,-0.018631,-0.007025
-0.18701,3.0793,-4.0011,7.7865,-0.051618,-0.019853,-0.0088575
-0.19501,3.0204,-3.7265,7.9434,-0.040623,-0.015577,-0.009163
-0.20895,2.942,-3.8638,7.8061,-0.03543,-0.009163,-0.010996
-0.20514,3.0793,-3.9423,7.9434,-0.037874,-0.0067195,-0.011606
-0.20239,3.1774,-4.0207,7.7669,-0.049175,-0.0058032,0.0036652
-0.2179,2.9224,-3.7658,7.6296,-0.062003,-0.0051924,0.0042761
-0.21741,3.0597,-3.8638,7.6884,-0.06689,-0.0033598,-0.0079412
-0.22778,3.0597,-3.8442,7.6296,-0.061087,0,-0.0024435
-0.23068,3.0597,-3.9423,7.61,-0.040317,0.0073304,0
-0.22839,2.9616,-3.8638,7.61,-0.011912,0.019242,-0.0039706
-0.22961,2.8635,-3.8834,7.9238,0.013134,0.033903,-0.0051924
-0.22009,3.0793,-3.7658,7.9238,0.020464,0.042455,-0.0018326
-0.22253,2.8047,-3.8442,7.8453,-0.027794,0.039706,0.0082467
-0.2081,2.9028,-3.8442,7.61,-0.033903,0.029932,-0.0018326
-0.18793,2.9028,-3.9423,7.7865,-0.030849,0.021686,0.0033598
-0.1687,2.9224,-4.0207,7.6884,-0.031154,0.020464,-0.00030543
-0.14862,3.0793,-3.8638,7.7865,-0.034208,0.02474,-0.0030543
-0.13367,2.8635,-3.7658,7.9238,-0.041233,0.029932,0
-0.10651,3.0008,-3.9423,7.6884,0.010996,0.028711,0.0042761
-0.077911,2.9616,-3.9815,7.708,-0.009163,0.021686,0.0088575
-0.063171,2.9224,-4.0207,7.61,0.041844,0.027794,0
-0.041534,3.0008,-4.0796,7.9042,0.043066,0.027794,0.01069
-0.031403,3.0008,-3.7658,7.8453,0.033598,0.024435,-0.010385
-0.032135,2.8635,-3.8638,7.6884,0.025656,0.019548,-0.010385
-0.054596,3.0793,-4.0207,7.7473,0.028711,0.018326,-0.01069
-0.091614,2.8047,-3.8638,7.8453,0.041233,0.021075,-0.011912
-0.11801,2.8635,-3.7069,7.7473,0.06017,0.027184,-0.010996
-0.16132,2.8635,-3.7265,7.7865,0.079412,0.034819,-0.0079412
-0.21207,3.0008,-3.8638,7.7865,0.085521,0.039706,0.0067195
-0.25742,3.0793,-3.9227,7.7473,0.069639,0.036652,-0.009163
-0.30185,3.0597,-3.8834,7.8061,0.049175,0.022907,0.01069
-0.36124,3.0793,-3.8638,7.7473,0.048564,0.019242,0.0036652
-0.41013,2.9224,-3.9423,7.7865,0.050702,0.025045,0.0097738
-0.46317,2.9224,-3.8638,7.9042,0.039706,0.025045,0.019548
-0.52118,2.8635,-3.8442,7.7669,0.011301,0.013439,0.024129
-0.57867,3.0793,-3.8638,7.7669,-0.014355,-0.010079,0.022907
-0.6362,2.8635,-3.8834,7.8649,0.069944,-0.023518,0.0082467
-0.68375,3.0793,-3.6873,7.8453,0.14019,-0.015882,0.064446
-0.75708,2.7851,-3.7069,8.0022,0.197,0.014661,0.0012217
-0.8208,2.9224,-3.7265,7.8649,0.18998,0.033903,0.027794
-0.86877,2.9224,-3.8834,8.0807,0.13011,-0.015577,0.058338
-0.92828,2.8832,-3.6677,8.3945,0.090103,-0.1182,0.062308
-0.98477,2.9028,-2.6282,8.7083,0.20128,-0.24557,0.030543
-0.99997,2.3928,-2.432,8.4337,0.49572,-0.2981,0.025045
-0.99997,2.2948,-3.6677,8.218,0.82161,-0.2416,0.80573
-0.99997,3.0793,-3.9815,8.6887,1.1112,-0.15974,0.86682
-0.99997,2.5497,-2.9224,9.4732,1.1481,-0.10476,0.22907
-0.99997,1.8437,-1.6279,9.0417,1.1005,-0.15027,0.34941
-0.99997,1.6671,-0.68647,9.434,1.2178,-0.22297,0.41172
-0.99997,1.8044,-1.0591,8.8652,1.0922,-0.21289,0.42547
-0.98831,2.6086,-2.0594,8.0218,0.74098,-0.32345,0.40348
-0.94119,3.2362,-3.3146,7.5511,0.46823,-0.51832,0.59315
-0.8544,3.3343,-4.158,6.9235,0.25931,0.3149,0.0085521
-0.72504,3.6481,-5.2564,6.747,0.27214,0.27947,0.01069
-0.56006,3.7854,-6.2174,7.3354,0.27,0.25168,-0.08491
-0.36124,3.8638,-6.2763,7.1589,0.22724,0.20892,-0.068417
-0.17462,4.1188,-6.139,6.3547,0.13378,0.14844,-0.047342
-0.0075989,3.9423,-5.1975,5.9232,0.0094684,0.081551,-0.029016
0.12982,3.6285,-4.158,6.5312,-0.10537,0.019853,-0.0064141
0.22763,3.2558,-3.1381,7.3158,-0.18998,-0.025045,0.0079412
0.25864,3.0597,-3.0008,7.4531,-0.25076,-0.050702,0.050396
0.22723,2.7851,-3.0989,7.7865,-0.20311,-0.059254,0.030543
0.18011,3.0793,-3.5108,7.6884,-0.14966,-0.048564,0.013134
0.11835,3.0008,-3.6677,7.7865,-0.11118,-0.022907,0.013134
0.052551,3.0793,-3.8246,7.7865,-0.11118,0.0036652,0.020159
-0.0084534,3.0597,-3.9227,8.1787,-0.14691,0.020159,0.034819
-0.095886,2.7851,-3.6088,8.6887,-0.24618,0.023824,0.044899
-0.19217,2.6478,-3.3146,8.8652,-0.26878,0.012523,0.050396
-0.29221,2.6282,-2.9224,8.7279,-0.18754,-0.007025,0.016799
-0.38956,2.4517,-2.3732,8.8064,-0.12462,-0.0042761,-0.002138
-0.48492,2.2948,-2.2751,8.4337,-0.05284,0.011606,-0.0024435
-0.55798,2.687,-2.9028,8.2376,-0.0051924,0.040317,-0.033292
-0.60086,2.8635,-3.2362,8.0807,0.0067195,0.067501,-0.036346
-0.62122,2.9616,-3.6285,8.0022,-0.0097738,0.076664,-0.0088575
-0.61829,2.942,-3.7265,8.0807,-0.18906,0.069639,0.0085521
-0.62561,2.5497,-3.3539,8.4141,-0.20647,0.053756,0.019548
-0.62064,2.687,-3.55,7.9434,-0.015272,0.32284,-0.099266
-0.6098,2.8635,-3.7069,7.6492,0.0030543,0.34636,-0.094379
-0.60257,3.0597,-3.4127,8.1003,0.047647,0.36957,-0.13225
-0.58078,2.9028,-3.2558,8.2768,0.11026,0.39065,-0.13592
-0.55838,2.6086,-3.3146,8.2572,0.18051,0.4102,-0.12248
-0.52097,2.6282,-3.4519,8.1787,0.24312,0.42089,-0.10629
-0.48978,2.9616,-3.6873,7.9434,0.26878,0.40439,-0.10507
-0.45743,2.9028,-3.5108,8.0218,0.26328,0.36285,-0.10354
-0.4295,2.9224,-3.4519,8.0218,-0.03146,-0.0018326,0.007025
-0.39325,2.5497,-3.6285,8.4141,-0.029016,0.0085521,0.010079
-0.3645,2.5301,-3.3146,8.316,-0.043982,0.012217,-0.0039706
-0.354,2.7066,-3.3146,8.2572,-0.073915,0.0088575,0.0009163
-0.36377,2.7459,-3.4519,8.0022,-0.10812,-0.0009163,0.0051924
-0.33105,2.7459,-3.6285,8.1787,-0.13164,-0.014661,0.0085521
-0.32138,2.7851,-3.5108,8.0022,-0.1408,-0.023213,0.0085521
-0.3223,2.7459,-3.5304,8.0807,-0.13378,-0.025045,0.0064141
-0.34073,2.687,-3.4519,7.8061,-0.1179,-0.020464,0.015882
-0.3653,2.8439,-3.3735,7.8649,-0.099571,-0.014355,0.016799
-0.4046,2.9224,-3.55,7.9042,-0.08094,-0.0073304,0.0054978
-0.42157,2.7066,-3.55,7.9434,-0.066279,0.0012217,0.0042761
-0.43948,2.7655,-3.3146,8.2768,-0.062919,0.009163,0.0064141
-0.43207,2.687,-3.0793,8.316,-0.074526,0.014355,0.0058032
-0.41977,2.4909,-3.2362,8.4141,-0.10385,0.011301,0.0076358
-0.40353,2.7655,-3.3735,8.1787,-0.13653,0.0030543,0.012217
-0.3804,2.9028,-3.6285,7.963,-0.15669,-0.0036652,-0.0039706
-0.35446,2.9224,-3.7658,7.8649,-0.14722,-0.017104,-0.0030543
-0.33704,2.8047,-3.7854,7.7865,-0.10629,-0.025351,0.016799
-0.31158,2.8635,-3.5108,8.0218,-0.049786,-0.021686,0.0094684
-0.28244,2.7459,-3.4716,8.0022,-0.0009163,-0.0054978,-0.00061087
-0.25952,2.8635,-3.4716,8.0611,0.026573,0.015272,-0.010996
-0.23895,2.8635,-3.5304,8.0022,0.020769,0.030543,-0.013134
-0.20959,2.7851,-3.6285,7.963,-0.0079412,0.033292,-0.0082467
-0.18961,2.7459,-3.7265,7.9434,-0.080634,0.013439,-0.0012217
-0.1575,2.8047,-3.6677,8.0022,-0.14019,-0.020464,-0.0067195
-0.14566,2.7459,-3.5304,7.963,-0.18906,-0.043677,0.015577
-0.11914,2.8439,-3.6285,7.9434,-0.20586,-0.052229,0.015272
-0.095764,2.7066,-3.7265,7.9042,-0.19181,-0.050091,0.012217
-0.064545,2.7655,-3.8442,7.9042,-0.1631,-0.042761,0.013744
-0.037811,3.0008,-3.8638,7.8061,-0.12065,-0.030849,0.013134
-0.02359,2.7851,-3.6873,8.0022,-0.077885,-0.016188,0.0082467
-0.0038452,2.8635,-3.7658,7.9434,-0.07086,0.03207,-0.0033598
0.014008,2.6478,-3.7658,7.8649,-0.084605,0.021991,-0.007025
0.046326,2.687,-3.7658,7.9238,-0.079718,0.0054978,0.00061087
0.066437,2.9224,-3.6873,7.9434,-0.060781,-0.0082467,0.0082467
0.08551,2.7851,-3.6285,8.0022,-0.037874,-0.0088575,0.0045815
0.088715,2.8047,-3.5108,7.963,-0.016493,-0.0009163,0.0012217
0.095703,2.6478,-3.6285,8.0611,-0.0094684,0.0067195,-0.0024435
0.1033,2.8047,-3.8246,7.9042,-0.042761,0.010996,-0.0051924
0.10809,2.7655,-3.7265,7.9434,-0.0082467,0.016188,-0.00061087
0.11963,2.9224,-3.7069,7.8649,-0.02138,0.021075,-0.0051924
0.12503,2.6086,-3.6677,8.0022,-0.043371,0.02474,-0.0073304
0.13089,2.687,-3.6873,7.7865,-0.064446,0.021991,-0.0036652
0.13455,2.6478,-3.6873,7.8649,-0.076053,0.015272,-0.0015272
0.13998,2.8635,-3.7069,7.9434,-0.069944,0.007025,-0.00030543
0.15704,2.942,-3.7658,7.963,-0.0051924,-0.002138,0.0015272
0.15802,2.9224,-3.7658,8.0022,-0.0045815,-0.007025,0.0024435
0.16434,2.7851,-3.6873,7.8061,-0.042455,0.0051924,-0.011606
0.15863,2.7851,-3.7658,7.8061,-0.030849,0.0051924,-0.0051924
0.15347,2.9028,-4.0207,7.8649,-0.028711,0.0042761,0.0030543
0.15738,2.8047,-3.8638,7.8061,-0.027489,0.0030543,-0.0018326
0.16281,2.7851,-3.6677,7.9434,-0.026573,0.0039706,-0.0051924
0.15701,2.7066,-3.55,8.0022,-0.030238,0.0064141,-0.013744
0.14743,2.6478,-3.5696,7.9042,-0.030849,0.012523,-0.019548
0.14417,2.7851,-3.6873,7.8649,-0.0281,0.018937,-0.017715
0.13339,2.9224,-3.8638,7.8453,-0.058948,0.02138,-0.0030543
0.10974,2.7851,-3.8834,7.7669,-0.045509,0.011912,-0.0067195
0.11221,2.6086,-3.7658,7.9238,-0.010996,0.0051924,-0.0058032
0.1087,2.9224,-3.8638,7.9434,0.026878,0.011301,-0.015272
0.11603,2.8635,-3.6285,8.0022,0.041844,0.026267,-0.027489
0.11899,2.8635,-3.7265,7.9042,0.021686,0.045815,-0.029322
0.12769,2.7851,-3.9423,7.8649,-0.03543,0.054672,-0.019242
0.14313,2.7851,-3.9423,7.7473,-0.049786,0.04612,-0.007025
0.16269,2.7459,-3.7069,7.8453,-0.010996,0.036652,0.017715
0.19006,2.687,-4.0011,8.0807,-0.0085521,0.048564,0.014661
0.23282,2.9224,-3.6285,7.9238,-0.047647,0.043066,-0.0082467
0.26822,2.7851,-3.7658,7.9238,-0.12309,0.025351,-0.0073304
0.28619,2.7851,-3.8442,7.8649,-0.21411,-0.0030543,-0.009163
0.31079,2.9224,-3.7658,7.8453,-0.30604,-0.032376,-0.0030543
0.33691,2.9028,-3.7658,7.9238,-0.38973,-0.059559,0.0051924
0.36533,2.6478,-3.7069,7.9042,-0.45448,-0.090103,0.011912
0.3891,2.8635,-3.7658,7.8649,0.047037,0.026878,-0.078191
0.41373,2.7655,-3.9227,7.8061,0.12309,0.0094684,-0.040928
0.42017,2.9224,-3.9423,7.8061,0.27336,0.0033598,-0.054367
0.43515,2.9224,-3.9815,7.7865,0.47159,0.062919,-0.10568
0.40512,2.6086,-4.2561,7.963,0.66035,0.1576,-0.14355
0.30359,3.0008,-4.2953,7.2961,0.78954,0.24557,-0.13347
0.16306,3.0597,-3.8834,7.2765,0.81092,0.31246,-0.10232
-0.011597,2.7851,-2.7851,8.1003,0.70952,0.31734,-0.094684
-0.203,2.589,-2.8439,8.5318,0.34056,0.26267,-0.019242
-0.38498,2.6086,-3.2362,8.2572,0.17379,0.1686,-0.016493
-0.53595,2.7851,-3.4323,8.2376,0.11057,0.089492,-0.044288
-0.64755,2.8439,-3.3931,8.0611,0.15149,0.055283,-0.072388
-0.73254,2.6086,-3.0401,8.3357,0.24771,0.057116,-0.053145
-0.80289,2.589,-3.0008,8.5318,0.3094,0.086743,-0.015272
-0.83191,2.2948,-3.0401,8.4141,0.32162,0.12034,-0.0048869
-0.85825,2.7066,-3.2362,8.2768,0.27733,0.14019,-0.012523
-0.85977,2.7851,-3.3146,8.218,0.18509,0.13592,-0.0281
-0.8501,2.6086,-3.1381,8.2572,0.06689,0.10843,-0.016799
-0.82825,2.7066,-3.0597,8.4337,-0.053451,0.079412,-0.009163
-0.79703,2.2948,-2.9028,8.4926,-0.1408,0.053145,-0.0067195
-0.74869,2.6086,-3.0008,8.4337,-0.17226,0.023518,-0.0039706
-0.68771,2.4909,-3.197,8.316,-0.15272,0.0045815,-0.011301
-0.59482,2.4909,-3.6873,8.0022,-0.1011,0.0027489,-0.029322
-0.51538,2.9224,-4.158,7.5315,-0.044899,0.017104,-0.034819
-0.4202,2.8047,-4.0403,7.7865,-0.0281,0.013439,-0.0085521
-0.32959,2.7851,-3.6088,8.0022,-0.022297,0.0085521,-0.0085521
-0.27005,2.7851,-3.3931,7.9434,-0.032376,0.0039706,-0.002138
-0.22861,2.7066,-3.2558,8.0611,-0.033598,0.002138,-0.0036652
-0.20786,2.589,-3.3931,8.316,-0.031154,0.0018326,-0.0054978
-0.20276,2.7851,-3.3931,8.1787,-0.028405,0.0036652,-0.0061087
-0.18118,2.687,-3.5304,8.0022,-0.025351,0.009163,-0.0051924
-0.15817,2.6086,-3.7265,8.0807,-0.024435,0.010079,-0.0051924
-0.10767,2.8635,-3.6285,7.9434,-0.086743,-0.009163,-0.0042761
-0.041138,2.7655,-3.55,7.8061,-0.076053,-0.0064141,-0.0073304
0.032196,2.687,-3.5696,8.0807,-0.068722,-0.0033598,-0.0009163
0.11023,2.7459,-3.5108,8.0415,-0.066584,-0.0030543,0
0.16971,2.8635,-3.4519,8.1199,-0.069028,-0.0012217,-0.0036652
0.22989,2.8047,-3.3931,8.1787,-0.07025,0.0012217,-0.0045815
0.26999,2.8635,-3.55,8.0022,-0.069944,0.0045815,-0.007025
0.32562,2.7655,-3.5696,8.0022,-0.062003,0.0082467,-0.0051924
0.353,2.687,-3.6677,8.0611,-0.032987,0.010385,-0.0088575
0.40054,2.8635,-3.5696,7.9434,-0.03146,0.0067195,-0.0054978
0.43604,2.7851,-3.6285,7.9434,-0.024129,0.0030543,-0.0064141
0.47208,2.6478,-3.6873,7.9042,-0.0073304,0.00030543,-0.0051924
0.46985,2.6086,-3.6873,7.9434,-0.015882,-0.0015272,-0.0094684
0.46912,2.6086,-3.6285,7.9434,-0.04215,0.0079412,-0.011606
0.47794,2.7851,-3.6285,8.0807,-0.048258,0.0073304,-0.009163
0.48138,2.7851,-3.5304,8.0022,-0.037874,-0.00061087,-0.0039706
0.50189,2.7851,-3.5696,7.9434,-0.065363,0.0027489,0
0.50888,2.8047,-3.6285,8.0022,-0.075136,0.0082467,-0.0027489
0.53207,2.7459,-3.7265,7.9434,-0.06353,0.00061087,0.0061087
0.55951,2.7655,-3.6873,8.0022,-0.038179,-0.010385,0.0054978
0.55899,2.8047,-3.55,8.0022,-0.016799,-0.0085521,-0.0039706
0.59012,2.6086,-3.6873,7.9434,-0.01405,0.0015272,-0.0088575
0.61566,2.8635,-3.6285,7.9434,-0.049786,0.012523,-0.0042761
0.63574,2.8635,-3.6285,7.963,-0.051618,0.016493,0.0012217
0.64685,2.6086,-3.6285,8.0611,0.0042761,0.019548,0.0015272
0.6723,2.6086,-4.0207,8.1003,-0.015882,0.017715,0.0024435
0.69318,2.9028,-3.6285,8.0611,-0.03879,0.01069,0.0009163
0.70767,2.7655,-3.5304,7.9434,-0.058948,0.0015272,0.002138
0.72986,2.8047,-3.8246,7.963,-0.07086,-0.0058032,0.0024435
0.72501,2.7066,-3.6873,7.963,-0.068417,-0.009163,0.0024435
0.71585,2.7655,-3.6677,8.0022,-0.054978,-0.0073304,0.0033598
0.7236,2.9224,-3.8246,7.9042,-0.036957,-0.0027489,0.0009163
0.71796,2.589,-3.5696,8.0218,-0.018326,0.0039706,0.0009163
0.71326,2.8047,-3.5304,7.963,-0.01069,0.0097738,-0.00030543
0.70578,2.6086,-3.6088,7.963,-0.0045815,0.012828,-0.0012217
0.71817,2.5497,-3.7069,8.0611,-0.0067195,0.012828,-0.0039706
0.70639,2.7655,-3.7069,7.7865,-0.012828,0.01069,-0.00030543
0.69138,2.7851,-3.55,7.9434,-0.020769,0.0088575,0.0015272
0.68945,2.687,-3.5304,8.0022,-0.025351,0.0073304,-0.0018326
0.68912,2.6478,-3.6677,7.8649,-0.022907,0.0054978,-0.0018326
0.69208,2.8635,-3.6873,8.0218,-0.01405,0.0012217,-0.0018326
0.70358,2.6086,-3.6873,7.963,-0.0073304,0.0009163,-0.0036652
0.737,2.7655,-3.7658,7.8061,-0.0067195,0.0064141,-0.0058032
0.77664,2.687,-3.6677,7.9238,-0.0076358,0.010996,-0.0085521
0.82373,2.687,-3.6873,7.963,-0.0076358,0.013439,-0.0067195
0.8714,2.9224,-3.7854,7.9042,-0.010996,0.015272,-0.0058032
0.90207,2.8047,-3.6285,8.0022,-0.018937,0.01741,-0.0058032
0.94049,2.687,-3.6677,8.0022,-0.030238,0.015577,-0.0027489
0.95831,2.8439,-3.6873,7.963,-0.041233,0.009163,-0.0094684
0.98245,2.8635,-3.6088,7.9434,-0.042455,0.0018326,-0.0064141
0.99521,2.7851,-3.5696,8.0022,-0.030543,-0.0012217,-0.0045815
1,2.8635,-3.6285,8.0022,-0.012828,0.0039706,-0.0064141
1,2.7459,-3.7069,7.9434,-0.00030543,0.011912,-0.011301
1,2.9224,-3.9423,7.8649,0.0064141,0.019548,-0.0097738
0.9928,2.687,-3.55,7.963,0.0064141,0.025656,-0.009163
0.99014,2.6086,-3.6677,8.0807,-0.0036652,0.028711,-0.011912
0.9787,2.7851,-3.5304,8.0022,-0.014355,0.010996,0.00030543
0.98572,2.5497,-3.6285,8.0022,-0.014966,0.017715,-0.0018326
1,2.7851,-3.7658,7.8061,-0.023518,0.021075,-0.0064141
1,2.9028,-3.7265,7.9434,-0.033598,0.021686,-0.0058032
1,2.8047,-3.6677,7.963,-0.041539,0.020464,-0.0054978
1,2.6478,-3.6873,7.8453,-0.047342,0.016493,-0.0048869
1,2.8635,-3.6285,8.0022,-0.025656,0.010996,-0.0042761
1,2.7851,-3.7658,7.963,-0.019548,0.0094684,-0.0009163
1,2.8635,-3.6873,7.9434,-0.032987,0.007025,0.0009163
0.99597,2.687,-3.6873,7.8649,-0.02138,0.0027489,0.0009163
0.98322,2.8047,-3.6677,7.9434,-0.014355,0.0054978,-0.0024435
0.97552,2.6478,-3.6873,8.0022,-0.016188,0.011606,-0.0042761
0.9447,2.9028,-3.6285,7.9434,-0.023518,0.018021,-0.0082467
0.92117,2.6086,-3.6873,7.9238,-0.031765,0.018631,-0.0039706
0.90045,2.8635,-3.6873,7.9434,-0.047953,0.015577,0.00061087
0.88776,2.8635,-3.8442,7.9042,-0.041844,0.012828,-0.00061087
0.87775,2.687,-3.7658,7.963,-0.036957,0.009163,-0.010996
0.86758,2.7851,-3.7658,7.9434,-0.022297,0.0064141,-0.009163
0.84998,2.9028,-3.6285,7.9434,-0.0079412,0.0058032,-0.0027489
0.82895,2.8047,-3.6873,7.963,-0.0012217,0.007025,-0.0054978
0.80737,2.8047,-3.5696,7.9238,-0.0009163,0.011606,-0.009163
0.79001,2.6086,-3.6677,8.0218,-0.0094684,0.014661,-0.01069
0.77066,2.6478,-3.7265,8.0022,-0.040317,0.018631,-0.011301
0.74854,2.687,-3.6873,7.9042,-0.041844,0.018021,-0.011301
0.72226,2.687,-3.6873,7.9238,-0.029627,0.013744,-0.0048869
0.68335,2.7851,-3.6873,7.9238,-0.029016,0.013744,-0.0073304
0.67139,2.9028,-3.7658,7.9434,-0.030849,0.01741,-0.0024435
0.66895,2.8635,-4.0011,7.9042,-0.033598,0.016493,-0.00061087
0.66476,2.8635,-3.6873,7.9238,-0.037874,0.012828,0
0.67044,2.7851,-3.6285,7.9434,-0.040623,0.011301,0.0009163
0.67188,2.7066,-3.6873,7.8649,-0.040623,0.011912,-0.0009163
0.6853,2.7851,-3.7265,7.9434,-0.033903,0.011301,-0.0042761
0.69965,2.8439,-3.6873,7.9238,-0.020769,0.012523,-0.0073304
0.72256,2.5497,-3.9815,8.0611,-0.024435,0.0088575,-0.0054978
0.75226,2.7851,-3.6677,7.9042,-0.022907,0.010079,-0.0061087
0.76608,2.6478,-3.7069,8.0022,-0.018021,0.010385,-0.0048869
0.77219,2.687,-3.7658,7.8061,-0.014355,0.01405,-0.009163
0.77151,2.8047,-3.6873,7.9238,-0.015272,0.018631,-0.014966
0.75833,2.8635,-3.8834,7.8453,-0.018326,0.018021,-0.011912
0.75415,2.6086,-3.6873,7.9434,-0.022297,0.014966,-0.0073304
0.74997,2.8047,-3.6873,7.9434,-0.02474,0.010996,-0.0033598
0.74149,2.687,-3.6285,7.9042,-0.026267,0.011606,-0.0024435
0.73462,2.687,-3.7658,7.963,-0.027489,0.011912,-0.0033598
0.72046,2.7066,-3.8246,7.7865,-0.029322,0.011301,-0.0027489
0.71487,2.8635,-3.7069,7.8649,-0.028405,0.01069,-0.0030543
0.70685,2.7851,-3.6873,7.9434,-0.023518,0.011606,-0.0048869
0.70819,2.9028,-3.8638,7.9238,-0.017715,0.015272,-0.0085521
0.70639,2.7851,-3.8246,7.9434,-0.015882,0.019242,-0.0076358
0.69791,2.9224,-3.6873,7.9238,-0.025045,0.0036652,-0.0036652
0.69772,2.9028,-3.6873,7.8649,-0.014661,0.0024435,-0.0054978
0.67517,2.6478,-3.6873,7.8649,-0.0076358,0.010079,-0.0064141
0.66571,2.8635,-3.7658,7.9434,-0.0064141,0.01741,-0.0079412
0.64832,2.7851,-3.7265,7.9238,-0.011606,0.017104,-0.0061087
0.64383,2.7851,-3.8246,7.9434,-0.022602,0.015272,-0.0036652
0.61844,2.9028,-3.9227,7.8649,-0.029627,0.012828,-0.002138
0.59134,2.9028,-3.6873,7.963,-0.032681,0.0094684,-0.002138
0.56946,2.687,-3.6873,7.9434,-0.029627,0.0094684,-0.0064141
0.54694,2.6478,-3.6285,7.9434,-0.02138,0.013439,-0.0064141
0.52167,2.7851,-3.7265,7.9042,-0.011606,0.014661,-0.0085521
0.5015,2.9028,-3.9423,7.8649,-0.0051924,0.018631,-0.010079
0.48074,2.9028,-3.6873,7.963,-0.0027489,0.020464,-0.011301
0.46985,2.8635,-3.7658,7.9042,-0.0045815,0.019853,-0.0097738
0.45755,2.6478,-3.7069,7.7669,-0.011606,0.016493,-0.0073304
0.44556,2.9028,-3.6873,7.9434,-0.016493,0.013439,-0.0061087
0.42984,2.8047,-3.6873,7.9042,0.0027489,0.015272,-0.0054978
0.43613,2.7459,-3.8246,7.9434,-0.0061087,0.019242,-0.0067195
0.44751,2.9028,-3.7265,7.9434,-0.017715,0.022297,-0.0097738
0.45618,2.7851,-3.6285,7.9042,-0.026878,0.020769,-0.0061087
0.47824,2.6478,-3.8246,7.963,-0.030849,0.015882,-0.0048869
0.48999,2.687,-3.8246,7.7865,-0.029627,0.012217,-0.0033598
0.50165,2.7851,-3.6285,7.9238,-0.0061087,0.010079,-0.002138
0.52649,2.9224,-3.8246,7.8061,0.002138,0.0088575,-0.0024435
0.5463,2.589,-3.7658,7.9434,-0.01069,0.012828,-0.0033598
0.55023,2.9028,-3.7265,7.963,-0.010079,0.018326,-0.0048869
0.56363,2.687,-3.6285,7.9042,-0.011912,0.020159,-0.0064141
0.57401,2.7851,-3.7265,7.9238,-0.014661,0.021686,-0.0051924
0.57916,2.8635,-3.7658,7.9238,-0.01405,0.021075,-0.0048869
0.5752,2.9224,-3.6873,7.9434,-0.014966,0.018326,-0.0024435
0.58014,2.6478,-3.7069,7.9434,-0.023824,0.017715,-0.0012217
0.57928,2.9028,-3.8246,7.9434,-0.016493,0.016188,-0.002138
0.58051,2.7655,-3.8246,7.9434,-0.028711,0.011606,-0.0039706
0.57394,2.7459,-3.7658,7.7865,-0.025045,0.014661,-0.0024435
0.57089,2.7851,-3.7658,8.0022,-0.018631,0.016799,-0.0045815
0.56668,2.687,-3.6873,7.9434,-0.016188,0.018021,-0.0033598
0.55658,2.8439,-3.8246,7.8649,-0.013439,0.018937,-0.0030543
0.55594,2.687,-3.7658,7.9434,-0.011606,0.020159,-0.0030543
0.55249,2.8047,-3.8442,7.7865,-0.010996,0.020769,-0.0033598
0.54749,2.8635,-3.8442,7.9434,-0.012523,0.021686,-0.0064141
0.54602,2.6478,-3.7265,7.7865,-0.041539,0.021075,-0.010079
0.54044,2.7851,-3.7658,7.9434,-0.047037,0.020769,-0.013744
0.52798,2.8047,-3.6873,7.9238,-0.044899,0.015272,-0.0042761
0.51141,2.9028,-3.7658,7.9042,-0.040012,0.010996,-0.0045815
0.49673,2.8047,-3.6873,7.8649,-0.032376,0.0094684,-0.0015272
0.48669,2.8635,-3.7658,7.9042,-0.018326,0.0088575,-0.00030543
0.47443,2.687,-3.7658,7.7865,-0.019853,0.0085521,-0.0012217
0.47702,2.7851,-3.6873,7.8649,-0.031765,0.010996,-0.0042761
0.46265,2.7851,-3.6873,7.8649,-0.011301,0.021686,-0.0076358
0.46219,2.7851,-4.0796,8.0022,-0.025962,0.018326,-0.007025
0.47275,2.7459,-3.7265,7.8453,-0.032681,0.01405,-0.0085521
0.48404,2.8635,-3.7658,7.9434,-0.032987,0.011606,-0.0076358
0.48309,2.6086,-3.6285,8.0022,-0.031765,0.011912,-0.0082467
0.47482,2.8635,-3.8638,7.9042,-0.026573,0.011912,-0.007025
0.46866,2.7459,-3.7658,7.7865,-0.020464,0.013439,-0.0067195
0.45081,2.8635,-3.6873,7.8649,-0.018021,0.014661,-0.0079412
0.43137,2.6478,-3.6873,7.8649,-0.013439,0.018631,-0.0076358
0.42688,2.8635,-3.7658,7.9434,-0.015272,0.015272,-0.0051924
0.42108,2.687,-3.7265,7.7865,-0.019548,0.015272,-0.01069
0.41049,2.7851,-3.7069,7.8061,-0.020464,0.015577,-0.0094684
0.39285,2.7851,-3.8246,7.8061,-0.021075,0.013134,-0.0094684
0.40674,2.9028,-3.6873,7.9434,-0.021991,0.010996,-0.009163
0.3869,2.7655,-3.6873,7.8649,-0.019548,0.009163,-0.0079412
0.38715,2.6282,-3.8246,7.7865,-0.017104,0.010996,-0.0076358
0.39285,2.8635,-3.7658,7.9042,-0.014661,0.014355,-0.0054978
0.39093,2.687,-3.6873,7.9434,-0.012828,0.019853,-0.007025
0.39151,2.8635,-3.8442,7.8649,-0.010079,0.018937,-0.0061087
0.397,2.7851,-3.6873,7.9042,-0.0088575,0.017715,-0.0073304
0.3902,2.8635,-3.6873,7.9434,-0.010385,0.019548,-0.0076358
0.38135,2.8635,-3.6873,7.9434,-0.015272,0.018021,-0.0088575
0.38907,2.7655,-3.7265,7.8453,-0.017104,0.016188,-0.0064141
0.37439,2.8439,-3.8638,7.9434,-0.019242,0.013439,-0.0054978
0.35773,2.9224,-3.7658,7.9042,-0.025351,0.011606,-0.010079
0.3526,2.6282,-3.7069,8.0218,-0.029932,0.0079412,-0.009163
0.33209,2.687,-3.8246,8.0022,-0.027489,0.0094684,-0.0082467
0.31204,2.7459,-3.7658,7.9434,-0.020769,0.011912,-0.0076358
0.28693,2.9028,-3.6873,7.9434,-0.01069,0.012828,-0.0073304
0.26935,2.6086,-3.7069,7.9434,-0.0015272,0.015272,-0.009163
0.25122,2.7459,-3.7658,7.7865,0.00061087,0.020159,-0.0088575
0.2403,2.7066,-3.6873,7.9042,-0.0030543,0.022297,-0.0094684
0.21869,2.7851,-3.7658,7.8453,-0.01405,0.018326,-0.0054978
0.22012,2.687,-3.7658,7.8061,-0.01069,0.018021,-0.0054978
0.23846,2.7066,-3.6873,7.8649,-0.011301,0.022907,-0.010079
0.22787,2.7851,-3.8638,7.8453,-0.019853,0.021075,-0.010385
0.21381,2.8047,-3.8246,7.9238,-0.029932,0.012828,-0.0079412
0.20779,2.687,-3.7265,7.7473,-0.03543,0.0079412,-0.0067195
0.19223,2.8635,-3.6873,7.9434,-0.040012,0.0058032,-0.007025
0.17038,2.7851,-3.6677,7.9434,-0.037568,0.0045815,-0.0076358
0.14551,2.7851,-3.7069,7.8649,-0.025656,0.0076358,-0.007025
0.13275,2.7851,-3.7658,7.9238,-0.025962,0.009163,-0.0051924
0.12634,2.9224,-3.6873,7.8649,-0.021686,0.0073304,-0.0054978
0.10794,2.6478,-3.7854,7.9434,-0.010079,0.0076358,-0.0051924
0.086426,2.7655,-3.8246,7.7865,0.0018326,0.011912,-0.0064141
0.069305,2.8635,-3.6873,7.9434,0.0097738,0.01741,-0.0085521
0.046661,2.7655,-3.7069,7.8061,-0.030238,0.021991,-0.009163
0.03418,2.8635,-3.7658,7.9434,-0.026878,0.025656,-0.0085521
0.021301,2.8635,-3.7265,7.8845,-0.016188,0.027794,-0.011606
0.0072021,2.8635,-3.7658,7.9434,-0.026878,0.023518,-0.007025
-0.0049744,2.7655,-3.8442,7.9238,-0.033598,0.014355,-0.0024435
-0.03952,2.7851,-3.8638,7.9042,-0.033903,0.0067195,0.0018326
-0.055267,2.8439,-3.6677,7.9434,-0.022297,0.0024435,0.0039706
-0.06955,2.6282,-3.6873,7.9042,-0.0094684,0.0051924,-0.00030543
-0.094055,2.7851,-3.6873,7.9042,0.0088575,0.011912,-0.007025
-0.10721,2.7851,-3.8638,7.6884,-0.0027489,0.018631,-0.012217
-0.13055,2.7655,-3.7658,7.8061,-0.010079,0.02138,-0.0027489
-0.13452,2.8635,-3.8638,7.8453,-0.014355,0.017715,-0.0024435
-0.14465,2.7851,-3.7658,7.9042,-0.016188,0.016188,-0.0064141
-0.14761,2.687,-3.7265,7.7669,-0.020769,0.014355,-0.0051924
-0.14609,2.9028,-3.7658,7.9238,-0.025045,0.013744,-0.0036652
-0.14728,2.687,-3.6873,7.9434,-0.027794,0.01405,-0.0061087
-0.14279,2.8635,-3.8442,7.8061,-0.0048869,0.015272,-0.0039706
-0.14557,2.7655,-3.7658,7.9434,-0.0048869,0.016188,-0.002138
-0.14383,2.687,-3.6873,7.9042,-0.035125,0.0039706,-0.0073304
-0.11209,2.7655,-4.0796,8.0022,-0.028405,0.0051924,-0.0082467
-0.099854,2.687,-3.6873,7.8061,-0.02138,0.012828,-0.0085521
-0.088043,2.687,-3.8442,7.7865,-0.015882,0.017715,-0.009163
-0.089386,2.9028,-3.6873,7.8649,-0.013134,0.019242,-0.0076358
-0.081146,2.7459,-3.8246,7.9434,-0.01069,0.019242,-0.0082467
-0.082062,2.7655,-3.7658,7.9238,-0.0088575,0.019853,-0.0085521
-0.081177,2.7851,-3.6285,7.8649,-0.009163,0.018326,-0.0073304
-0.06488,2.8635,-3.7265,7.9238,-0.018631,0.017104,-0.0054978
-0.076782,2.8635,-3.7265,7.8061,-0.025045,0.018021,-0.0054978
-0.072784,2.7851,-3.7069,7.8649,-0.027489,0.013744,-0.0076358
-0.072601,2.7851,-3.7854,7.9042,-0.029016,0.010079,-0.0042761
-0.068054,2.9028,-3.7069,7.9238,-0.030238,0.0079412,-0.00061087
-0.073669,2.6478,-3.6285,7.8649,-0.025045,0.009163,-0.0018326
-0.075775,2.687,-3.8246,7.963,-0.015882,0.011301,-0.002138
-0.085205,2.7851,-3.8638,7.7669,-0.0061087,0.014966,-0.0027489
-0.080139,2.8047,-3.8246,7.8649,-0.0009163,0.018631,-0.0094684
-0.094696,2.7851,-3.7069,7.7865,-0.0051924,0.018937,-0.0082467
-0.10446,2.6478,-3.7658,7.7473,-0.015882,0.018937,-0.0048869
-0.10306,2.7655,-3.7658,7.9434,-0.026267,0.016188,-0.0058032
-0.11078,2.687,-3.7265,7.9042,-0.032376,0.011301,-0.0082467
-0.1124,2.7851,-3.7069,7.8453,-0.029627,0.0082467,-0.009163
-0.12781,2.589,-3.7658,7.9434,-0.021686,0.0097738,-0.009163
-0.13577,2.8635,-3.8246,7.9042,-0.015272,0.015272,-0.0097738
-0.14563,2.687,-3.6873,7.8649,-0.016188,0.019242,-0.0073304
-0.16208,2.687,-3.7658,8.0022,-0.013439,0.021686,-0.0058032
-0.17169,2.7459,-3.8442,7.7865,-0.01405,0.020464,-0.0073304
-0.19238,2.8635,-3.8246,7.7865,-0.01741,0.017104,-0.0061087
-0.19849,2.8635,-3.8442,7.9238,-0.022907,0.014661,-0.0058032
-0.21002,2.6478,-3.8246,7.9434,-0.02474,0.013744,-0.0039706
-0.21783,2.7459,-3.8638,7.9238,-0.023213,0.016188,-0.0033598
-0.22543,2.9224,-3.7069,7.9238,-0.020159,0.018021,-0.0061087
-0.25104,2.9224,-3.7069,7.9042,-0.019548,0.018021,-0.0073304
-0.24481,2.6086,-3.6873,7.9434,-0.018326,0.01741,-0.007025
-0.23422,2.7851,-3.8442,7.8649,-0.018326,0.015882,-0.0054978
-0.23462,2.9224,-3.9423,7.8453,-0.01741,0.015882,-0.0085521
-0.24496,2.7851,-3.7265,7.8453,-0.016799,0.015272,-0.007025
-0.25638,2.8635,-3.8246,7.9434,-0.018326,0.014966,-0.0082467
-0.24789,2.687,-3.7854,7.9042,-0.012523,0.016188,-0.0097738
-0.25827,2.7851,-3.7658,7.9042,-0.015577,0.014661,-0.0079412
-0.26709,2.7851,-3.7658,7.8649,-0.025962,0.013439,-0.0067195
-0.25677,2.8047,-3.7658,7.8649,-0.024129,0.01405,-0.0067195
-0.24829,2.9224,-3.7658,7.9434,-0.02138,0.013134,-0.0058032
-0.24509,2.9224,-3.7265,7.9042,-0.015272,0.011912,-0.0061087
-0.24533,2.9028,-3.6873,7.9238,-0.010385,0.011606,-0.0079412
-0.22995,2.8635,-3.6873,7.8649,-0.0076358,0.013439,-0.0067195
-0.21954,2.6282,-3.7658,7.9434,-0.020769,0.014661,-0.0045815
-0.22363,2.7655,-3.8442,7.963,-0.025045,0.01741,-0.0058032
-0.22577,2.8635,-3.7854,7.9042,-0.015272,0.018021,-0.0088575
-0.20193,2.687,-3.8442,7.708,-0.021075,0.012828,-0.0082467
-0.2034,2.7851,-3.8638,7.9238,-0.025351,0.012828,-0.0061087
-0.21146,2.8635,-3.7069,7.9238,-0.026573,0.012217,-0.0058032
-0.21313,2.9224,-3.7854,7.8649,-0.024435,0.011301,-0.0051924
-0.21033,2.7459,-3.7265,7.8061,-0.02138,0.0088575,-0.0054978
-0.2023,2.8635,-3.8638,7.8649,-0.0076358,0.0079412,-0.0073304
-0.20273,2.6086,-3.7658,7.9434,-0.009163,0.009163,-0.0085521
-0.20483,2.6282,-3.7658,7.9434,-0.019548,0.011606,-0.0058032
-0.20337,2.8047,-3.7854,7.7865,-0.023824,0.010996,-0.0051924
-0.20273,2.8635,-4.0207,7.8649,-0.027489,0.01405,-0.007025
-0.20358,2.589,-3.7658,8.0022,-0.026573,0.013744,-0.0051924
-0.20837,2.8635,-3.7658,7.9042,-0.024129,0.014355,-0.0039706
-0.19809,2.8635,-3.7658,7.9042,-0.018937,0.014661,-0.0061087
-0.20245,2.7851,-3.7265,7.7865,-0.014661,0.014661,-0.0073304
-0.21454,2.7851,-3.8246,7.8061,-0.013439,0.015882,-0.0064141
-0.21829,2.7851,-3.7658,7.8061,-0.01741,0.01405,-0.0076358
-0.20242,2.8635,-4.1384,7.9434,-0.01741,0.018326,-0.0064141
-0.18539,2.8635,-3.7854,7.8453,-0.018326,0.017104,-0.0076358
-0.18048,2.7851,-3.7658,7.8649,-0.018326,0.013134,-0.0076358
-0.18552,2.687,-3.7265,7.9434,-0.018631,0.012523,-0.007025
-0.18149,2.5497,-3.6873,8.0022,-0.018631,0.012828,-0.0079412
-0.19641,2.7459,-3.8638,7.7865,-0.015577,0.014661,-0.0079412
-0.19159,2.7851,-3.9815,7.8061,-0.012828,0.017104,-0.007025
-0.1944,2.9028,-3.7658,7.8061,-0.014661,0.016188,-0.0085521
-0.20181,2.6086,-3.6873,7.9826,-0.015577,0.013744,-0.011301
-0.20844,2.6478,-3.7069,7.7865,-0.020464,0.01405,-0.0061087
-0.21732,2.8635,-3.7658,7.9238,-0.026573,0.013439,-0.0067195
-0.22006,2.8635,-3.8246,7.8649,-0.026267,0.013439,-0.0051924
-0.23102,2.7459,-3.8638,7.7865,-0.023213,0.014966,-0.0039706
-0.22739,2.9224,-3.8246,7.9238,-0.022297,0.014355,-0.0051924
-0.2113,2.6086,-3.6873,7.963,-0.025962,0.010996,-0.0067195
-0.22174,2.8635,-3.7854,7.9238,-0.027794,0.0082467,-0.0076358
-0.22366,2.7851,-3.7658,7.8649,-0.022602,0.0094684,-0.0088575
-0.21002,2.9028,-3.7658,7.8061,-0.01405,0.01405,-0.0073304
-0.20523,2.6478,-3.7658,7.9434,-0.0054978,0.017715,-0.0082467
-0.19058,2.6086,-3.8246,7.8649,-0.002138,0.020464,-0.010079
-0.1767,2.6478,-3.7658,7.7865,-0.0033598,0.019853,-0.011301
-0.17896,2.6478,-3.7658,7.9434,-0.010996,0.017104,-0.0097738
-0.18018,2.7066,-3.8442,7.8061,-0.020769,0.01405,-0.0085521
-0.17279,2.8635,-3.7658,7.9434,-0.026267,0.009163,-0.0054978
-0.17169,2.8635,-3.7658,7.9238,-0.02474,0.0039706,-0.0073304
-0.17633,2.6086,-3.7265,7.9434,-0.019853,0.007025,-0.0082467
-0.17798,2.8635,-3.7658,7.9042,-0.013439,0.012828,-0.0085521
-0.1781,2.6478,-3.7658,7.9238,-0.0073304,0.015882,-0.009163
-0.18933,2.687,-3.8442,7.8061,-0.0030543,0.017104,-0.007025
-0.18582,2.7655,-3.8638,7.8453,-0.0033598,0.014966,-0.0039706
-0.1871,2.7066,-3.8246,7.8649,-0.0088575,0.014355,-0.0027489
-0.19318,2.7851,-3.6285,7.9434,-0.017104,0.01741,-0.01069
-0.18646,2.9224,-3.8638,7.8649,-0.020464,0.018937,-0.010079
-0.16891,2.7851,-3.9423,7.6884,-0.025351,0.012828,-0.011301
-0.15082,2.8635,-3.8442,7.8649,-0.025962,0.0088575,-0.011301
-0.15344,2.8047,-3.7265,7.9434,-0.024435,0.007025,-0.010079
-0.16071,2.7851,-3.7069,7.9238,-0.020159,0.0076358,-0.0097738
-0.14737,2.7459,-3.7069,7.9238,-0.0082467,0.009163,-0.010385
-0.1546,2.7459,-3.7854,7.8061,-0.012828,0.011606,-0.011301
-0.1702,2.9224,-3.9423,7.8453,-0.018937,0.015882,-0.0058032
-0.17624,2.687,-3.8638,7.9434,-0.022602,0.017104,-0.0079412
-0.17584,2.9028,-3.6873,7.8649,-0.024129,0.015577,-0.0064141
-0.17981,2.7851,-3.7461,7.9238,-0.025962,0.013134,-0.007025
-0.1875,2.7459,-3.8442,7.8453,-0.025962,0.013134,-0.0048869
-0.19376,2.8635,-4.0207,7.8649,-0.019548,0.013439,-0.0048869
-0.20502,2.7851,-3.8246,7.7865,-0.012217,0.015272,-0.0079412
-0.21332,2.8047,-3.8638,7.8649,-0.0082467,0.019242,-0.007025
-0.22165,2.9028,-3.7658,7.9434,-0.012523,0.018631,-0.0085521
-0.2348,2.6086,-3.7854,7.9434,-0.019853,0.013744,-0.0082467
-0.24063,2.9028,-3.7658,7.9042,-0.023824,0.013439,-0.0079412
-0.25125,2.7459,-3.8442,7.7865,-0.026878,0.014661,-0.009163
-0.25247,2.7459,-3.6873,7.8649,-0.021686,0.014355,-0.0082467
-0.26041,2.8635,-3.8442,7.8453,-0.015577,0.014355,-0.0045815
-0.26556,2.8047,-3.8442,7.7865,-0.011301,0.016799,-0.0061087
-0.267,2.7851,-3.8834,7.8649,-0.0079412,0.018326,-0.009163
-0.26996,2.687,-3.8638,7.963,-0.02474,0.017715,-0.009163
-0.28171,2.7066,-3.7265,7.9042,-0.032681,0.016188,-0.010385
-0.27466,2.6478,-3.7265,7.8649,-0.031154,0.013134,-0.0064141
-0.2832,2.6086,-3.7658,7.9042,-0.023824,0.01069,-0.0061087
-0.27914,2.9028,-3.8246,7.8649,-0.014966,0.0079412,-0.0073304
-0.26404,2.7459,-3.7265,7.7865,-0.01069,0.0085521,-0.0064141
-0.25278,2.8047,-3.7658,7.9042,-0.0073304,0.013134,-0.007025
-0.24673,2.6086,-3.7069,7.963,-0.01069,0.016188,-0.0088575
-0.22928,2.9028,-3.7658,7.8649,-0.024435,0.015272,-0.0067195
-0.20935,2.8439,-4.158,7.963,-0.030543,0.013134,-0.0073304
-0.18491,2.9224,-4.0207,7.8061,-0.031765,0.013744,-0.0045815
-0.16809,2.7851,-3.7265,7.8061,-0.030849,0.014966,-0.0067195
-0.15961,2.8047,-3.8442,7.9042,-0.028405,0.01405,-0.0073304
-0.15985,2.7459,-3.7265,7.8061,-0.024435,0.013439,-0.0054978
-0.16205,2.9028,-3.8834,7.8649,-0.02138,0.014355,-0.0051924
-0.15442,2.8635,-4.0207,7.8061,-0.018326,0.015577,-0.0058032
-0.14862,2.7851,-3.8638,7.9042,-0.014355,0.019548,-0.0061087
-0.14777,2.9224,-3.7265,7.8061,-0.025351,0.01741,-0.0079412
-0.1423,2.8047,-3.8246,7.8453,-0.026573,0.014355,-0.009163
-0.13464,2.687,-3.8442,7.7865,-0.020769,0.012217,-0.010385
-0.12363,2.7655,-3.8638,7.708,-0.020769,0.013439,-0.0097738
-0.11148,2.8635,-4.0207,7.8649,-0.021075,0.016188,-0.0082467
-0.1091,2.8635,-3.8442,7.8649,-0.023518,0.013744,-0.0064141
-0.10233,2.8047,-3.8246,7.7865,-0.028405,0.011912,-0.0048869
-0.091217,2.9028,-4.0403,7.8061,-0.022907,0.010996,-0.0051924
-0.077332,2.6282,-3.7069,7.9434,-0.012523,0.0079412,-0.0079412
-0.08902,2.9028,-3.8442,7.9434,-0.0061087,0.014355,-0.0082467
-0.087189,2.7655,-3.8638,7.7669,-0.0067195,0.021686,-0.0088575
-0.074738,2.9028,-3.7854,7.8649,-0.011301,0.022297,-0.0067195
-0.07959,2.9028,-3.7658,7.8649,-0.019242,0.018326,-0.0061087
-0.085693,2.6282,-3.7265,7.9238,-0.026573,0.014661,-0.0061087
-0.094879,2.6478,-3.8638,7.9434,-0.028711,0.012523,-0.0051924
-0.098145,2.9224,-4.0207,7.8649,-0.026267,0.012523,-0.0073304
-0.099518,2.8047,-3.8638,7.8061,-0.021686,0.01741,-0.0051924
-0.11505,2.5497,-3.7658,7.9434,-0.01741,0.017715,-0.0097738
-0.11243,2.6478,-3.7069,7.7865,-0.017104,0.015882,-0.0085521
-0.12741,2.9224,-3.8638,7.8649,-0.017104,0.01741,-0.0082467
-0.13089,2.9028,-4.0207,7.8061,-0.016493,0.01741,-0.01069
-0.13458,2.9224,-3.8442,7.9434,-0.015577,0.016188,-0.010385
-0.13754,2.6282,-3.7658,7.9434,-0.01741,0.015882,-0.0079412
-0.14932,2.7655,-3.8246,7.8453,-0.019242,0.013744,-0.0045815
-0.14209,2.7851,-3.8442,7.8453,-0.02138,0.013439,-0.0039706
-0.12756,2.7655,-3.8638,7.9238,-0.015882,0.013439,-0.0085521
-0.12994,2.9224,-4.0796,7.9042,-0.011606,0.014661,-0.0082467
-0.11551,2.942,-3.8246,7.8649,-0.014966,0.015577,-0.007025
-0.12405,2.4909,-3.8246,7.963,-0.019853,0.013744,-0.0082467
-0.12094,2.7851,-3.6285,7.9042,-0.025656,0.01405,-0.0067195
-0.12231,2.589,-3.6873,7.9434,-0.025656,0.015882,-0.0048869
-0.13196,2.942,-3.9227,7.7669,-0.014355,0.014661,-0.013439
-0.14264,2.9616,-4.0796,7.6296,-0.016493,0.011912,-0.015272
-0.12125,2.942,-3.8638,7.7473,-0.018326,0.014966,-0.0051924
-0.11871,2.9224,-3.7658,7.8453,-0.024435,0.017715,-0.0085521
-0.10907,2.6478,-3.7069,7.8649,-0.025962,0.017715,-0.0085521
-0.090973,2.7851,-3.8442,7.8649,-0.023518,0.016493,-0.0088575
-0.07901,2.9224,-3.8638,7.8649,-0.018326,0.013134,-0.0088575
-0.061432,2.7459,-3.9423,7.6884,-0.012523,0.012523,-0.0094684
-0.029968,2.8635,-3.7658,7.8061,-0.012828,0.016493,-0.0064141
-0.021759,2.7459,-3.9423,7.9042,-0.019853,0.018326,-0.0061087
-0.0067139,2.9224,-4.0207,7.8061,-0.025962,0.017715,-0.014355
0.026978,2.8635,-3.7658,7.7865,-0.025656,0.016188,-0.013134
0.05658,2.687,-3.9423,7.9434,-0.015882,0.013744,-0.013439
0.075287,2.9224,-3.8246,7.8649,-0.0054978,0.012828,-0.012828
0.1044,2.6282,-3.8442,7.8649,-0.016493,0.015882,-0.012828
0.12646,2.7459,-3.8638,7.7865,-0.010385,0.018937,-0.0088575
0.14923,2.8635,-3.8442,7.8453,-0.0079412,0.019242,-0.0054978
0.16196,2.8635,-3.8638,7.8061,-0.013439,0.018631,-0.0045815
0.1868,2.8635,-3.7854,7.8649,-0.02138,0.016493,-0.0067195
0.19919,2.8635,-3.7658,7.9434,-0.022907,0.011606,-0.0054978
0.21042,2.7851,-3.8246,7.7865,-0.021686,0.009163,-0.0033598
0.21948,2.7851,-3.8638,7.8649,-0.017104,0.0088575,-0.002138
0.23087,2.9224,-4.0796,7.7865,-0.0009163,0.0094684,-0.0030543
0.23825,2.8439,-3.8442,7.7865,-0.0045815,0.010996,-0.0054978
0.24457,2.8047,-3.8638,7.7865,-0.012217,0.015882,-0.0088575
0.26645,2.7851,-4.0992,8.0611,-0.021991,0.015882,-0.0097738
0.28839,2.7851,-3.8442,7.9434,-0.028405,0.012523,-0.0015272
0.29858,2.8635,-3.8442,7.8453,-0.026573,0.011912,-0.0015272
0.29962,2.8047,-3.6873,7.8649,-0.02138,0.015272,-0.0048869
0.3056,2.6478,-3.7658,7.9434,-0.015272,0.016493,-0.0061087
0.29468,2.6282,-3.8638,7.8649,-0.010996,0.017715,-0.0064141
0.2894,2.9224,-4.0207,7.6884,-0.011301,0.019242,-0.0082467
0.28253,2.687,-3.8246,7.6884,-0.016493,0.016799,-0.0082467
0.28064,2.8635,-3.8638,7.8649,-0.022907,0.010996,-0.0064141
0.27362,2.8439,-3.7658,7.8649,-0.028405,0.012217,-0.010385
0.27148,2.8635,-3.8246,7.7865,-0.027489,0.011606,-0.0088575
0.26312,2.7459,-3.8638,7.7865,-0.020769,0.011912,-0.0082467
0.26044,2.7066,-3.9227,7.9042,-0.013744,0.014355,-0.0088575
0.25024,2.7655,-3.9227,7.7669,-0.01069,0.015882,-0.0067195
0.24399,2.7851,-3.7658,7.7865,-0.0094684,0.018326,-0.0067195
0.23755,2.9224,-3.8638,7.7865,-0.015272,0.020769,-0.010996
0.22403,2.7459,-3.8834,7.9238,-0.018937,0.022907,-0.0085521
0.22232,2.7655,-3.8834,7.6884,-0.019242,0.019242,-0.0076358
0.22769,2.8047,-3.7265,7.7865,-0.019853,0.015272,-0.0079412
0.24533,2.9224,-3.8834,7.7865,-0.019853,0.013439,-0.0079412
0.2706,2.7851,-3.8246,7.8649,-0.021991,0.012828,-0.0082467
0.30334,2.7459,-3.7658,7.8649,-0.022602,0.012523,-0.0082467
0.32169,2.687,-3.8638,7.708,-0.022297,0.013134,-0.01069
0.34286,2.7655,-3.9423,7.6884,-0.034514,0.011912,-0.0018326
0.3569,2.687,-3.8246,7.8061,-0.030849,0.016188,-0.002138
0.37518,2.8635,-3.8442,7.8453,-0.024435,0.016799,-0.0030543
0.37265,2.687,-3.9227,7.9434,-0.020769,0.016493,-0.0030543
0.39532,2.7655,-3.8638,7.7865,-0.017104,0.015272,-0.0027489
0.39896,2.687,-3.8442,7.9238,-0.013134,0.014355,-0.0033598
0.41742,2.7851,-3.8638,7.7473,-0.0088575,0.016188,-0.0033598
0.42517,2.8635,-3.8442,7.8649,-0.009163,0.015882,-0.0036652
0.43063,2.942,-3.7658,7.8649,0.055894,0.072693,0.016188
0.44946,2.7851,-3.7658,7.7865,0.036957,0.073915,0.020769
0.47751,2.8047,-3.9227,7.8453,0.014355,0.06689,-0.043677
0.49893,2.7851,-3.8834,7.708,-0.009163,0.055894,-0.032681
0.51001,2.687,-3.8442,7.7865,-0.037874,0.042455,-0.026878
0.5311,2.8635,-3.9423,7.8649,-0.06689,0.029322,-0.025656
0.53271,2.8439,-3.8638,7.9238,0.060476,0.015272,-0.018631
0.53146,2.7851,-4.0011,7.6884,0.065973,-0.0033598,-0.00030543
0.54022,2.8635,-3.8638,7.8061,-0.11668,-0.025351,0.030238
0.51144,2.7851,-3.7658,7.8649,-0.10873,-0.041233,0.012523
0.51669,2.7459,-3.8638,7.7865,-0.09499,-0.046426,0.018326
0.51791,2.7655,-3.8638,7.6296,-0.078496,-0.045204,0.016799
0.51138,2.7851,-3.8638,7.7865,-0.072388,-0.033292,0.016799
0.50211,2.687,-3.9423,7.7669,-0.10079,-0.013744,0.012523
0.48718,2.8047,-4.06,7.61,-0.093768,-0.0027489,0.015882
0.4809,2.7851,-3.9423,7.6884,-0.11515,-0.017104,0.026267
0.47162,2.8047,-3.9815,7.7669,-0.022297,0.0064141,-0.01741
0.46729,2.9224,-3.8638,7.7669,-0.021991,0.0067195,-0.019853
0.45218,2.8635,-3.6873,7.8453,-0.015882,0.01405,-0.015272
0.44217,2.8635,-3.7069,7.9238,-0.01069,0.019242,-0.013134
0.41745,2.7851,-3.6285,8.0807,-0.0082467,0.019242,-0.011912
0.39279,2.687,-3.6285,8.0807,0.024435,0.041539,0.0015272
0.36719,2.6086,-3.4519,7.9434,0.0027489,0.030238,0.0088575
0.34686,2.6478,-3.6677,8.0807,-0.025962,0.016188,-0.012217
0.31454,2.6086,-3.8638,8.0807,0.021075,0.030849,-0.04948
0.27917,2.9616,-3.9423,7.8061,0.030238,0.040012,-0.054978
0.25418,2.8635,-3.8638,7.708,0.03879,0.042455,-0.023213
0.22836,2.687,-3.8638,7.9042,0.045815,0.047647,-0.029322
0.21341,2.9224,-4.1972,7.8649,0.054978,0.060476,-0.036652
0.21487,2.8047,-4.1384,7.6884,0.062003,0.068722,-0.036346
0.20856,2.7851,-4.0207,7.7865,0.065668,0.073609,-0.035125
0.22751,2.7851,-3.6677,7.9434,0.059559,0.072388,-0.041539
0.24368,2.687,-3.7069,7.8845,-0.032376,0.013134,-0.017104
0.27945,2.6086,-4.158,7.8453,-0.046426,0.0058032,-0.017104
0.28415,2.9224,-3.8834,7.7473,-0.050396,0.0009163,-0.021991
0.30759,2.6282,-4.0796,7.9238,-0.043066,-0.0030543,-0.019548
0.3017,2.7851,-3.8638,8.0022,-0.03207,-0.0042761,-0.018326
0.25485,2.6478,-3.6285,7.7865,-0.02138,-0.0009163,-0.01741
0.151,2.687,-3.6285,7.708,-0.012828,0.0033598,-0.018631
-0.010284,2.6478,-3.4519,7.8649,-0.011912,0.0064141,-0.019548
-0.16528,2.9224,-4.158,7.7865,-0.021075,0.0067195,-0.013744
-0.34839,2.942,-4.413,7.2961,-0.04215,0.0067195,-0.010996
-0.51276,2.8635,-4.158,7.6492,-0.061697,-0.0009163,-0.018021
-0.65207,2.6282,-3.6873,8.0611,-0.067195,-0.0082467,-0.01741
-0.7594,2.432,-3.3931,8.0807,-0.057727,-0.0082467,-0.020769
-0.84296,2.7851,-3.6677,7.9434,-0.038179,-0.0030543,-0.020769
-0.88834,2.7851,-4.0796,7.6884,-0.015882,0.0067195,-0.019548
-0.87726,2.7851,-4.2561,7.5511,-0.0024435,0.01741,-0.01741
-0.84698,2.9224,-4.1972,7.6884,-0.19426,-0.073304,-0.040317
-0.79663,2.8635,-3.7658,7.7865,-0.2025,-0.082467,-0.03543
-0.7233,2.9028,-3.7658,7.8649,-0.14752,-0.069944,-0.020464
-0.64545,2.7851,-3.8246,7.9434,-0.055283,-0.03879,-0.025656
-0.58289,2.7851,-3.9423,7.7865,0.029932,-0.0018326,-0.036041
-0.50739,2.9224,-3.9423,7.7865,0.069028,0.022602,-0.039706
-0.45242,2.7655,-3.7658,7.8453,0.066279,0.03207,-0.032681
-0.39609,2.7066,-3.9227,7.9042,0.032681,0.027184,-0.036346
-0.32596,2.8635,-3.8638,7.8649,-0.042455,0.01741,-0.022297
-0.28647,2.9224,-4.0207,7.8649,-0.074831,0.0048869,-0.021686
-0.24762,2.9224,-3.9227,7.8061,-0.083383,-0.0061087,-0.031765
-0.20108,2.9028,-3.8246,7.8649,-0.07025,-0.010079,-0.033903
-0.17633,2.9028,-4.0207,7.6884,-0.045204,-0.0082467,-0.032681
-0.13614,2.7851,-3.9227,7.6884,-0.019242,-0.0009163,-0.031154
-0.11423,2.9616,-4.0796,7.6296,-0.0064141,0.009163,-0.029322
-0.090302,3.0597,-3.8638,7.6884,-0.013134,0.016493,-0.024435
-0.081085,2.7851,-3.8638,7.7865,-0.016188,0.010385,-0.010996
-0.056793,2.687,-3.9423,7.7865,-0.0048869,0.010079,-0.023213
-0.038605,2.8047,-3.9423,7.7865,0.013439,0.01069,-0.0079412
-0.013672,2.8439,-3.8834,7.7865,0.031765,0.015272,-0.009163
0.0028076,2.7655,-3.9815,7.7865,0.039401,0.023213,-0.0067195
0.0082092,2.6086,-3.9227,7.8649,0.025351,0.031765,-0.0027489
0.032532,2.9224,-3.9423,7.7473,-0.025656,0.036346,0.00030543
0.038239,2.7851,-3.8834,7.7473,-0.022297,0.030849,-0.0018326
0.053375,2.8047,-3.9815,7.7865,-0.0082467,0.022297,-0.0079412
0.098907,2.9224,-3.9423,7.8061,-0.014355,0.015577,-0.0082467
0.12018,2.9224,-3.8638,7.8453,-0.02138,0.011606,-0.0073304
0.15839,2.687,-3.9423,7.8061,-0.024435,0.010385,-0.0048869
0.1879,2.7851,-3.9815,7.8649,-0.027489,0.010996,-0.0051924
0.21707,2.5497,-3.9227,7.9238,-0.025962,0.013744,-0.0058032
0.23898,2.7655,-4.0011,7.6884,-0.022907,0.014355,-0.0051924
0.25677,2.9224,-3.8834,7.8061,-0.019548,0.016493,-0.0061087
0.28183,2.942,-3.9227,7.7865,-0.01741,0.020159,-0.01069
0.30502,2.9224,-3.8834,7.7669,-0.021686,0.023824,-0.0097738
0.31845,2.6086,-3.8442,7.8649,-0.026267,0.020464,-0.0064141
0.32675,2.9224,-3.9815,7.8061,-0.027489,0.016188,-0.0058032
0.32788,2.9224,-3.9423,7.7669,-0.025656,0.012828,-0.0073304
0.34491,2.9224,-4.158,7.7669,-0.022907,0.012217,-0.0067195
0.35358,2.7851,-4.0011,7.8453,-0.018326,0.013439,-0.0076358
0.3504,2.942,-3.8638,7.8453,-0.018326,0.016799,-0.010079
0.35712,2.6478,-3.8638,7.8649,-0.014661,0.01741,-0.0039706
0.34976,2.8635,-3.8638,7.7865,-0.015272,0.01405,-0.0058032
0.35623,2.9224,-3.9815,7.7865,-0.019853,0.014661,-0.0085521
0.3555,2.7459,-4.0207,7.7473,-0.023518,0.015272,-0.0082467
0.34354,2.9224,-4.0207,7.6884,-0.025045,0.015577,-0.0082467
0.33182,2.8635,-4.0011,7.8649,-0.025045,0.016188,-0.0088575
0.31888,3.0008,-3.9423,7.8649,-0.018021,0.012828,-0.0061087
0.30124,2.8635,-4.0796,7.5903,-0.016493,0.012217,-0.0042761
0.29263,2.5497,-4.0011,7.6296,-0.061697,-0.0024435,0.0085521
0.2858,2.8439,-4.0796,8.0807,-0.077274,-0.012523,0.0061087
0.28973,3.0597,-3.8246,7.7865,-0.085827,-0.021075,0.019242
0.27814,2.9028,-3.8638,7.708,-0.089797,-0.028405,0.017715
0.27884,2.4909,-3.8246,7.9042,-0.087354,-0.034208,0.017104
0.26346,2.8047,-3.9423,7.9434,-0.073915,-0.030543,0.018021
0.25165,2.9028,-3.7658,7.9434,-0.05284,-0.020464,0.013134
0.24115,2.7851,-3.6873,7.9434,-0.026573,-0.0051924,0.0094684
0.22693,2.8439,-3.8442,7.8649,-0.0042761,0.0085521,-0.01741
0.2218,2.8047,-3.7658,7.7865,0.0024435,0.012217,-0.018021
0.20447,2.7655,-3.7854,7.7473,-0.0061087,0.012217,0.0045815
0.19427,2.7851,-3.8442,7.963,-0.01741,0.012523,-0.0015272
0.19077,2.8635,-3.8638,7.9042,-0.020464,0.014966,-0.01069
0.17642,2.9224,-4.0207,7.8453,-0.014661,0.015272,-0.012828
0.15585,2.8047,-4.0796,7.6296,-0.012217,0.014661,-0.0085521
0.14688,3.0008,-4.0207,7.61,-0.016493,0.015882,-0.0094684
0.1297,2.8047,-4.0011,7.7473,-0.024435,0.022907,-0.012217
0.12262,2.9616,-3.8638,7.7669,-0.032376,0.030849,-0.0088575
0.12204,2.9224,-3.8638,7.7865,-0.044899,0.030543,-0.013439
0.11093,2.8635,-3.9423,7.7473,-0.056505,0.024435,-0.0067195
0.10736,2.8047,-3.8834,7.6884,-0.058032,0.022602,-0.0039706
0.11801,2.8635,-3.8442,7.8649,-0.048869,0.021686,-0.0045815
0.11844,2.687,-3.8246,7.7865,-0.032376,0.026573,-0.0058032
0.09729,2.7851,-4.0207,7.7865,-0.0027489,0.039706,-0.010385
0.078339,2.9028,-4.0403,7.5511,0.032681,0.0562,-0.10721
0.026642,2.687,-3.8246,7.8061,0.032376,0.075136,-0.14722
-0.05542,2.687,-3.6285,7.9238,-0.048258,0.088881,0.0051924
-0.18997,2.8047,-3.9227,7.6492,-0.17746,0.08094,0.025962
-0.37698,2.9224,-4.668,7.2373,-0.29841,0.050702,0.014661
-0.59775,3.0989,-5.0798,7.2961,-0.35094,0.016493,-0.024435
-0.8158,2.7851,-4.1776,7.7865,-0.25534,-0.018326,-0.047953
-0.99756,2.7851,-3.2558,8.2768,0.026267,-0.020464,-0.066279
-0.99997,2.6086,-2.6086,8.2572,-0.9896,-0.13622,0.0097738
-0.99997,2.7655,-3.1381,7.9042,-1.3693,-0.21411,-0.048869
-0.99997,2.8635,-4.0207,7.5511,-1.8647,-0.31185,-0.0082467
-0.99997,2.8635,-4.0796,8.0022,-2.3876,-0.41447,0.0024435
-0.99997,2.7851,-3.3931,8.316,-2.8356,-0.55283,0.053145
-0.99997,2.5497,-2.2948,8.4926,-3.1942,-0.73854,0.10629
-0.99997,1.824,-2.2751,8.8064,-3.4144,-0.91416,0.11698
-0.99997,2.2948,-2.9224,8.8652,-3.448,-1.0321,0.076664
-0.87903,2.9028,-3.2362,8.4926,-2.5895,-1.0663,0.19456
-0.5574,2.7851,-4.0011,7.5511,-2.1707,-1.0012,0.17562
-0.14633,2.9224,-4.3345,7.0608,-1.9013,-0.82711,-0.050702
0.28549,3.2558,-4.4718,7.3746,-1.8573,-0.60323,0.010079
0.72223,2.9028,-4.4718,7.5903,-1.9823,-0.42486,0.098655
0.99512,3.0597,-3.9815,7.8061,-2.2193,-0.36072,0.18143
1,2.7655,-4.0011,8.8456,-3.3216,-0.40012,0.23396
1,2.5497,-3.3735,8.7083,-3.0268,-0.47281,0.23488
1,2.2359,-2.0986,8.1787,-3.6875,-0.56841,-0.32437
1,2.0594,-2.5693,7.2961,-4.182,-0.67348,-0.10232
1,2.6478,-4.8249,5.9821,-4.2431,-0.71868,0.19853
1,3.4127,-7.4727,5.0406,-3.9282,-0.76786,0.21441
1,4.1776,-8.5514,4.5111,-3.5641,-0.91813,0.16646
1,3.8442,-7.2961,5.1191,-3.3002,-0.86712,-0.26481
1,3.1774,-5.7271,5.3937,-2.6063,-0.75839,-0.90255
1,3.0008,-5.5113,5.4525,-3.1108,-0.67898,-0.75564
1,3.2362,-5.4133,4.2365,-3.8875,-0.60537,-0.52198
1,2.6282,-9.8066,2.2163,-3.0846,-0.51924,-0.48197
0.95886,5.2956,-8.1591,1.7848,-2.9691,-0.43097,-0.054672
0.74445,4.3345,-8.7083,1.8829,-2.9096,-0.37721,-0.096822
0.53571,3.7854,-8.7083,1.0983,-3.0091,-0.35766,-0.21869
0.34943,3.8442,-8.4141,0.64724,-3.1463,-0.30849,-0.40623
0.18802,4.1972,-6.1782,0.25497,-3.2055,-0.27061,-0.5623
0.08493,3.903,-4.8249,0.72569,-3.4419,-0.30635,-0.58063
0.012543,3.8638,-3.8638,0.37265,7.9718,1.1011,-0.35308
-0.022339,3.1774,-6.845,-2.2359,9.1297,1.3436,-0.31185
-0.047058,5.9232,-8.4141,-3.6088,9.8407,1.584,-0.042761
-0.090881,4.3149,-7.3354,-3.1381,10.006,1.7178,-0.16249
-0.15735,4.0403,-7.0804,-3.2754,10.007,1.8754,-0.31429
-0.1973,4.2757,-7.5315,-3.3343,10.007,2.2538,-0.44135
-0.23352,4.4326,-6.7666,-2.9812,10.007,2.5885,-0.49847
-0.2514,4.1972,-6.492,-2.4909,9.834,2.7898,-0.45571
-0.2901,4.1776,-6.4528,-2.589,8.8023,2.7978,-0.13683
-0.31854,4.1972,-6.8647,-2.8832,6.9791,2.6368,-0.19792
-0.34015,4.5699,-7.0804,-3.2754,5.0225,2.3723,-0.50305
-0.35184,4.7464,-7.0216,-2.9812,3.0626,1.9624,-0.75869
-0.34296,4.5699,-6.5312,-2.5693,1.1628,1.314,-0.70799
-0.32193,4.3345,-6.1193,-1.9613,-0.40287,0.52168,-0.36469
-0.30008,4.4718,-6.8058,-2.4909,-1.5046,-0.18173,-0.1066
-0.30017,4.668,-8.571,-3.1185,-2.1393,-0.67714,-0.073609
-0.3248,4.9818,-9.179,-3.1774,-2.3662,-0.92516,-0.1909
-0.39285,4.7268,-9.4732,-3.2166,-2.3637,-0.97616,-0.12309
-0.49323,4.7268,-9.5321,-3.6088,-2.255,-0.93157,-0.19609
-0.63828,4.5699,-7.708,-2.7066,-2.1038,-0.80298,-0.16218
-0.80038,4.4326,-3.8638,-0.92183,-2.022,-0.6295,-0.22022
-0.93964,3.8834,-0.05884,2.3144,-2.1536,-0.489,-0.31093
-0.99997,1.9221,2.4124,7.0216,-2.5702,-0.43127,-0.31215
-0.99997,1.2945,5.5506,10.12,-3.2321,-0.4777,-0.24862
-0.99997,0.27459,5.021,12.396,1.372,0.38301,0.055283
-0.99997,1.2356,2.0202,12.925,1.358,0.36896,0.025045
-0.99997,3.4127,-1.8437,10.689,1.4905,0.39034,-0.05284
-0.99997,4.5307,-4.8641,9.434,1.8696,0.45418,-0.053451
-0.99997,4.5699,-5.4133,8.9044,2.5195,0.55375,-0.04215
-0.99997,3.903,-3.55,8.7475,3.3811,0.67501,-0.0097738
-0.99997,3.2362,-1.1768,9.2771,4.4385,0.79901,0.026878
-0.99997,2.2948,0.23536,8.8848,5.7085,0.9218,0.052229
-0.99997,2.2948,0.13729,7.708,0.26756,-0.12492,-0.023213
-0.99997,2.9224,-0.54917,5.4133,0.30604,-0.12248,-0.019242
-0.99997,3.9423,-1.8437,1.9809,0.41233,-0.11912,-0.12828
-0.88412,4.5111,-4.0207,-1.8633,0.54886,-0.11179,-0.10446
-0.68237,5.374,-6.0409,-4.3738,0.67959,-0.1014,-0.082772
-0.47198,5.4329,-7.3942,-5.7271,0.78985,-0.09499,-0.058948
-0.28802,5.8448,-9.6301,-6.0213,0.35277,-0.091324,-0.036957
-0.12091,5.3544,-10.12,-5.276,0.29474,-0.080023,-0.024435
0.0055237,4.7464,-9.3555,-4.8053,1.2367,-0.059254,0.064752
0.075806,4.6876,-8.1591,-4.2365,1.5244,-0.023824,0.043982
0.13824,4.4914,-6.3743,-3.8246,1.9737,0.032681,-0.0058032
0.16068,4.8053,-4.9818,-3.3343,2.5943,0.10354,0.011912
0.19189,4.8053,-3.8442,-2.7262,3.2529,0.18937,0.029322
0.19601,4.9426,-3.8638,-2.3928,3.8738,0.2926,0.040928
0.17468,4.9426,-4.3934,-2.7262,0.89431,0.38362,0.051618
0.13428,4.7856,-5.1975,-3.197,1.0372,0.46151,0.06689
0.094238,4.9426,-5.4329,-3.6088,0.92913,-0.12828,-0.26084
0.031189,5.1387,-5.6486,-3.805,0.69364,-0.15119,-0.25351
-0.045227,5.3544,-5.6486,-4.0207,0.42302,-0.17807,-0.3882
-0.1123,5.1583,-5.3937,-3.8638,0.15394,-0.21319,-0.34819
-0.16208,4.9622,-4.8837,-3.3931,-0.086743,-0.25351,-0.31154
-0.21329,5.1191,-4.668,-3.2362,-0.24862,-0.28466,-0.28863
-0.2547,4.9622,-5.1191,-3.3539,-0.33323,-0.30268,-0.28008
-0.29126,5.0995,-5.7467,-3.4519,-0.35888,-0.31246,-0.27031
-0.32544,4.9622,-5.8644,-3.6088,-0.32009,-0.30665,-0.16463
-0.37531,5.1975,-5.8252,-3.7069,-0.21747,-0.28344,-0.14936
-0.42346,5.2171,-5.9624,-3.8246,-0.067806,-0.24862,-0.23732
-0.48456,5.2956,-6.7666,-4.1384,0.1127,-0.21105,-0.21594
-0.54715,5.374,-8.1591,-4.06,0.27214,-0.17685,-0.19456
-0.59784,5.5898,-8.1591,-3.5108,0.37996,-0.15088,-0.17776
-0.64163,5.374,-6.9039,-2.8635,0.42333,-0.13439,-0.16982
-0.7092,4.9622,-6.1193,-2.0398,0.40378,-0.12828,-0.16952
-0.79401,4.9033,-5.6486,-1.7064,0.13958,0.20433,0.053451
-0.90918,4.9622,-5.7467,-0.2942,0.1237,0.16799,0.053451
-0.99997,5.0995,-4.9622,1.5102,0.1631,0.18631,0.099266
-0.99997,4.9818,-4.4522,3.3931,0.25229,0.2251,0.067501
-0.99997,4.3738,-4.6287,5.0798,0.3372,0.2587,0.064446
-0.99997,4.4326,-5.021,6.0409,0.37965,0.28008,0.065973
-0.99997,4.5699,-4.3934,6.2174,0.39492,0.28527,0.053756
-0.99997,4.2757,-3.7658,6.237,0.40195,0.27733,0.048564
-0.99997,4.1972,-3.7265,6.1193,0.91385,0.21502,0.18906
-0.99997,4.4326,-4.0796,6.237,0.76358,0.19059,0.18509
-0.99997,4.5111,-4.8641,6.6685,0.61484,0.15791,0.2025
-0.99997,4.3149,-4.9818,6.9235,0.47922,0.12553,0.22144
-0.99997,4.1188,-4.8837,7.0019,0.39737,0.087659,0.23457
-0.99997,4.3345,-5.1975,6.5116,0.38118,0.069639,0.23824
-0.99997,4.3542,-5.0798,6.139,0.42211,0.092241,0.22052
-0.99997,4.1972,-4.8249,6.1193,0.49266,0.13042,0.19639
