-0.060913,1.3533,2.7459,9.434,-0.058032,0.043982,0.02138
-0.052368,1.2749,2.6478,9.2771,-0.024129,0.047342,0.012217
-0.051422,1.3533,2.7262,9.3359,-0.038485,0.052229,0.05284
-0.057465,1.2945,2.7066,9.2575,-0.052534,0.057116,0.048258
-0.063477,1.1964,2.7459,9.3555,-0.066584,0.05681,0.047647
-0.072906,1.4318,2.7066,9.179,-0.071777,0.053145,0.043371
-0.068817,1.4514,2.6478,9.2771,-0.071166,0.044899,0.036346
-0.0802,1.5298,2.6478,9.434,-0.065363,0.034514,0.029016
-0.088318,1.4318,2.5693,9.2575,-0.054062,0.027184,-0.024129
-0.092529,1.3533,2.5693,9.3359,-0.051924,0.018937,-0.024129
-0.093842,1.2945,2.5497,9.3359,-0.04612,0.012217,0.0018326
-0.11362,1.3925,2.589,9.434,-0.047953,0.0094684,-0.0082467
-0.11392,1.5102,2.4124,9.434,-0.04948,0.0064141,-0.016188
-0.10455,1.3729,2.4517,9.434,-0.048869,0.0039706,-0.022602
-0.094391,1.4514,2.4909,9.434,-0.048564,0.0030543,-0.024435
-0.084412,1.2945,2.4517,9.434,-0.049175,0.0030543,-0.023824
-0.092072,1.4514,2.5693,9.434,-0.04612,0.0033598,0.012828
-0.10181,1.5298,2.5497,9.434,-0.061697,-0.0027489,0.016799
-0.11041,1.3925,2.6282,9.3752,-0.069028,-0.0045815,-0.021991
-0.11639,1.2945,2.6478,9.5125,-0.072388,-0.0061087,-0.018326
-0.10794,1.3729,2.6086,9.434,-0.068111,-0.009163,-0.011606
-0.10739,1.2749,2.6086,9.5321,-0.062003,-0.012523,-0.002138
-0.10031,1.3533,2.6478,9.3752,-0.053145,-0.016799,0.0027489
-0.1022,1.216,2.7066,9.5713,-0.047037,-0.020464,0.0073304
-0.10016,1.3533,2.7459,9.4928,-0.01405,-0.02138,0.0058032
-0.094177,1.3533,2.7459,9.3359,-0.044899,-0.025045,-0.00061087
-0.10617,1.4318,2.5105,9.3163,-0.043677,-0.029627,0.020464
-0.12344,1.1964,2.6086,9.3359,-0.044593,-0.030849,0.019853
-0.1265,1.5102,2.589,9.2771,-0.037874,-0.027184,0.014661
-0.13446,1.3533,2.6086,9.3359,-0.027794,-0.022602,0.012217
-0.14145,1.2945,2.6478,9.3359,-0.019242,-0.01405,0.011912
-0.13724,1.1964,2.589,9.434,-0.011912,-0.0045815,0.01069
-0.13312,1.3533,2.5693,9.2771,-0.00061087,0.026267,0.016799
-0.1257,1.1964,2.6086,9.3555,-0.014966,0.029322,0.013439
-0.12482,1.5298,2.5693,9.2575,-0.031765,0.028405,0.012523
-0.12698,1.3533,2.589,9.3359,-0.039095,0.025351,0.013744
-0.11411,1.4318,2.5497,9.3555,-0.034208,0.02138,0.011606
-0.10287,1.4318,2.5105,9.3555,-0.019853,0.017715,0.0085521
-0.085846,1.2945,2.3928,9.3555,-0.0039706,0.013439,0.011912
-0.084106,1.3729,2.5105,9.3359,0.0048869,0.011301,0.01741
-0.079132,1.3533,2.6478,9.4144,-0.012217,0.0082467,0.0076358
-0.085205,1.2945,2.5497,9.3555,-0.016493,0.0079412,0.0058032
-0.091339,1.4906,2.3928,9.3163,-0.023518,0.010385,0.011606
-0.081268,1.4906,2.4124,9.3555,-0.029627,0.012828,0.012523
-0.1091,1.2945,2.5105,9.434,-0.029322,0.019853,0.011301
-0.088959,1.5298,2.5497,9.4144,-0.022602,0.026573,0.0097738
-0.088074,1.4318,2.589,9.4144,-0.0064141,0.026878,0.011606
-0.09549,1.3337,2.5105,9.3555,-0.010996,0.022602,0.010996
-0.10635,1.3925,2.3928,9.434,0.002138,0.015882,0.012828
-0.10706,1.2749,2.4124,9.4732,0.0012217,0.01069,0.012217
-0.10992,1.4318,2.4517,9.434,-0.0012217,0.01069,0.0079412
-0.10696,1.2749,2.5497,9.3555,-0.0067195,0.017104,0.0067195
-0.108,1.2945,2.589,9.2771,-0.01741,0.024435,0.0042761
-0.11246,1.3533,2.589,9.3359,-0.02474,0.029322,0.0094684
-0.10098,1.3925,2.5497,9.3752,-0.01405,0.033292,0.010079
-0.11249,1.1964,2.589,9.3555,-0.0033598,0.03207,0.012828
-0.11038,1.3533,2.6086,9.3359,0.0039706,0.028711,0.025351
-0.092224,1.3533,2.6478,9.434,0.01069,0.026267,0.030543
-0.08194,1.2945,2.6086,9.3555,0.011301,0.026267,0.013134
-0.072693,1.1964,2.6086,9.3359,0.0030543,0.03207,0.013134
-0.060364,1.2356,2.5693,9.3359,-0.0054978,0.040012,0.01405
-0.05777,1.4318,2.589,9.434,-0.015577,0.045815,0.017104
-0.062286,1.4318,2.589,9.3359,-0.020769,0.048869,0.016493
-0.05481,1.118,2.6478,9.5125,-0.0085521,0.05284,0.019242
-0.044769,1.2356,2.6674,9.3555,0.0033598,-0.0094684,0.047647
-0.01123,1.118,2.4909,9.5125,0.0039706,-0.010079,0.050396
-0.010681,1.3533,2.5693,9.4732,-0.00061087,-0.011606,0.081856
0.0015564,1.2356,2.589,9.5321,-0.0036652,-0.012217,0.073304
-0.0040283,1.2356,2.6478,9.3359,0.00030543,-0.012523,0.065668
-0.005249,1.2945,2.589,9.3359,0.0015272,-0.013744,0.062614
0.0005188,1.3533,2.6086,9.434,0.0009163,-0.012523,0.059254
-0.0099487,1.2945,2.7262,9.4732,0.0079412,-0.009163,0.052534
-0.0013428,1.1964,2.7459,9.4732,0.017715,-0.0054978,0.095906
0.0069275,1.2945,2.589,9.434,0.021686,0.00030543,0.10018
0.011047,1.3533,2.589,9.3555,0.023518,0.00030543,0.057727
0.0068054,1.3729,2.6674,9.3555,0.020464,0.0015272,0.064141
-0.0013733,1.3533,2.7262,9.3752,0.0079412,0.0079412,0.069028
-0.0021362,1.2945,2.8243,9.3752,-0.0097738,0.01405,0.074526
-0.0014038,1.2945,2.6674,9.434,-0.022907,0.019242,0.080329
-0.0039978,1.2945,2.6086,9.3359,-0.032681,0.023518,0.088881
0.0039978,1.2749,2.589,9.3359,-0.03879,0.025351,0.072998
-0.00048828,1.2945,2.5693,9.2771,-0.040317,0.023213,0.059559
-0.0057373,1.4514,2.589,9.3359,-0.039095,0.023213,0.10629
-0.0069885,1.4906,2.5105,9.1986,-0.040012,0.023518,0.11026
-0.0098572,1.1768,2.4909,9.2575,-0.041233,0.022907,0.10843
-0.0026855,1.5495,2.334,9.2575,-0.039401,0.022297,0.10018
0.0019226,1.3533,2.334,9.1202,-0.037874,0.024435,0.091019
-0.0041504,1.4318,2.3928,9.1594,-0.040317,0.024435,0.083994
-0.01236,1.4318,2.334,9.179,0.0024435,0.0048869,0.079107
-0.015594,1.5887,2.334,9.2575,-0.047342,0.0024435,0.083078
-0.019897,1.5298,2.2751,9.3359,-0.06017,0.0009163,0.054672
-0.019073,1.3729,2.2751,9.2575,-0.062308,0.00030543,0.056505
-0.036224,1.3533,2.2751,9.434,-0.051313,0.00030543,0.060476
-0.035004,1.6475,2.1967,9.434,-0.03543,-0.0030543,0.065973
-0.050446,1.3533,2.2359,9.3752,-0.018631,-0.0079412,0.073304
-0.023376,1.5298,2.2751,9.2575,-0.0033598,-0.0094684,0.075442
-0.016968,1.3925,2.2751,9.3752,0.014661,0.016188,-0.029932
-0.0083618,1.6671,2.2948,9.3555,0.012217,0.014966,-0.027794
0.0042419,1.3533,2.3928,9.434,0,0.017104,-0.026878
0.008606,1.5298,2.2751,9.3359,-0.014355,0.021991,-0.025045
-0.0050049,1.4318,2.2555,9.4144,-0.02474,0.0281,-0.022907
-0.011963,1.5298,2.2751,9.434,-0.022602,0.03146,-0.021686
-0.020813,1.5102,2.2751,9.3359,-0.002138,0.03146,-0.021686
-0.023102,1.5298,2.2555,9.3555,0.0088575,0.029932,-0.025656
-0.036682,1.5298,2.1967,9.3359,0.014355,0.026878,-0.016493
-0.041412,1.5887,2.1967,9.434,0.016188,0.025045,-0.015272
-0.035614,1.4514,2.3928,9.5125,0.0036652,0.025962,-0.025962
-0.04834,1.4514,2.334,9.6301,-0.011606,0.026573,-0.024435
-0.045868,1.4318,2.1967,9.4928,-0.027489,0.027489,-0.020769
-0.055939,1.5102,2.4124,9.434,-0.035736,0.031154,-0.019548
-0.059052,1.5298,2.432,9.4732,-0.011606,0.032376,-0.018631
-0.066925,1.3533,2.5105,9.4144,0.0018326,0.03146,-0.018021
-0.072906,1.2356,2.5105,9.4732,-0.029932,0.018937,-0.037263
-0.056396,1.4906,2.432,9.434,-0.057116,0.011912,-0.034208
-0.058075,1.5298,2.4124,9.4928,-0.051313,0.0076358,-0.019853
-0.050812,1.4318,2.4909,9.4928,-0.037874,0.0042761,-0.0281
-0.055023,1.4318,2.4124,9.4732,-0.027184,0.0054978,-0.033598
-0.061493,1.3533,2.4124,9.2771,-0.023518,0.0067195,-0.036346
-0.06543,1.5102,2.4124,9.3163,-0.02474,0.0094684,-0.041233
-0.075073,1.3729,2.5693,9.4144,-0.026267,0.014966,-0.041233
-0.076416,1.3337,2.432,9.3359,-0.027489,0.017715,-0.026573
-0.078033,1.5102,2.334,9.3752,-0.022297,0.02138,-0.028405
-0.082092,1.4906,2.2359,9.3359,-0.021686,0.02138,-0.034514
-0.086975,1.2945,2.4517,9.3359,-0.02138,0.021686,-0.033292
-0.092163,1.2945,2.4517,9.3359,-0.015272,0.024129,-0.030849
-0.10629,1.4318,2.334,9.4732,-0.010996,0.025045,-0.029322
-0.10345,1.4906,2.2359,9.3555,-0.031154,0.023213,-0.026878
-0.10544,1.4906,2.4124,9.434,-0.029932,0.018937,-0.025962
-0.08255,1.4318,2.334,9.3163,-0.032376,0.04215,-0.022297
-0.070007,1.3337,2.2751,9.5713,-0.025656,0.043371,-0.018326
-0.068512,1.1964,2.4124,9.4928,-0.028405,0.049175,-0.0076358
-0.064148,1.3729,2.4517,9.434,-0.049786,0.053451,-0.0058032
-0.074677,1.3337,2.5105,9.3752,-0.085216,0.055894,-0.0024435
-0.071533,1.216,2.5105,9.434,-0.11057,0.059865,-0.0073304
-0.059052,1.2356,2.5693,9.3752,-0.11668,0.065363,-0.017715
-0.060547,1.2356,2.5105,9.3359,-0.10843,0.069944,-0.021686
-0.054962,1.1964,2.5105,9.4732,-0.010385,0.032987,0.010996
-0.062744,1.2945,2.4909,9.3359,-0.027794,0.032376,0.017104
-0.075592,1.216,2.5497,9.434,-0.03543,0.03146,-0.002138
-0.082214,1.4318,2.5693,9.434,-0.039095,0.029016,-0.0051924
-0.083405,1.3533,2.5105,9.4732,-0.036041,0.026878,-0.0054978
-0.078979,1.3729,2.432,9.5125,-0.028405,0.026267,-0.0030543
-0.079895,1.4318,2.432,9.4732,-0.014966,0.025045,0.0015272
-0.1127,1.4906,2.5105,9.5125,-0.009163,0.023518,0.0058032
-0.093506,1.3533,2.5497,9.4732,-0.014355,0.02474,0.025351
-0.085449,1.3533,2.3928,9.3555,-0.025656,0.025045,0.027794
-0.089203,1.118,2.4517,9.4732,-0.036041,0.025045,0.019548
-0.098511,1.3729,2.4124,9.3359,-0.040317,0.023213,0.020464
-0.087769,1.3337,2.5105,9.3752,-0.038179,0.018021,0.021686
-0.094604,1.3337,2.4517,9.3359,-0.029627,0.013744,0.021991
-0.083405,1.216,2.4124,9.3359,-0.018326,0.012828,0.023213
-0.08017,1.2945,2.334,9.2771,-0.009163,0.017104,0.023824
-0.089508,1.0787,2.3536,9.4732,-0.010996,0.025045,-0.0042761
-0.099792,1.3337,2.5497,9.3359,-0.023518,0.033903,-0.0073304
-0.098145,1.1768,2.6086,9.3752,-0.044288,0.037568,0.026878
-0.089661,1.3337,2.334,9.3359,-0.06353,0.040928,0.025656
-0.079071,1.3533,2.4124,9.3555,-0.073915,0.041539,0.02138
-0.079468,1.3533,2.334,9.3163,-0.071777,0.040928,0.013134
-0.091522,1.1768,2.4517,9.3359,-0.060781,0.040012,0.0039706
-0.087341,1.1768,2.5497,9.3555,-0.046731,0.040623,-0.0018326
-0.0867,1.0787,2.5105,9.5125,-0.03543,0.040928,0.092546
-0.081055,1.216,2.4909,9.4732,-0.037568,0.039706,0.080329
-0.062653,1.2356,2.5105,9.434,-0.041844,0.041539,0.10843
-0.059448,1.1768,2.5105,9.3359,-0.047037,0.04612,0.1127
-0.066071,1.0395,2.5105,9.4144,-0.054367,0.047953,0.11576
-0.067657,1.118,2.5693,9.434,-0.059254,0.050702,0.11301
-0.069977,1.0199,2.7262,9.5321,-0.031765,0.051924,0.10996
-0.083862,1.216,2.6086,9.5713,-0.034819,0.051313,0.10293
-0.076447,1.0591,2.5497,9.5321,0.11423,0.047647,0.035125
-0.086914,1.216,2.5497,9.5909,0.0082467,0.031154,0.019548
-0.078796,1.0591,2.6282,9.6694,0.018631,0.012523,0.094379
-0.074982,0.98067,2.7459,9.6694,0.032987,-0.002138,0.08827
-0.074982,0.96105,2.8243,9.8263,0.054978,-0.011301,0.07758
-0.075958,1.0199,2.8047,9.787,0.081551,-0.020769,0.067195
-0.076935,0.98067,2.589,9.5713,0.10537,-0.027489,0.058948
-0.086304,1.118,2.3928,9.3555,0.11698,-0.030238,0.049175
-0.083679,0.90221,2.1967,9.2575,0.07086,-0.03207,-0.019853
-0.076385,1.2945,2.1182,9.0417,0.051313,-0.029016,-0.007025
-0.062439,1.118,2.1182,8.8652,0.041233,-0.021991,0.0024435
-0.061951,1.2945,2.1182,8.9437,0.044899,-0.015882,-0.0094684
-0.052124,1.1768,2.0202,8.8652,0.055589,-0.015577,-0.018631
-0.039886,1.3925,1.8633,9.0417,0.065973,-0.01741,-0.027794
-0.04776,1.1376,2.0398,9.179,0.10599,-0.015272,-0.033598
-0.049652,1.3533,2.1771,9.2575,0.089186,-0.012828,-0.029932
-0.05838,1.4906,2.1378,9.2575,0.028405,-0.010385,0.092241
-0.052368,1.5298,2.0986,9.3163,0.0085521,-0.0082467,0.10324
-0.04892,1.1768,2.1771,9.4928,-0.0067195,0.00030543,0.0015272
-0.058533,1.3533,2.0202,9.434,-0.017715,0.011606,0.012217
-0.052399,1.1964,2.1182,9.5321,-0.024129,0.022602,0.026267
-0.0578,1.216,2.0986,9.5125,-0.027794,0.029932,0.044288
-0.056671,1.1964,2.1182,9.5321,0.065973,0.035736,0.062003
-0.038818,1.3533,2.079,9.5713,0.051007,0.040012,0.078496
-0.031311,1.0395,2.1967,9.6694,0.0018326,-0.015882,-0.019853
-0.0041809,0.80415,2.1771,9.8066,0.0094684,-0.017104,-0.016799
0.0098267,1.3337,2.2948,9.6497,0.014355,-0.01405,-0.033903
0.014984,1.0787,2.3536,9.6497,0.01741,-0.011912,-0.034514
0.02063,1.2749,2.3928,9.6497,0.021991,-0.0094684,-0.033903
0.026917,1.118,2.5105,9.689,0.025656,-0.0061087,-0.029932
0.053406,1.118,2.4124,9.5321,0.019242,-0.00061087,-0.024435
0.050934,1.118,2.4517,9.5125,0.0088575,0.0030543,-0.022907
0.044189,1.216,2.4124,9.434,-0.0033598,0.007025,-0.017104
0.035156,1.0395,2.5105,9.4928,-0.007025,0.014966,-0.014966
0.017853,1.2945,2.4909,9.434,-0.0048869,0.017104,-0.017104
0.019135,1.1964,2.5105,9.3359,-0.0079412,0.014661,-0.017715
0.011566,1.1376,2.334,9.3752,-0.016493,0.010385,-0.015577
0.0059814,1.3337,2.2555,9.2575,-0.021686,0.007025,-0.014355
-0.0047607,1.3337,2.2751,9.2575,-0.023518,0.0051924,-0.013744
0.0024109,1.1768,2.4124,9.3359,-0.026878,0.0048869,-0.017715
0.0070801,1.0395,2.4124,9.3752,-0.032987,0.0079412,-0.026878
0.026886,1.1768,2.334,9.3359,-0.040928,0.010996,-0.027489
0.035187,1.2945,2.334,9.3359,-0.047342,0.007025,-0.015577
0.051819,1.216,2.334,9.434,-0.049786,0.0058032,-0.018631
0.06781,1.118,2.3536,9.2575,-0.053145,0.0061087,-0.02138
0.07959,1.2945,2.3536,9.4928,-0.053145,0.0067195,-0.019548
0.062561,1.1964,2.4124,9.3359,-0.053145,0.0067195,-0.019242
0.049713,1.0395,2.4124,9.3359,-0.053451,0.0094684,-0.023518
0.040649,1.1964,2.4124,9.434,-0.054062,0.013744,-0.038179
0.015045,1.0787,2.4124,9.5125,-0.058643,0.01405,-0.042455
0.01123,1.0395,2.589,9.434,-0.064752,0.017104,-0.0281
-0.014587,1.118,2.6478,9.4732,-0.068417,0.020769,-0.029627
-0.033447,1.216,2.5105,9.3359,-0.064446,0.022297,-0.03207
-0.059235,1.0395,2.432,9.2575,-0.049786,0.020464,-0.034208
-0.077637,1.1376,2.5497,9.3359,-0.031765,0.016493,-0.034208
-0.082123,1.1768,2.5693,9.3555,-0.017715,0.012217,-0.03543
-0.0914,1.0787,2.589,9.3555,-0.00061087,0.014355,0.022297
-0.084259,1.0787,2.589,9.4144,0.012523,0.01405,0.022297
-0.081909,1.1376,2.5105,9.4144,0.015577,0.016493,0.0073304
-0.083771,1.118,2.4517,9.3752,0.0051924,0.021686,0.013744
-0.092651,1.0395,2.5105,9.434,-0.012828,0.030238,0.01741
-0.10364,1.3337,2.5105,9.4144,-0.024435,0.036346,0.020159
-0.1199,1.216,2.5693,9.4732,-0.027184,0.040928,0.023824
-0.11395,1.3533,2.334,9.434,-0.016493,0.043982,0.023213
-0.10233,1.0591,2.4124,9.5125,-0.0039706,0.043677,0.010385
-0.10504,1.2356,2.432,9.5713,0.012828,0.038179,0.0009163
-0.097687,0.90221,2.589,9.6497,0.020769,0.033292,0.021991
-0.10049,1.0787,2.5497,9.5125,0.01069,0.030543,0.018326
-0.11066,1.1964,2.5693,9.3359,-0.011301,0.036041,0.016799
-0.090302,1.2356,2.6086,9.2575,-0.039401,0.04612,0.018021
-0.070251,1.2356,2.7262,9.3555,-0.024129,0.055283,0.016799
-0.075348,1.216,2.589,9.3359,-0.015577,0.062003,0.015272
-0.079315,1.1964,2.589,9.3359,-0.055894,0.061087,0.010079
-0.057129,1.1964,2.5105,9.2575,-0.03207,0.057421,0.011606
-0.071075,0.98067,2.6086,9.4928,-0.013744,0.050396,-0.0064141
-0.070984,1.1964,2.5497,9.434,-0.0030543,0.044899,-0.010079
-0.06546,0.90221,2.5693,9.434,0.0024435,0.045509,-0.0097738
-0.066406,1.118,2.3928,9.3752,0.00030543,0.047037,-0.0030543
-0.073822,1.118,2.432,9.4732,-0.061087,0.050702,0.0033598
-0.086823,1.1768,2.7066,9.5125,-0.067806,0.054672,0.0064141
-0.084381,0.8826,2.7459,9.6497,-0.028711,-0.0061087,0
-0.10135,1.0395,2.589,9.4928,-0.028405,-0.0094684,0.0030543
-0.10089,0.92183,2.6086,9.434,-0.034208,-0.0082467,-0.023518
-0.094421,1.0395,2.7066,9.434,-0.019548,0.00030543,-0.029322
-0.099304,1.0395,2.7655,9.4928,0.0036652,0.0054978,-0.0281
-0.093964,0.98067,2.8635,9.4928,0.0094684,0.0073304,-0.015272
-0.09375,0.90221,2.8243,9.4144,-0.0045815,0.011301,-0.007025
-0.095123,0.98067,2.7459,9.3555,-0.020769,0.014355,-0.0039706
-0.092072,0.90221,2.7459,9.434,-0.048869,0.080634,0.21502
-0.075287,0.98067,2.6478,9.6301,-0.091324,0.087048,0.21502
-0.05957,0.96105,2.8243,9.5125,-0.12737,0.087048,0.22083
-0.046051,0.92183,2.7459,9.5125,-0.14478,0.081245,0.21319
-0.052124,0.86299,2.589,9.3752,-0.13622,0.071471,0.20708
-0.057159,0.74531,2.6478,9.3752,-0.10812,0.064752,0.20556
-0.039368,0.90221,2.7655,9.434,-0.08094,0.060781,0.20983
-0.056885,0.74531,2.8832,9.6301,-0.064446,0.055283,0.21472
-0.050262,0.80415,3.0597,9.5125,-0.059254,0.050702,0.18601
-0.051636,0.68647,3.1185,9.5125,-0.068417,0.048258,0.17013
-0.059906,0.86299,2.8832,9.2575,-0.094073,0.045204,0.21716
-0.065704,0.92183,2.7066,9.434,-0.11515,0.043677,0.21594
-0.062866,1.0395,2.6478,9.4928,-0.12187,0.04612,0.208
-0.061157,0.90221,3.0204,9.6497,-0.12217,0.052534,0.2022
-0.039154,0.80415,2.8832,9.5125,-0.11973,0.057421,0.19853
-0.02124,0.56879,2.5105,9.5125,-0.11484,0.0562,0.19456
-0.020844,0.86299,2.1771,9.3359,-0.10721,0.051007,0.069639
-0.0067139,0.92183,2.2751,9.434,-0.099266,0.043677,0.063225
-0.016479,1.0395,2.4124,9.4732,-0.095906,0.034819,0.15149
-0.0057678,1.0395,2.5105,9.5125,-0.10629,0.026267,0.13683
0.0047607,0.80415,2.2359,9.4732,-0.12034,0.018937,0.12431
0.012024,0.76492,2.1182,9.4144,-0.12065,0.011912,0.10843
0.012787,0.8826,2.0986,9.434,-0.10415,0.0033598,0.091019
0.0057678,1.0787,2.2751,9.434,-0.087354,-0.0067195,0.079412
0.0089417,1.0787,2.334,9.3359,-0.090103,0.093768,0.23732
0.011749,0.74531,2.1771,9.434,-0.11668,0.086132,0.22938
0.024261,1.0199,1.9613,9.3359,-0.1124,0.080023,0.23396
0.024536,0.96105,1.8044,9.434,-0.082467,0.071471,0.22999
0.029816,0.8826,1.8044,9.434,-0.036346,0.064446,0.2251
0.042114,0.90221,1.9809,9.4928,0.002138,0.063225,0.22571
0.058167,1.0395,1.9417,9.5321,0.0097738,0.067195,0.23091
0.074951,0.70608,1.9417,9.4732,-0.012217,0.073915,0.23702
0.10516,1.118,1.9809,9.3359,0.0015272,-0.017715,0.07758
0.14447,1.2749,1.9417,9.3163,-0.007025,-0.0088575,0.069028
0.17743,1.216,2.1182,9.434,-0.019548,0.0039706,0.072388
0.20456,1.0395,2.1182,9.5713,-0.028711,0.01741,0.07758
0.2254,1.216,1.9613,9.5713,-0.046731,0.028711,0.076358
0.25223,1.118,1.9809,9.5713,-0.068722,0.037263,0.073304
0.2666,1.2945,1.9613,9.689,-0.0036652,0.043066,0.07422
0.29819,1.1964,2.079,9.5713,0.0033598,0.049175,0.079107
0.30902,1.1964,2.2359,9.5125,-0.060476,0.06017,0.034514
0.3259,1.2945,2.1967,9.4928,-0.059559,0.064752,0.024129
0.31784,1.3337,2.1182,9.4144,-0.055894,0.058643,0.068111
0.33102,1.118,2.1967,9.2575,-0.049175,0.051618,0.073609
0.33594,1.0395,2.1967,9.2575,-0.040928,0.043677,0.069333
0.33627,1.2945,2.1967,9.3359,-0.040928,0.03207,0.057421
0.34494,1.3533,2.2948,9.2575,-0.072388,0.022602,0.047647
0.34348,1.2749,2.2751,9.179,-0.065973,0.020159,0.041233
0.33505,1.1964,2.2751,9.1202,-0.032987,-0.10446,0.086437
0.3244,0.98067,2.1967,9.2183,-0.032681,-0.10018,0.088575
0.30341,1.2749,2.1182,9.1202,-0.039401,-0.091935,0.070555
0.29898,1.3337,2.0986,9.179,-0.048258,-0.083383,0.068111
0.28928,1.2749,2.1967,9.1986,-0.051313,-0.079718,0.068417
0.2688,1.1964,2.1182,9.1594,-0.054978,-0.075747,0.069639
0.25507,1.0787,1.9613,9.179,-0.051618,-0.072082,0.072693
0.22375,1.1964,1.9809,9.2575,-0.043677,-0.067501,0.079718
0.20767,1.1964,1.9417,9.3555,-0.022602,-0.062614,0.065973
0.20193,1.3533,2.0202,9.4732,-0.018937,-0.051007,0.067501
0.1944,1.216,1.8829,9.5125,-0.021686,-0.040317,0.08491
0.17761,1.1964,1.8829,9.5713,-0.027794,-0.029322,0.083078
0.15732,1.216,1.9417,9.5125,-0.02474,-0.021075,0.081551
0.1485,1.1964,1.9221,9.5125,-0.014661,-0.016188,0.077274
0.12469,1.118,1.9417,9.5321,-0.027794,-0.015577,0.07086
0.11996,1.2749,1.9417,9.434,-0.025962,-0.018937,0.066584
0.10794,1.0787,1.9417,9.5713,0.011301,0.040623,-0.096211
0.11862,1.1376,1.7848,9.6497,0.025045,0.040623,-0.1066
0.098969,1.3729,1.8044,9.434,0.039706,0.036041,-0.07086
0.0802,1.3533,1.8829,9.5713,0.042761,0.029932,-0.079107
0.075012,1.4906,1.8829,9.6497,0.034514,0.02474,-0.089492
0.047241,1.1964,1.7848,9.5321,0.02474,0.021686,-0.093768
0.020386,1.2749,1.7652,9.5713,0.02138,0.014661,-0.095295
0.0082397,0.96105,1.8829,9.5125,0.021991,0.0036652,-0.093462
-0.014282,1.1964,1.8829,9.5125,-0.036346,0.016188,-0.052229
-0.02066,1.3533,1.7848,9.5321,-0.055894,0.017104,-0.057116
-0.033875,1.2749,1.7848,9.5125,-0.05284,0.016493,-0.054367
-0.035431,1.0395,1.8829,9.4732,-0.051007,0.018021,-0.058338
-0.051727,1.0395,2.0202,9.5125,-0.051313,0.022907,-0.059559
-0.059875,0.92183,2.0202,9.6301,-0.050702,0.029016,-0.057421
-0.052338,1.118,1.9809,9.5125,-0.04612,0.034819,-0.053145
-0.041718,1.0395,1.9221,9.6694,-0.040012,0.037874,-0.051313
-0.031219,1.1964,2.0202,9.6301,-0.036957,0.037568,-0.085521
-0.025696,1.0199,1.9417,9.6301,-0.038179,0.033903,-0.085216
-0.024658,1.216,1.9417,9.6497,-0.034514,0.029016,-0.07025
-0.025604,1.0199,2.0202,9.787,-0.026267,0.0281,-0.08491
-0.015411,0.92183,2.0202,9.6694,-0.017715,0.031154,-0.091324
-0.022339,1.0395,2.0986,9.6694,-0.011912,0.035125,-0.091935
-0.014282,1.1964,2.079,9.6694,-0.011301,0.035736,-0.090103
-0.036407,1.118,1.9221,9.787,-0.011912,0.029016,-0.088575
-0.050537,1.0787,1.9417,9.787,-0.0085521,0.019548,-0.073609
-0.065918,1.2356,1.7848,9.8066,0,0.012217,-0.07025
-0.077393,1.216,1.8044,9.9439,0.0009163,0.011912,-0.085827
-0.082916,0.90221,1.9221,10.12,-0.0039706,0.016799,-0.085827
-0.09433,1.1964,1.9417,10.12,-0.007025,0.025351,-0.084299
-0.10687,0.92183,1.9417,9.9636,-0.0067195,0.034819,-0.083078
-0.12122,0.8826,1.9417,9.7478,-0.0036652,0.040928,-0.079718
-0.1246,1.1964,1.9417,9.8066,-0.00030543,0.042455,-0.076664
-0.10968,1.2356,1.9613,9.8066,-0.015272,-0.048869,-0.3824
-0.09137,0.98067,2.079,9.8851,-0.007025,-0.050091,-0.40439
-0.094421,0.8826,2.079,9.8066,0.078802,-0.043066,-0.32284
-0.09433,1.1964,1.9613,10.12,0.1576,-0.021686,-0.32895
-0.096252,1.2945,1.6279,10.062,0.20097,0.0073304,-0.33903
-0.08847,0.80415,1.6671,10.062,0.20311,0.029322,-0.34453
-0.070587,0.86299,1.6279,9.8263,0.16157,0.028711,-0.34667
-0.066467,0.92183,1.6671,9.8459,0.079412,0.021686,-0.35949
-0.052338,1.5102,1.7848,10.16,0.14019,0.016799,-0.32345
-0.049805,1.1768,1.7848,10.219,-0.073915,0.010996,-0.33078
-0.036285,0.92183,1.6279,9.8459,-0.068111,0.010996,-0.41172
-0.026093,1.1768,1.4906,9.434,-0.010079,0.0097738,-0.41081
-0.0093689,1.3925,1.6279,9.434,0.069639,-0.0015272,-0.40897
-0.0083923,1.118,2.0986,9.7478,0.146,-0.011301,-0.40195
-0.00073242,0.74531,2.5693,9.8459,0.19303,-0.012217,-0.37629
-0.011414,0.80415,2.4124,9.787,0.19151,-0.0048869,-0.33964
-0.010223,0.90221,2.0202,9.6301,-0.027794,0.0018326,-0.38362
-0.014374,0.74531,1.9417,9.3555,-0.017715,0.0027489,-0.35919
-0.011169,0.8826,2.2359,9.5321,0.034208,0.0039706,-0.35613
-0.015717,0.80415,2.5105,9.6301,0.10476,-0.0036652,-0.38362
-0.004425,0.74531,2.4124,9.6694,0.17807,-0.024435,-0.40256
-0.015076,0.74531,2.0986,9.5713,0.24404,-0.052534,-0.41081
-0.0177,0.5884,1.8044,9.3752,0.083689,-0.083383,-0.40836
-0.031982,0.56879,1.8829,9.2183,0.013134,-0.10843,-0.40073
-0.031372,0.90221,2.079,9.2575,0.29169,-0.11606,-0.2923
-0.039581,0.90221,2.3928,9.5125,0.22571,-0.10385,-0.25717
-0.044708,0.56879,2.7066,9.5125,0.13592,-0.08827,-0.3375
-0.054565,0.72569,2.1967,9.3163,0.064141,-0.077274,-0.3094
-0.057159,0.66685,1.9417,9.179,0.051924,-0.082772,-0.28772
-0.068634,0.60801,2.1182,9.1986,0.096822,-0.097128,-0.29383
-0.064972,0.90221,2.4517,9.434,0.29138,-0.098349,-0.31337
-0.055817,0.64724,2.5497,9.1986,0.31032,-0.096822,-0.31429
-0.040588,0.60801,2.2751,9.0221,-0.03879,-0.019242,0.19364
-0.041992,0.49033,1.9221,8.9437,0.053756,0.01069,0.17013
-0.018707,0.90221,2.2555,9.0221,0.069028,0.046426,0.25779
-0.0058594,0.86299,2.4124,8.8652,0.10049,0.076358,0.26023
-0.015564,0.74531,2.5105,8.8064,0.11209,0.094073,0.25748
-0.016602,0.92183,2.4124,8.7475,0.087965,0.099266,0.24465
-0.006897,0.76492,2.5497,8.9044,0.044593,0.087659,0.22969
-0.016693,1.0199,2.6674,8.8064,-0.0067195,0.064752,0.21441
-0.012451,0.86299,2.8047,8.6299,-0.036652,0.040928,0.20525
-0.030853,0.92183,2.8243,8.5514,0.00030543,0.020464,0.20708
-0.02597,0.56879,3.0204,8.7279,0.055894,0.0082467,0.14936
-0.011353,0.49033,3.0401,8.8064,0.10843,0.013744,0.14172
0.012573,0.74531,3.0204,8.7868,0.14539,0.041539,0.15394
0.033325,0.70608,3.2362,8.7475,0.15882,0.078802,0.17654
0.045868,1.1964,3.0401,8.6299,0.13897,0.11454,0.19456
0.074677,1.4318,3.0401,8.8652,0.090103,0.1408,0.20189
0.086945,1.1964,3.4519,9.0417,0.020464,0.15852,0.057116
0.12057,1.4514,3.55,8.8848,-0.042761,0.15455,0.039401
0.13684,1.3533,3.5892,8.8652,-0.072693,0.13134,0.19975
0.14468,1.8044,3.4519,8.6299,-0.06017,0.10843,0.1799
0.16446,2.0594,3.55,8.7475,-0.011301,0.090103,0.15119
0.16702,2.3732,3.8442,9.179,0.062614,0.076053,0.12095
0.18631,2.0594,4.1776,9.434,0.13561,0.048258,0.095295
0.21155,2.0202,4.2953,9.434,0.18937,0.0079412,0.075136
0.24603,1.9613,3.9227,9.434,0.21838,-0.033903,-0.026267
0.26163,2.1575,3.6481,9.5125,0.22938,-0.074831,-0.019548
0.27252,2.2359,3.8246,9.5125,0.22755,-0.11637,0.016493
0.28333,2.2948,3.9815,9.3359,0.21441,-0.15027,-0.0048869
0.29608,2.4909,3.903,9.1202,0.19609,-0.17349,-0.018937
0.32391,2.7851,4.158,9.0417,0.17196,-0.18784,-0.028405
0.31415,2.9028,4.1188,8.8652,0.13897,-0.19884,-0.033903
0.31531,2.8047,3.9227,8.7083,0.099876,-0.20861,-0.032376
0.34665,2.9224,3.8246,8.6887,-0.019548,-0.10232,-0.12889
0.36911,2.6282,3.6088,8.5514,-0.019548,-0.098655,-0.11698
0.3775,2.589,3.6677,8.7083,-0.00061087,-0.095906,-0.17287
0.39835,2.6086,3.5892,8.8652,0.025962,-0.092852,-0.17349
0.41046,2.5497,3.6481,9.0025,0.047953,-0.091019,-0.17074
0.41449,2.432,3.5892,9.0025,0.053756,-0.093157,-0.16524
0.40311,2.334,3.55,9.0025,0.03207,-0.0956,-0.15547
0.39337,2.3732,3.5108,9.0417,0.00030543,-0.097738,-0.14233
0.38361,2.1575,3.5304,9.0417,0.0064141,-0.10263,-0.08827
0.38025,1.9221,3.7069,9.0417,-0.0051924,-0.10996,-0.08491
0.35132,2.0006,3.8638,9.0417,-0.0079412,-0.11148,-0.10782
0.32983,1.9809,4.0011,9.1006,-0.0054978,-0.10904,-0.10354
0.30533,2.2359,3.903,8.9437,-0.0012217,-0.10873,-0.10446
0.26169,2.0006,3.903,8.8652,0.0082467,-0.1069,-0.10324
0.24377,2.1575,3.8442,8.9044,0.044593,-0.09896,-0.098044
0.2084,2.1182,3.8246,9.0613,0.025656,-0.087659,-0.094379
0.16858,1.9221,3.8442,9.1202,0.020769,-0.075442,-0.11698
0.13669,1.824,3.903,9.3163,0.023213,-0.065973,-0.11332
0.078583,1.9613,3.8246,9.1202,0.019853,-0.058032,-0.086132
0.049713,2.0006,3.5108,9.1202,0.016188,-0.053145,-0.088881
0.0041199,2.0594,3.5108,9.0417,0.011606,-0.048564,-0.09499
-0.037262,1.9221,3.5108,9.0613,0.0042761,-0.044899,-0.10232
-0.091522,2.0594,3.6088,9.0417,0.013744,-0.039706,-0.10996
-0.12762,1.9613,3.3735,8.8456,0.014661,-0.028711,-0.11484
-0.1871,2.0006,3.3735,8.8652,0.055283,-0.18051,-0.17746
-0.23953,2.0594,3.3931,8.8652,-0.015577,-0.16921,-0.17318
-0.28094,2.2163,3.4912,8.8456,-0.0076358,-0.16493,-0.27764
-0.29495,2.1771,3.5108,8.9437,0.014355,-0.15974,-0.26176
-0.30551,2.1575,3.5108,9.0221,0.040928,-0.14936,-0.23915
-0.30933,1.9613,3.55,9.1202,0.064752,-0.13561,-0.21747
-0.30304,2.4517,3.4519,9.0417,0.079107,-0.12339,-0.19975
-0.28049,2.2359,3.5108,9.0221,0.076664,-0.11179,-0.18662
-0.24231,2.4517,3.4519,9.0417,-0.036957,-0.010079,-0.041233
-0.17307,2.2751,3.3539,9.2575,-0.045204,-0.0085521,-0.042455
-0.14096,2.1182,3.3735,9.179,-0.059254,0,-0.027184
-0.087341,2.2359,3.3735,9.1202,-0.072388,0.0064141,-0.032681
-0.08194,2.4517,3.3931,9.0613,-0.076664,0.014355,-0.040012
-0.074982,2.3732,3.3343,9.0417,-0.07025,0.021686,-0.045204
-0.064148,2.3732,3.4323,9.0417,-0.060476,0.031765,-0.043371
-0.060822,2.2359,3.2754,9.0417,-0.048869,0.042761,-0.041233
-0.046112,2.3732,3.3343,9.1202,-0.043066,0.051618,-0.054367
-0.050537,2.1575,3.3735,9.1202,-0.043066,0.054062,-0.044899
-0.05304,2.4517,3.3735,9.1202,-0.043982,0.05284,-0.045815
-0.048035,2.4713,3.3735,9.1202,-0.051924,0.04948,-0.048869
-0.08197,2.0594,3.2754,9.179,-0.061087,0.043982,-0.051618
-0.04425,2.2751,3.197,9.0221,-0.060781,0.03879,-0.057116
-0.03302,2.1575,3.3539,9.179,-0.053451,0.035125,-0.058338
-0.033295,2.4517,3.5108,9.179,-0.04215,0.03543,-0.05681
-0.041992,2.2359,3.3931,9.2183,-0.04612,0.020464,-0.010079
-0.049408,2.334,3.4912,9.1006,-0.095906,0.027794,-0.012523
-0.052551,2.0202,3.3735,9.1594,-0.099876,0.023824,0.0061087
-0.049652,2.2359,3.2754,9.1202,-0.085216,0.016493,-0.0024435
-0.059937,2.0006,3.3931,9.2183,-0.061392,0.011301,-0.010079
-0.05368,2.3732,3.5108,9.1202,-0.037263,0.0082467,-0.014355
-0.055084,2.2948,3.5108,9.0417,-0.023213,0.0082467,-0.012828
-0.052307,2.334,3.4519,8.9437,-0.026573,0.0079412,-0.010996
-0.056458,2.2948,3.4519,9.0221,-0.06353,0.011606,-0.017104
-0.057892,2.2163,3.5108,9.0613,-0.084605,0.019242,-0.020159
-0.053864,2.1182,3.5892,9.0417,-0.10232,0.021686,-0.016188
-0.070374,2.1771,3.5304,9.1202,-0.10721,0.019853,-0.01405
-0.070557,2.2163,3.5108,9.0417,-0.10018,0.015882,-0.010385
-0.081818,2.0594,3.6481,9.1594,-0.081856,0.0097738,-0.0088575
-0.092194,2.1575,3.7069,9.1594,-0.060781,0.0015272,-0.011912
-0.099609,2.0006,3.5892,9.0221,-0.042455,-0.0058032,-0.015577
-0.092773,2.2751,3.3931,9.0417,-0.009163,0.021075,0.0033598
-0.082642,2.0594,3.5304,9.179,0.010079,0.021991,-0.0045815
-0.086182,2.1575,3.55,9.1986,0.011912,0.027489,-0.017715
-0.086121,2.2751,3.5892,9.1202,0.0027489,0.036346,-0.011301
-0.072021,2.0202,3.5108,9.1202,-0.009163,0.042455,0.00030543
-0.074829,2.079,3.4519,9.0417,-0.015882,0.047953,0.010385
-0.073669,2.1771,3.5108,9.1006,-0.054062,0.053756,0.012217
-0.0737,2.2948,3.5892,9.0417,-0.036652,0.061087,0.0085521
-0.079346,2.2948,3.5304,9.0417,0.052534,0.070555,-0.053756
-0.088013,2.3732,3.5304,9.1202,-0.0085521,0.08094,-0.059254
-0.082336,2.1575,3.4519,9.0417,0.0054978,0.09499,-0.009163
-0.079926,2.1378,3.4323,9.1202,0.012217,0.10996,-0.010385
-0.093262,1.9809,3.3735,9.1594,0.010079,0.12034,-0.013439
-0.10007,1.9221,3.4912,9.2183,0.0064141,0.13042,-0.022297
-0.10358,1.8633,3.5304,9.2183,0.010385,0.14569,-0.035736
-0.098846,1.9221,3.55,9.179,0.027489,0.16096,-0.047037
-0.083923,1.9613,3.5108,9.179,-0.042455,0.0094684,-0.039095
-0.08786,1.8437,3.5892,9.1986,-0.025656,0.002138,-0.033292
-0.093811,2.0594,3.5892,9.1202,-0.029932,0.0018326,-0.032376
-0.10718,1.9221,3.5108,9.0613,-0.03879,0.0018326,-0.036652
-0.10022,2.0006,3.5108,8.9437,-0.046731,0.00061087,-0.03879
-0.088074,2.0006,3.6677,9.0613,-0.054978,0.0009163,-0.03879
-0.081299,2.079,3.6677,8.9437,-0.059865,0.00030543,-0.038485
-0.080597,1.9221,3.5304,9.0417,-0.057421,-0.0018326,-0.039706
-0.076935,2.1182,3.4519,8.9044,0.01741,-0.0067195,-0.013439
-0.079742,2.0594,3.4519,8.8848,0.029627,-0.0085521,-0.018326
-0.079712,1.9809,3.6481,8.9437,0.022602,-0.011912,-0.029016
-0.078613,1.9221,3.4912,8.8848,-0.0012217,-0.011912,-0.026267
-0.064392,2.0006,3.4912,8.7868,-0.028405,-0.0048869,-0.017715
-0.056305,1.8633,3.5108,8.9044,-0.049175,0.0073304,-0.010996
-0.048279,1.9221,3.4912,8.8064,-0.026267,0.017104,-0.0076358
-0.055664,2.0594,3.3735,8.7279,-0.0036652,0.021075,-0.0076358
-0.051483,1.7456,3.3735,8.6299,0.5003,1.2058,-0.42211
-0.027496,1.6083,3.2754,8.6299,0.67226,1.1927,-0.42089
-0.021606,1.8437,3.2166,8.1591,0.759,1.1842,-0.44746
-0.014069,1.6867,3.1774,7.6884,0.73945,1.1561,-0.38362
-0.010986,1.824,2.9812,7.0019,0.6408,1.1051,-0.3146
-0.031158,2.0594,3.2166,6.747,0.51129,1.0605,-0.31826
-0.026642,2.079,3.6677,7.2961,0.40897,1.0241,-0.3766
-0.042389,1.6867,4.3934,7.9042,0.36499,0.98869,-0.4163
-0.047211,0.80415,4.5895,8.0022,0.58826,1.5968,-0.49297
-0.058655,0.74531,3.903,7.6296,0.55161,1.5977,-0.45326
-0.060181,0.33343,3.2754,7.4727,0.40684,1.6057,-0.41844
-0.070374,0.039227,3.197,7.3746,0.27794,1.6109,-0.47037
-0.076324,-0.21575,3.9815,8.2572,0.2361,1.6163,-0.51068
-0.09259,-0.90221,4.9229,8.7083,0.29535,1.624,-0.52687
-0.10211,-1.5298,5.1779,9.0025,0.41356,1.6295,-0.51465
-0.11285,-1.3925,4.6091,8.4141,0.52901,1.6319,-0.50335
-0.12579,-1.6475,4.2169,8.2768,0.59193,1.6231,-0.4609
-0.13422,-1.7652,4.4522,8.7083,0.551,1.5999,-0.42089
-0.14804,-2.2163,5.1583,9.3752,0.47434,1.5653,-0.42852
-0.16959,-2.4713,5.2564,9.1202,0.41875,1.5305,-0.45723
-0.15948,-2.5301,4.8445,8.4141,0.44013,1.4945,-0.49541
-0.16095,-2.3928,4.6287,8.0807,0.53512,1.4642,-0.50824
-0.15845,-2.7262,5.3348,8.7083,0.66645,1.4435,-0.5058
-0.1636,-3.3146,6.0605,9.0613,0.77183,1.4352,-0.48717
-0.16745,-3.4716,6.0605,8.9633,0.78832,1.4438,-0.48319
-0.15021,-3.6873,5.1779,8.316,0.71624,1.4444,-0.47373
-0.14581,-3.4323,4.5307,7.7865,0.56627,1.4172,-0.37202
-0.14136,-3.4127,4.7856,7.9434,0.3769,1.3854,-0.36041
-0.14368,-4.3542,6.0213,8.4141,0.22571,1.3583,-0.39798
-0.13864,-4.2757,6.2174,8.0807,0.16035,1.3216,-0.43768
-0.12405,-4.5111,5.8448,7.61,0.19395,1.2825,-0.46853
-0.1019,-4.5699,5.6486,7.3354,0.31826,1.2413,-0.48442
-0.075104,-4.6287,5.7075,7.3158,0.71563,1.274,-0.75533
-0.035461,-4.8445,5.9624,7.4334,0.89919,1.3396,-0.77122
-0.0092163,-5.2956,5.9624,7.2177,0.98807,1.4001,-0.69578
0.048889,-4.9229,5.5702,6.747,1.0455,1.441,-0.70219
0.11142,-5.0406,5.4917,6.6097,1.0522,1.4688,-0.68814
0.2222,-4.5895,5.6879,6.1978,1.0055,1.4914,-0.67042
0.30814,-4.9033,5.6486,5.5113,0.91752,1.5076,-0.67867
0.39209,-4.6091,5.6486,5.4525,0.8152,1.5113,-0.71593
0.46967,-4.8445,5.7271,5.1191,0.45845,1.504,-0.57727
0.53592,-5.0798,5.8448,4.8837,0.36713,1.4963,-0.56872
0.59167,-5.2956,5.7859,4.6091,0.281,1.4926,-0.75533
0.61502,-5.7075,5.6486,4.3149,0.1967,1.4923,-0.71349
0.63474,-5.7075,5.531,3.8246,0.10904,1.4978,-0.67684
0.63919,-6.1782,5.7075,3.7069,0.049175,1.5094,-0.66676
0.68271,-6.5508,6.3547,3.9815,0.64202,1.5146,-0.65454
0.71194,-6.9823,6.5116,3.9423,0.54825,1.5049,-0.61422
0.72455,-7.1196,6.5312,3.9227,0.040928,1.485,-0.52076
0.74582,-7.2961,6.5312,3.7265,0.047342,1.4636,-0.47189
0.75723,-7.2569,6.6489,3.6873,0.040012,1.43,-0.56291
0.7782,-7.2569,6.5901,3.4716,0.018326,1.39,-0.5507
0.80914,-7.4334,6.4135,3.2558,-0.0067195,1.3418,-0.5452
0.8504,-7.5903,6.1586,3.0597,-0.033598,1.2834,-0.53695
0.89496,-7.708,6.0409,3.0008,0.029322,1.223,-0.54123
0.94949,-8.0218,5.9624,2.9812,0.029322,1.1515,-0.54275
0.99594,-7.8845,6.0605,3.0597,-0.39523,1.0803,-0.1014
1,-7.7669,6.1782,2.942,-0.55039,1.0095,-0.041844
1,-7.6688,6.5116,3.0989,-0.67501,0.93462,-0.37629
1,-7.8061,6.3547,3.0597,-0.74251,0.85949,-0.29749
1,-7.6688,5.9428,2.9028,-0.75595,0.78496,-0.26603
1,-7.5903,5.374,2.5301,-0.73121,0.70769,-0.23121
1,-7.5119,5.2171,2.432,-0.10232,0.62827,-0.18906
1,-7.4334,5.374,2.3144,-0.23488,0.55528,-0.14966
1,-7.4923,5.3348,2.589,0.06353,0.14661,-0.05284
1,-7.9238,4.8445,2.432,-0.15119,0.12645,-0.053756
1,-7.4334,4.5307,2.3144,-0.074831,0.10904,-0.1066
1,-7.4531,4.2757,2.1378,0.010996,0.094379,-0.11942
1,-7.2569,4.4522,2.1378,0.086132,0.071777,-0.12462
1,-7.355,5.0995,2.2751,0.13164,0.044593,-0.10934
1,-7.2569,5.3937,2.3732,0.13897,0.025045,-0.080023
1,-7.1785,5.0602,2.3536,0.10843,0.01741,-0.057116
1,-7.2765,4.9033,2.1575,0.036957,0.014966,-0.0097738
1,-7.3942,4.8641,2.0398,0.022297,0.0027489,-0.018631
1,-7.4531,4.9229,2.1378,0.025656,-0.025656,-0.058032
1,-7.355,5.0995,2.0986,0.020769,-0.045204,-0.061697
1,-7.2569,5.0798,2.0398,0.0015272,-0.051618,-0.052229
1,-7.2569,4.9622,2.0398,-0.029627,-0.055894,-0.030238
1,-7.5707,4.8053,2.0398,-0.065057,-0.062003,-0.0048869
1,-7.7473,4.9229,2.0986,-0.092852,-0.069028,-0.00061087
1,-7.4923,4.9033,1.9809,-0.10507,-0.075747,0.019548
1,-7.1785,5.1191,1.9809,-0.093157,-0.080329,0.013439
1,-7.3354,5.4721,2.1378,-0.071166,-0.079107,-0.022297
1,-7.1981,5.5506,2.0594,-0.058338,-0.077274,-0.015882
1,-7.2961,5.3937,2.0006,-0.05681,-0.076969,0.0054978
1,-7.4531,5.3348,1.9809,-0.062919,-0.07758,0.028405
1,-7.1785,5.4917,1.9417,-0.072388,-0.07422,0.036346
1,-7.2569,5.3937,1.9613,-0.079718,-0.070555,0.029016
1,-7.2961,5.276,1.9613,-0.21564,0.16463,-0.096517
1,-7.2569,5.1583,1.824,-0.39095,0.17074,-0.10079
1,-7.2961,5.2171,1.9025,-0.405,0.17257,-0.0097738
1,-7.4138,5.1583,1.8437,-0.41844,0.17165,-0.015882
1,-7.1785,5.1583,1.8044,-0.41814,0.17165,-0.037874
1,-7.2569,5.0995,1.8437,-0.39676,0.17135,-0.06017
1,-7.7473,5.1191,2.0006,-0.34758,0.1689,-0.077274
1,-7.3354,5.0014,1.9809,-0.28039,0.16157,-0.088575
1,-7.4531,4.9622,1.9417,0.17287,-0.031154,-0.027794
1,-7.2569,4.8641,1.9025,0.17196,-0.023824,-0.037263
1,-7.2765,5.0602,1.9809,0.16402,-0.018937,-0.027794
1,-7.2373,5.021,1.9417,0.1576,-0.019242,-0.029016
1,-7.4334,5.021,1.9613,0.16921,-0.022297,-0.018021
1,-7.1785,4.8445,1.9417,0.20525,-0.023824,-0.014661
1,-7.2569,4.9229,1.9025,0.13806,-0.022602,-0.017104
1,-7.1392,5.0014,1.8044,0.15882,-0.023213,-0.01741
1,-7.4923,5.0995,1.9809,0.36713,-0.028405,-0.028711
1,-7.2569,4.9229,1.9417,0.40745,-0.039401,-0.042455
1,-7.5903,4.9426,1.9809,0.41966,-0.046426,-0.04215
1,-7.2373,5.0014,1.9025,0.40592,-0.050702,-0.041539
1,-7.3942,5.0995,1.9809,0.36805,-0.054367,-0.03207
0.96088,-7.4138,5.0995,1.9809,0.32254,-0.052229,-0.018021
0.90228,-7.4334,5.0995,1.9613,0.25504,-0.047953,-0.016493
0.83551,-7.4334,5.0798,1.9809,0.31124,-0.043982,-0.016493
0.7648,-7.2373,5.021,1.8437,0.2251,-0.037874,-0.051924
0.69781,-7.4334,4.9622,2.0006,0.20372,-0.030543,-0.050091
0.65482,-7.3942,5.0995,1.9809,0.18692,-0.023518,-0.043677
0.60052,-7.355,4.9622,1.9613,0.17471,-0.016188,-0.038485
0.54922,-7.4334,5.1191,2.0398,0.16157,-0.0085521,-0.040928
0.51926,-7.2373,5.1583,1.9613,0.13775,-0.0048869,-0.04948
0.48141,-7.1981,4.9426,1.9417,0.28405,-0.0042761,-0.054672
0.4682,-7.1785,4.9033,1.9809,0.25229,0.00030543,-0.054062
0.45084,-7.1785,4.9033,1.9809,0.12645,-0.060476,-0.012217
0.45508,-7.4334,5.0602,1.9613,0.067195,-0.057116,-0.018326
0.44696,-7.2373,5.0995,2.0594,0.051924,-0.054672,-0.015577
0.43356,-7.2765,5.2171,2.0986,0.048869,-0.050702,-0.01405
0.42554,-7.355,5.0995,1.9809,0.060781,-0.045204,-0.011606
0.41641,-7.4138,5.0602,2.1378,0.078496,-0.037263,-0.018021
0.41748,-7.2961,5.0995,2.0006,0.097738,-0.030849,-0.020464
0.41852,-7.2373,5.1583,2.0398,0.11545,-0.03207,-0.014966
0.43939,-7.1589,5.1583,2.0006,-0.040317,0.037263,-0.0067195
0.4707,-7.7473,5.2171,1.9809,-0.047342,0.040623,-0.0085521
0.48361,-7.1785,5.0995,1.9809,-0.051618,0.038179,-0.0094684
0.51724,-7.2765,4.9426,1.9025,-0.04948,0.036346,-0.010385
0.54013,-7.355,5.1583,2.0006,-0.044593,0.034819,-0.010996
0.58774,-7.2569,5.2171,1.9809,-0.043371,0.031154,-0.01069
0.63031,-7.355,5.276,2.0006,-0.045509,0.027794,-0.0082467
0.67563,-7.1785,5.0995,1.9417,-0.051007,0.02474,-0.0051924
0.70193,-7.355,5.021,1.9809,-0.05681,0.020769,-0.0094684
0.73013,-7.2569,4.9426,1.9025,-0.062308,0.017715,-0.0051924
0.78528,-7.2569,5.0995,2.0006,-0.059254,0.014661,-0.0094684
0.85458,-7.2961,5.1583,1.9613,-0.050396,0.013744,-0.012523
0.93805,-7.4334,5.1583,1.9613,-0.040012,0.014966,-0.013134
0.99973,-7.3942,5.0995,1.8437,-0.025045,0.012217,-0.010385
1,-7.355,5.0995,1.9025,-0.0085521,0.010385,-0.011606
1,-7.355,5.0995,1.9025,0.0042761,0.0085521,-0.013134
1,-7.1196,5.0602,1.8437,-0.059865,-0.015882,0.028405
1,-7.1196,5.021,1.824,-0.044899,-0.014661,0.028711
1,-7.2373,5.021,1.9417,-0.041844,-0.013744,0.027184
1,-7.4923,4.9229,2.0006,-0.043371,-0.011301,0.030849
1,-7.5511,5.0602,1.9417,-0.045204,-0.0039706,0.033598
1,-7.2569,5.0014,1.9809,-0.048564,0.0042761,0.031765
1,-7.2569,5.0995,2.0398,-0.053451,0.010385,0.029627
1,-7.1981,4.9229,1.9613,-0.057727,0.013134,0.028405
1,-7.4334,5.0798,2.1182,-0.032681,0.015577,0.0033598
1,-7.2569,5.021,1.9809,-0.059865,0.022907,-0.0051924
1,-7.3942,5.0014,2.0594,-0.053451,0.025656,0.025045
1,-7.1785,5.021,2.0006,-0.040012,0.026267,0.019242
1,-7.3942,5.021,2.0398,-0.027794,0.025351,0.018631
1,-7.3354,5.021,1.9809,-0.020769,0.02474,0.019242
1,-7.2569,5.0602,2.0006,-0.019548,0.027184,0.017715
1,-7.2569,5.0798,2.0006,-0.02474,0.031765,0.013439
1,-7.355,5.1583,2.0398,-0.0045815,0.0097738,0.0073304
1,-7.2961,5.0995,1.9809,0.015577,0.0045815,-0.0030543
1,-7.4923,5.0602,1.9809,0.025045,-0.002138,-0.0039706
1,-7.1785,4.9622,1.9025,0.019548,-0.0045815,0.00061087
0.94028,-7.355,5.0995,1.9417,0.0076358,-0.0030543,0.0085521
0.86057,-7.2569,5.0995,2.0006,-0.0082467,0.0036652,0.015272
0.75781,-7.5511,5.2368,2.1378,-0.031154,0.013134,0.016188
0.66864,-7.2569,5.0995,2.0398,-0.024129,0.01741,0.014966
0.57281,-7.5119,5.2564,2.1378,-0.032987,0.025045,0.018326
0.47833,-7.1785,5.0995,1.9613,-0.012217,0.02474,0.012828
0.38675,-7.2765,5.1583,1.9809,0.0012217,0.021075,0.00061087
0.29471,-7.1785,5.0995,1.9613,0.012828,0.017104,0.0030543
0.21072,-7.4334,5.0995,2.0398,0.015577,0.012828,0.010996
0.13776,-7.2569,5.0995,1.9025,0.007025,0.010385,0.018021
0.067047,-7.2569,5.0995,1.9809,-0.0079412,0.013134,0.021686
0.0041809,-7.5903,5.1583,2.0594,-0.024435,0.01741,0.022602
-0.036804,-7.3354,5.0995,2.0398,-0.036041,0.020159,0.0094684
-0.10016,-7.3942,5.021,1.9613,-0.03207,0.023213,0
-0.15491,-7.355,5.0995,2.0986,-0.025351,0.020159,0.0082467
-0.17737,-7.2569,5.0602,1.9809,-0.017715,0.019242,0.011912
-0.20035,-7.2765,5.0602,1.9613,-0.0097738,0.022297,0.016493
-0.22882,-7.355,4.9426,1.824,-0.0085521,0.023213,0.020769
-0.25223,-7.4531,5.0798,1.9025,-0.021075,0.022602,0.022602
-0.2756,-7.3942,5.1583,1.9809,-0.035125,0.023824,0.018631
-0.28119,-7.2569,5.2368,2.0398,0.019548,0.026573,-0.0012217
-0.27948,-7.2373,5.0602,1.8044,0.036041,0.024129,-0.0058032
-0.29987,-7.3354,4.9622,1.7848,0.040012,0.02138,-0.0061087
-0.30124,-7.1785,5.0995,1.9809,0.026573,0.017715,-0.0061087
-0.30743,-7.2569,5.0602,1.9025,0.0045815,0.01405,0.0033598
-0.30685,-7.4138,5.0995,1.9025,-0.018326,0.014355,0.013744
-0.30609,-7.1785,4.9229,1.9025,-0.026573,0.015577,0.015272
-0.2995,-7.2569,4.9229,1.9025,-0.0039706,0.01405,0.0073304
-0.26782,-7.2373,5.021,1.9809,0.023213,-0.0018326,0.0054978
-0.23853,-7.9826,5.0798,1.9809,-0.0051924,-0.0051924,0.016799
-0.2034,-7.2961,5.0602,1.9809,-0.011606,-0.0018326,0.015882
-0.17819,-7.4334,5.021,2.0398,-0.014661,0.0030543,0.010385
-0.15231,-7.2765,5.0995,2.0398,-0.011912,0.0064141,0.007025
-0.12418,-7.3942,5.276,2.0398,-0.0076358,0.0058032,0.0076358
-0.11115,-7.2765,5.1583,2.0006,-0.0064141,0.0039706,0.013744
-0.10257,-7.2569,5.0995,1.9809,-0.0061087,0.0024435,0.017715
-0.096069,-7.5903,5.0602,1.9809,0.024129,-0.0058032,-0.00030543
-0.090271,-7.2569,5.0798,1.8829,0.009163,-0.0012217,0.0045815
-0.10571,-7.2765,5.2564,1.9809,-0.009163,0.0036652,0.020159
-0.066895,-7.4138,5.1583,1.9025,-0.021991,0.0085521,0.019853
-0.054077,-7.1981,5.0995,1.8437,-0.027184,0.013744,0.010079
-0.053802,-7.1785,5.021,1.8437,-0.021686,0.016799,-0.0042761
-0.052826,-7.2569,5.0995,1.9613,-0.0085521,0.018326,-0.011606
-0.058533,-7.355,5.2171,1.9025,0.0048869,0.016493,-0.0085521
-0.061523,-7.3942,5.1583,1.9613,0.01405,0.015272,-0.009163
-0.062256,-7.1785,5.021,1.8437,0.025962,0.014966,-0.0073304
-0.058075,-7.4138,5.0602,1.9417,0.038179,0.018631,0
-0.072601,-7.1785,5.0602,1.9025,0.038485,0.02138,-0.0054978
-0.070496,-7.2373,5.0798,1.9025,0.032376,0.021991,-0.0030543
-0.058411,-7.2569,5.1583,1.9417,0.027184,0.025045,0.00030543
-0.061493,-7.355,5.1583,1.9809,0.022907,0.030849,-0.00030543
-0.066071,-7.355,5.0995,1.9809,0.013744,0.032681,-0.0061087
-0.07959,-7.2569,5.0798,1.9613,0.0042761,0.031154,0.010079
-0.084503,-7.2373,5.1583,1.9417,-0.0024435,0.029322,0.012217
-0.10822,-7.2569,5.1583,1.9809,-0.0027489,0.027489,-0.0094684
-0.11853,-7.355,5.0995,1.9417,-0.002138,0.025351,-0.014355
-0.12875,-7.5903,5.1583,2.0006,-0.0051924,0.019853,-0.016493
-0.12921,-7.2765,5.0995,1.9613,-0.0067195,0.013439,-0.010996
-0.13293,-7.4138,5.0798,1.9417,-0.0048869,0.0067195,-0.0024435
-0.14163,-7.2961,5.0995,1.9613,-0.002138,0.002138,0.0058032
-0.1203,-7.5119,5.2171,2.0398,-0.021991,0.0097738,-0.0045815
-0.10788,-7.4334,5.0995,1.9417,-0.011301,0.0061087,-0.0048869
-0.099945,-7.4923,5.1583,2.0398,-0.0088575,0.0051924,0.01069
-0.082764,-7.2569,5.021,1.9417,-0.0097738,0.0076358,0.013744
-0.075623,-7.4334,5.1583,2.0398,-0.01405,0.011912,0.01405
-0.064789,-7.1392,5.021,1.8437,-0.019853,0.016493,0.010996
-0.070343,-7.355,5.1387,1.9809,-0.026573,0.019548,0.0058032
-0.063171,-7.1785,5.0995,1.8044,-0.027794,0.020464,0.0009163
-0.063232,-7.355,5.0995,1.8044,-0.009163,0.021075,-0.0088575
-0.065674,-7.2765,5.0995,1.9809,-0.0042761,0.021075,-0.014355
-0.061066,-7.355,5.0995,1.9025,-0.0027489,0.018937,-0.0030543
-0.055206,-7.2373,5.1583,1.9809,-0.007025,0.017715,-0.0027489
-0.058807,-7.2569,5.0995,1.9613,-0.010996,0.018021,-0.0033598
-0.067535,-7.1785,5.0602,1.9025,-0.009163,0.01741,-0.0045815
-0.060883,-7.2569,5.0602,1.9025,-0.016799,0.014966,-0.0061087
-0.06134,-7.4334,5.0995,1.9025,-0.014355,0.011606,-0.0067195
-0.060425,-7.3942,5.0995,1.9417,0.0058032,0.009163,-0.017715
-0.053314,-7.3942,5.0014,1.9025,0.0012217,0.011301,-0.02138
-0.066071,-7.2961,5.021,1.9025,-0.0054978,0.01069,-0.014355
-0.06076,-7.2373,5.0602,1.9809,-0.012217,0.0097738,-0.009163
-0.064667,-7.2569,4.9426,1.9613,-0.013744,0.012828,-0.0054978
-0.056732,-7.2961,5.1191,1.9809,-0.0094684,0.015272,-0.0045815
-0.060272,-7.355,5.0798,1.9613,-0.0042761,0.016799,-0.0082467
-0.07428,-7.4334,5.0995,2.0398,0.0045815,0.014966,-0.013744
-0.069092,-7.5511,5.1779,1.9809,0.026878,0.012828,0.002138
-0.081421,-7.2765,5.1583,1.9025,0.029016,0.011606,-0.0009163
-0.080353,-7.4334,5.0798,1.8044,0.021075,0.0079412,-0.021686
-0.076904,-7.1785,5.0995,1.9809,0.0054978,0.0064141,-0.018631
-0.081909,-7.1196,5.1191,1.9417,-0.010385,0.0058032,-0.01069
-0.092712,-7.1196,5.1191,1.8829,-0.025656,0.0048869,-0.0018326
-0.10782,-7.1785,5.0995,1.9025,0.0030543,0.0048869,0.0048869
-0.10812,-7.2373,5.0798,1.8437,0.017715,0.0048869,0.0058032
-0.10022,-7.2569,5.0014,1.9025,-0.014355,0.038179,-0.018937
-0.071777,-7.7669,5.0798,1.8829,-0.011912,0.043677,-0.014355
-0.07016,-7.4334,5.0995,1.9809,-0.011912,0.042455,-0.010385
-0.06488,-7.355,5.0995,1.9809,-0.010385,0.040317,-0.014661
-0.078033,-7.2373,5.0995,1.9025,-0.0085521,0.041539,-0.016799
-0.055786,-7.1785,5.1191,1.9417,-0.0039706,0.043066,-0.019853
-0.052368,-7.5903,5.1191,1.9809,0.0045815,0.039401,-0.022907
-0.053772,-7.1392,5.021,1.9025,0.0082467,0.033292,-0.023213
-0.057648,-7.3354,5.0995,1.8044,0.0067195,0.024435,0.0082467
-0.067535,-7.2765,5.0798,1.8044,0.0061087,0.012828,0.0079412
-0.060486,-7.5511,5.1191,1.9809,0.0045815,0.01069,-0.0082467
-0.062317,-7.4531,5.021,1.9025,0.0039706,0.011301,-0.0045815
-0.061859,-7.4138,5.0995,1.9809,0.0039706,0.007025,-0.0067195
-0.062592,-7.2765,5.1191,1.9613,0.0042761,0.0048869,-0.0085521
-0.066925,-7.355,5.1191,1.8437,-0.0024435,0.0061087,-0.0064141
-0.072693,-7.2961,5.0995,1.8044,-0.013134,0.0082467,0.0015272
-0.071198,-7.1392,5.0995,1.8829,-0.022907,0.0094684,0.0088575
-0.059418,-7.1785,5.0995,1.9025,-0.025045,0.013744,0.0076358
-0.053406,-7.2765,5.1583,2.0398,-0.012217,0.013439,-0.0012217
-0.058777,-7.4334,5.0995,2.0594,0.017715,0.010385,-0.011912
-0.060822,-7.2569,5.021,1.9809,0.049175,0.0082467,-0.019242
-0.042816,-7.1392,5.1191,2.0006,0.070555,0.0039706,-0.018631
-0.041809,-7.2961,5.0995,1.9613,0.078191,0.0012217,-0.0073304
-0.051605,-7.4334,5.0995,1.9613,0.068417,0.0036652,0.0042761
-0.052979,-7.3354,5.2171,1.9809,-0.019242,0.026573,-0.010079
-0.058716,-7.2373,5.1191,1.9809,0.024129,0.025045,-0.007025
-0.039124,-7.2765,5.0995,1.9809,0.0039706,0.026267,0.0018326
-0.04657,-7.355,4.9229,1.8044,-0.021075,0.03146,0.0082467
-0.039093,-7.4334,5.0995,1.8437,-0.036652,0.035125,-0.002138
-0.050049,-7.4923,5.3348,1.9809,-0.036652,0.034514,-0.020159
-0.059357,-7.1785,5.2171,1.8437,-0.030849,0.032376,-0.025656
-0.062439,-7.4334,5.2564,1.9025,-0.02474,0.033598,-0.017715
-0.051025,-7.1,5.0995,1.824,-0.011301,0.030543,-0.0048869
-0.04306,-7.2961,5.0798,1.726,-0.0073304,0.035125,-0.012217
-0.024078,-7.4138,5.1583,1.9025,-0.0054978,0.036957,0.0030543
-0.026398,-7.2569,5.0602,1.824,-0.013134,0.039706,0.0018326
-0.028595,-7.4334,5.0995,1.9025,-0.028405,0.045204,-0.00061087
-0.014008,-7.2961,5.0798,1.9613,-0.041844,0.050091,-0.0015272
-0.0097656,-7.4334,5.0014,1.7848,-0.017104,0.053451,0.00030543
-0.013489,-7.2765,5.0602,1.9613,-0.015577,0.056505,-0.00061087
-0.0044861,-7.355,5.0798,1.9025,-0.051007,0.061087,-0.019242
0.0027771,-7.1981,5.0995,1.9025,-0.048564,0.061087,-0.018937
-0.0029907,-7.2569,5.0602,1.8044,-0.042455,0.060781,-0.019242
0.021606,-7.2569,5.0602,1.7848,-0.038485,0.062614,-0.022907
0.025757,-7.4138,5.1583,1.7848,-0.043982,0.063835,-0.019548
0.021698,-7.4334,5.1779,1.8044,-0.06017,0.064752,-0.016493
0.030243,-7.4334,5.1191,1.8437,-0.050091,0.065973,-0.018326
0.026459,-7.2373,5.0798,1.824,-0.051313,0.067501,-0.020464
0.034607,-7.1785,5.021,1.726,-0.047647,0.010996,0
0.035553,-7.3942,5.0602,1.8044,-0.029016,0.0097738,0.0054978
0.023895,-7.2569,5.1779,1.726,-0.029932,0.011301,0.01069
0.02121,-7.2569,5.1583,1.8044,-0.034819,0.013134,0.016799
0.023499,-7.4138,5.0995,1.8044,-0.045815,0.016493,0.019548
0.035339,-7.1785,5.0995,1.8044,-0.055894,0.02138,0.015272
0.031189,-7.355,5.0995,1.6475,-0.057727,0.023824,0.0064141
0.026459,-7.1785,5.1191,1.8437,-0.053756,0.025962,-0.00030543
0.023376,-7.1785,5.0014,1.8044,-0.029322,0.025962,0.007025
0.030792,-7.2569,5.0602,1.824,-0.026267,0.024435,0.0051924
0.029633,-7.2961,5.021,1.8044,-0.023518,0.024435,0.009163
0.036224,-7.355,5.0995,1.8829,-0.023518,0.025045,0.01069
0.039948,-7.2569,5.0995,1.9025,-0.02138,0.024129,0.0082467
0.039459,-7.355,5.1583,1.9809,-0.018937,0.022297,0.0061087
0.037567,-7.3354,5.0602,1.8437,-0.041233,0.023213,0.0048869
0.042297,-7.4531,5.0602,1.9417,-0.032987,0.026267,0.0061087
0.056122,-7.4138,5.1191,1.9025,0.015577,0.0033598,0.0015272
0.080719,-7.8061,5.0995,1.8437,0.014661,-0.00061087,0.0015272
0.08078,-7.1196,5.2171,1.8829,0.010385,0.00061087,0.0036652
0.068695,-7.1785,5.2368,1.9025,0.0061087,0.0024435,0.0039706
0.065918,-7.61,5.2368,1.9417,0.0009163,0.0051924,0.0027489
0.080261,-7.2569,5.1583,1.9025,-0.0015272,0.0082467,0.0012217
0.077484,-7.4923,5.1191,1.7848,-0.00061087,0.009163,0.0018326
0.078339,-7.2569,5.1583,1.9025,0.0042761,0.010996,0.0012217
0.080627,-7.4531,5.1583,1.824,0.0085521,0.010996,0.0030543
0.08255,-7.2373,5.0995,1.8437,0.011912,0.011301,0.0067195
0.080688,-7.4531,5.1191,1.824,0.01069,0.013134,0.0024435
0.089905,-7.2569,5.1779,1.9025,0.0030543,0.01405,0.0054978
0.099518,-7.355,5.2368,1.824,-0.0036652,0.015272,0.0073304
0.094055,-7.1392,5.021,1.824,-0.0076358,0.015272,0.0051924
0.088837,-7.3942,5.1191,1.8437,-0.011301,0.015577,0.0033598
0.083008,-7.4531,5.1191,1.9025,-0.010079,0.013134,0.0018326
0.095581,-7.4923,5.021,1.8437,0.0082467,-0.030849,0.0018326
0.096375,-7.2569,5.0602,1.8044,-0.01405,-0.022907,0.0039706
0.12088,-7.4531,5.0995,1.9417,-0.026267,-0.019548,0.021991
0.10599,-7.2961,5.0995,1.824,-0.032681,-0.017104,0.020769
0.10266,-7.2569,5.1191,1.7848,-0.035736,-0.010996,0.013744
0.10004,-7.2569,5.0995,1.726,-0.030543,-0.0064141,0.0039706
0.10349,-7.355,5.0995,1.8044,-0.016493,-0.0051924,0.0009163
0.09787,-7.2569,5.0995,1.8044,-0.0036652,-0.0042761,0.00061087
0.09668,-7.4334,5.0995,1.8044,0.013439,-0.0024435,-0.0036652
0.093414,-7.2569,5.1583,1.8044,0.010996,0.00061087,0
0.098877,-7.1981,5.0798,1.8044,0.002138,0.0045815,0.0064141
0.10062,-7.2569,5.0995,1.7848,-0.0088575,0.0064141,0.0064141
0.10324,-7.4334,5.0995,1.7848,-0.015882,0.0061087,0.0018326
0.097107,-7.2569,5.0995,1.8044,-0.014661,0.0048869,-0.0036652
0.10309,-7.4923,5.1583,1.9417,-0.0036652,0.0048869,-0.007025
0.095184,-7.2569,5.0995,1.8437,0.0088575,0.0045815,-0.0058032
0.11954,-7.6688,5.0995,1.8829,0.0042761,-0.00030543,0.021686
0.13312,-7.2765,5.1191,1.8044,0.010996,-0.00030543,0.011912
0.13763,-7.4531,5.0995,1.9025,0.0088575,-0.0030543,0.0073304
0.14694,-7.2373,5.1191,1.7848,-0.0058032,-0.0048869,0.011912
0.13867,-7.355,5.0798,1.8633,-0.027489,-0.0033598,0.014355
0.13501,-7.355,5.0798,1.8044,-0.04215,-0.002138,0.018631
0.11722,-7.2569,5.021,1.824,-0.019242,0.0012217,0.023213
0.1131,-7.3354,5.0798,1.8044,-0.0067195,0.0061087,0.025045
0.1174,-7.355,5.0995,1.8044,-0.011912,0.019242,-0.013134
0.11548,-7.355,5.1583,1.8437,0.0088575,0.016493,-0.011912
0.13342,-7.1785,5.021,1.7848,0.0051924,0.018326,0
0.13004,-7.2765,5.0995,1.8044,-0.0033598,0.019853,-0.0015272
0.1279,-7.2961,5.0014,1.8044,-0.011606,0.018631,-0.0033598
0.14233,-7.4923,5.0798,1.9417,-0.017104,0.016188,-0.0036652
0.15448,-7.5511,5.0995,1.9809,-0.019242,0.014661,-0.0067195
0.1619,-7.2569,5.0995,1.8044,-0.015577,0.014661,-0.010996
0.15659,-7.2569,5.0798,1.9025,-0.0064141,0.014355,-0.0067195
0.16568,-7.2765,5.0995,1.9025,-0.0054978,0.013744,-0.0094684
0.16217,-7.2961,5.0602,1.8437,-0.0073304,0.013134,-0.0085521
0.16049,-7.2373,5.1191,1.8437,-0.013134,0.012217,-0.0079412
0.16144,-7.2961,5.1583,1.8437,-0.018631,0.010996,-0.01069
0.15842,-7.4334,5.1191,1.8437,-0.021075,0.01069,-0.011301
0.15277,-7.4531,5.0995,1.9025,-0.0094684,0.010079,-0.0088575
0.15585,-7.4923,5.0995,1.9025,-0.0064141,0.0094684,-0.0061087
0.15594,-7.2961,5.2564,1.8437,-0.011912,0.0085521,0.00030543
0.1572,-7.3942,5.2368,1.8437,-0.011912,0.0067195,0.0024435
0.15234,-7.4334,5.1583,1.9025,-0.014966,0.007025,-0.011912
0.14957,-7.1981,5.2171,1.7456,-0.019548,0.0058032,-0.01069
0.15088,-7.2569,5.0995,1.7848,-0.022602,0.0045815,-0.0048869
0.16257,-7.2961,5.3152,1.9025,-0.023518,0.0036652,-0.0012217
0.16791,-7.2569,5.2564,1.8044,-0.020159,0.0024435,0.00030543
0.14594,-7.2765,5.2171,1.8044,-0.015272,0.0015272,-0.00030543
0.1481,-7.1785,5.0602,1.7848,-0.0033598,0.025962,-0.0054978
0.18134,-7.6688,5.0602,1.726,0.0067195,0.028405,-0.0027489
0.18723,-7.1981,5.1191,1.8044,0.010996,0.026267,-0.015272
0.19647,-7.2569,5.0798,1.8044,0.016188,0.024435,-0.017715
0.18756,-7.2569,5.0995,1.9025,0.016799,0.021075,-0.024129
0.18747,-7.3942,5.0995,1.824,0.018326,0.015577,-0.026573
0.18686,-7.355,5.0602,1.824,0.017715,0.014966,-0.021991
0.19156,-7.355,5.0602,1.8437,0.011606,0.015882,-0.012828
0.17999,-7.3942,5.0602,1.8829,-0.018326,0.015882,0.012217
0.17941,-7.4334,5.1191,1.8437,-0.035736,0.01741,0.010996
0.16837,-7.4138,5.0602,1.9613,-0.042455,0.016799,-0.0064141
0.15558,-7.3942,5.021,1.9025,-0.037568,0.015577,-0.015882
0.1629,-7.3942,5.0798,1.9809,-0.025045,0.010996,-0.018937
0.16302,-7.1196,5.0798,1.9025,-0.0097738,0.0054978,-0.015882
0.16498,-7.1785,5.1583,1.8044,-0.0015272,0.002138,-0.0082467
0.15979,-7.2569,5.2171,1.9025,-0.0082467,0.0015272,0.0033598
0.17273,-7.2569,5.2171,1.824,-0.019853,0.0039706,-0.0027489
0.17786,-7.2765,5.1191,1.9025,-0.029932,0.0085521,-0.0045815
0.18454,-7.3942,5.0995,1.8437,-0.034208,0.010385,0.0036652
0.18408,-7.2765,5.2171,1.8044,-0.030849,0.011912,-0.0027489
0.18961,-7.2961,5.2564,1.9025,-0.019242,0.012523,-0.0064141
0.1864,-7.355,5.2368,1.8044,-0.0045815,0.014966,-0.0097738
0.18906,-7.2569,5.1583,1.7456,0.009163,0.017715,-0.0085521
0.19232,-7.6688,5.1583,1.8437,0.017104,0.019548,-0.0048869
0.18353,-7.2961,5.2171,1.824,0.019242,0.022297,-0.0097738
0.17761,-7.1785,5.2171,1.9025,0.019853,0.021686,-0.0061087
0.17279,-7.4138,5.2171,1.9025,0.019853,0.030849,-0.012217
0.16937,-7.3354,5.2368,1.8044,0.019548,0.037874,-0.018326
0.17484,-7.4138,5.2564,1.9025,0.020769,0.036652,-0.017715
0.18307,-7.1392,5.1583,1.824,0.022297,0.035736,-0.012523
0.17749,-7.2569,5.2564,1.8829,0.026573,0.035736,-0.0088575
0.17825,-7.2569,5.2564,1.9025,0.027794,0.036346,-0.009163
0.18967,-7.2961,5.1191,1.8437,0.051618,0.022907,-0.012828
0.20755,-7.4138,5.1191,1.8044,-0.036652,0.027184,-0.016188
0.21353,-7.2961,5.2171,1.8044,-0.028711,0.030543,0.0036652
0.21716,-7.2765,5.1583,1.9025,-0.0033598,0.037874,-0.0054978
0.22113,-7.2569,5.1583,1.8044,0.024129,0.039095,-0.016188
0.22574,-7.3942,5.0602,1.726,0.042455,0.040623,-0.021686
0.22272,-7.2765,5.0995,1.8044,0.051924,0.040012,-0.016799
0.21716,-7.2569,5.0995,1.8044,0.055589,0.036652,-0.012217
0.21832,-7.2569,5.1583,1.8044,0.019242,0.036652,0.010079
0.22046,-7.4334,5.0602,1.6867,0.0082467,0.037874,0.009163
0.22104,-7.4334,5.0995,1.726,-0.0012217,0.034514,-0.016799
0.21951,-7.4334,5.1583,1.7848,-0.010996,0.030238,-0.011301
0.21011,-7.3354,5.2171,1.7848,-0.018937,0.027489,-0.0048869
0.20819,-7.4138,5.1191,1.6671,-0.025351,0.025045,0.0024435
0.20618,-7.2961,5.1583,1.7456,0.042761,0.026878,0.0076358
0.19928,-7.3354,5.1191,1.726,0.029932,0.03207,0.0094684
0.1976,-7.3354,5.0995,1.6867,-0.037263,0.033903,0.01741
0.17551,-7.4334,5.0995,1.6867,-0.033598,0.033598,0.020464
0.17877,-7.355,5.276,1.7848,-0.022907,0.032376,0.0079412
0.17389,-7.2961,5.3152,1.726,-0.0051924,0.030543,0.0088575
0.17441,-7.1785,5.3937,1.8044,0.010385,0.029016,0.0094684
0.18015,-7.2961,5.2564,1.726,0.013439,0.02474,0.0082467
0.17636,-7.2569,5.3152,1.8044,-0.030238,0.02138,0.0073304
0.17688,-7.2373,5.2171,1.6867,-0.034208,0.019548,0.010996
0.17291,-7.355,5.2171,1.8044,0.0067195,0.018326,-0.019853
0.17294,-7.355,5.0995,1.8044,-0.0045815,0.019853,-0.025045
0.1741,-7.2961,5.0014,1.726,-0.018021,0.02474,-0.023824
0.17197,-7.3942,5.0995,1.8044,-0.022602,0.028711,-0.02138
0.16348,-7.2569,5.1583,1.6867,-0.011606,0.034819,0.016493
0.16156,-7.4334,5.0602,1.8829,0.0067195,0.039706,0.0061087
0.17728,-7.2569,5.0602,1.7848,0.028405,0.043066,-0.0024435
0.16666,-7.2569,5.021,1.7848,0.047342,0.046731,-0.011301
0.17526,-7.2961,5.1191,1.8044,-0.020464,-0.012523,-0.0094684
0.17957,-7.9042,5.1583,1.824,-0.023824,-0.0054978,-0.010079
0.19675,-7.2569,5.2171,1.8044,-0.022602,-0.0042761,-0.012523
0.19733,-7.2569,5.0995,1.8044,-0.01741,-0.0045815,-0.0088575
0.20615,-7.355,5.2564,1.9025,-0.014966,-0.002138,-0.0076358
0.20239,-7.2569,5.1583,1.7848,-0.012828,0.0015272,-0.009163
0.20129,-7.4334,5.1583,1.9025,-0.010996,0.0036652,-0.0079412
0.20123,-7.2569,5.0995,1.726,-0.012217,0.0073304,-0.007025
0.19867,-7.4138,5.0995,1.824,-0.011912,0.011912,-0.010996
0.20935,-7.355,5.0014,1.6867,-0.011912,0.016799,-0.007025
0.21014,-7.2765,5.0602,1.6671,-0.01405,0.017715,-0.009163
0.20059,-7.2373,5.021,1.726,-0.014661,0.018937,-0.0067195
0.20041,-7.2765,5.1583,1.8044,-0.013439,0.022602,-0.0045815
0.20224,-7.1981,5.1191,1.7848,-0.01069,0.024129,-0.007025
0.20401,-7.1981,5.1583,1.726,-0.0064141,0.022907,-0.011912
0.19339,-7.2569,5.1583,1.6867,-0.0036652,0.020159,-0.012828
0.19006,-7.708,5.3348,1.8437,-0.0036652,0.016493,0.0051924
0.17673,-7.2569,5.2564,1.726,-0.011606,0.013439,0.0061087
0.15198,-7.2961,5.2368,1.6475,-0.02474,0.014355,-0.0039706
0.17404,-7.4334,5.1191,1.6671,-0.038179,0.01069,-0.00030543
0.1705,-7.2569,5.021,1.6475,-0.045204,0.0054978,0.0012217
0.16833,-7.4138,5.1191,1.7848,-0.047647,0.0042761,0
0.15149,-7.3942,5.1191,1.6475,-0.046426,0.0042761,0.0009163
0.14969,-7.4138,5.1583,1.6671,-0.038179,0.0058032,0.002138
0.14841,-7.4334,5.1191,1.7848,0.01405,0.0061087,-0.010385
0.13998,-7.3354,5.0995,1.726,0.013134,-0.0027489,-0.010996
0.13699,-7.355,5.0995,1.726,0.011301,-0.0076358,-0.036957
0.13437,-7.2765,5.1583,1.6867,0.012523,-0.010079,-0.034819
0.13879,-7.3942,5.1583,1.6671,0.010385,-0.01405,-0.026878
0.14752,-7.1785,4.9622,1.6867,0.0024435,-0.017715,-0.01741
0.14999,-7.355,4.9622,1.6279,-0.0094684,-0.016799,-0.013744
0.15115,-7.4531,5.0014,1.6671,-0.01741,-0.014966,-0.013744
0.1608,-7.355,4.9229,1.6867,-0.0054978,-0.0076358,0.013744
0.18881,-7.4923,4.9229,1.8044,-0.010079,-0.011606,0.0094684
0.20593,-7.2765,5.021,1.824,-0.022297,-0.013439,0.013439
0.19754,-7.4923,5.0798,1.824,-0.037568,-0.013134,0.022297
0.1944,-7.4923,5.0995,1.8044,-0.047037,-0.013744,0.025962
0.19611,-7.355,5.0602,1.7848,-0.048258,-0.011301,0.026267
0.20139,-7.3354,5.0798,1.726,-0.02474,-0.0067195,0.02138
0.19821,-7.4138,5.1583,1.6867,-0.0097738,-0.0048869,0.016493
0.20288,-7.2961,5.3348,1.824,-0.015577,-0.0033598,0.00061087
0.21542,-7.355,5.2564,1.8044,-0.010385,0.00030543,0.00061087
0.19611,-7.3942,5.1191,1.726,-0.010385,0.0027489,0.0067195
0.19427,-7.2569,5.0602,1.6475,-0.011301,0.0036652,0.0079412
0.18765,-7.4923,5.0995,1.5887,-0.013744,0.0048869,0.013439
0.19659,-7.355,5.2368,1.8044,-0.014355,0.0064141,0.014966
0.19183,-7.3354,5.2171,1.7848,-0.041233,0.0058032,0.012523
0.19366,-7.3942,5.1583,1.8044,-0.028405,0.0045815,0.0048869
0.19299,-7.3942,5.0995,1.726,-0.015577,0.026573,0.0012217
0.19998,-7.4334,5.0995,1.824,0.011606,0.026573,0.0058032
0.20297,-7.4334,5.1191,1.824,0.0012217,0.025045,0.00061087
0.21005,-7.6492,5.1583,1.9025,-0.014355,0.025045,0.0024435
0.20468,-7.4334,5.021,1.8437,-0.027184,0.023824,-0.0027489
0.1976,-7.355,5.0798,1.726,-0.036652,0.019853,-0.0082467
0.19717,-7.355,5.1583,1.8044,-0.036041,0.014966,-0.0097738
0.18185,-7.2569,5.1583,1.726,-0.027489,0.0097738,-0.0061087
0.1965,-7.2569,5.021,1.726,-0.0064141,0.0061087,0.0018326
0.18857,-7.2569,5.021,1.8044,-0.022907,-0.00061087,0.0036652
0.18555,-7.2765,4.9426,1.6475,-0.040928,-0.0009163,0.01069
0.1716,-7.4334,5.0995,1.7456,-0.050702,0.0015272,0.014661
0.16586,-7.4923,5.0995,1.7456,-0.049786,0.0012217,0.015272
0.16171,-7.6688,5.0995,1.8044,-0.040012,-0.00061087,0.015272
0.16623,-7.4334,5.021,1.8044,-0.0073304,0.00030543,0.011301
0.16348,-7.3942,5.0995,1.8044,-0.00030543,-0.0027489,0.0058032
0.15628,-7.4334,5.0995,1.726,0.0097738,0.025045,-0.0061087
0.16843,-7.5903,4.9622,1.726,0.012828,0.026267,-0.009163
0.18304,-7.2569,4.9426,1.726,0.018021,0.023518,-0.0064141
0.1875,-7.2961,5.1191,1.7456,0.020464,0.021075,-0.0073304
0.19122,-7.355,5.0995,1.8044,0.020769,0.021991,-0.0079412
0.18698,-7.2569,5.021,1.726,0.016493,0.022602,-0.0079412
0.18817,-7.4334,5.2368,1.9025,0.0082467,0.026878,-0.0051924
0.19778,-7.1981,5.2368,1.8044,-0.00030543,0.030238,-0.0045815
0.21307,-7.5903,5.1779,1.8044,-0.011606,0.0085521,0.017104
0.21225,-7.3942,5.0995,1.8044,-0.019548,0.0082467,0.0097738
0.21918,-7.2569,5.0602,1.6475,-0.010996,0.010079,0.01741
0.21024,-7.5119,5.1583,1.8044,-0.0054978,0.010996,0.014661
0.22452,-7.4923,5.0602,1.8044,0.0033598,0.012217,0.01405
0.22125,-7.2961,5.0995,1.8044,0.0051924,0.013439,0.018021
0.21667,-7.2569,5.021,1.8044,-0.0012217,0.016799,0.024129
0.22113,-7.2569,5.0995,1.824,-0.0061087,0.018021,0.023518
0.21066,-7.2373,5.021,1.726,-0.01405,0.015272,0.012523
0.21628,-7.2373,4.9622,1.726,-0.015882,0.01405,0.0085521
0.22095,-7.355,5.021,1.6867,-0.009163,0.011606,0.0058032
0.21274,-7.4138,5.0995,1.726,0.0039706,0.0076358,0.0051924
0.21063,-7.4138,5.0602,1.6671,0.011912,0.0058032,0.0088575
0.20688,-7.4531,5.1583,1.7456,0.015272,0.0061087,0.011606
0.21265,-7.2765,5.0798,1.6867,0.012217,0.0061087,0.016493
0.207,-7.2765,5.0995,1.8044,0.0048869,0.0073304,0.016799
0.2005,-7.2765,5.0995,1.8044,-0.0033598,0.011912,-0.010996
0.19891,-7.355,5.0995,1.8044,-0.011912,0.018021,-0.007025
0.19537,-7.4334,5.1191,1.7848,-0.020159,0.023824,0.0042761
0.19205,-7.2569,5.1583,1.6867,-0.025656,0.027489,0
0.1843,-7.4334,5.1583,1.6475,-0.021991,0.029932,-0.0064141
0.18134,-7.355,5.1191,1.726,-0.013744,0.03146,-0.011301
0.18387,-7.2569,5.0995,1.726,-0.0045815,0.030849,-0.013439
0.1799,-7.2569,5.2171,1.7848,0.0030543,0.0281,-0.013439
0.19113,-7.1392,5.1191,1.6867,-0.013134,0.023213,0.0009163
0.1925,-7.4138,5.1779,1.7456,-0.0064141,0.023824,-0.0030543
0.2095,-7.2569,5.0995,1.6475,-0.0073304,0.022297,-0.012523
0.20346,-7.2961,5.1583,1.726,-0.012828,0.021075,-0.0088575
0.21658,-7.1785,5.0995,1.7848,-0.023213,0.018937,-0.0042761
0.20886,-7.4923,5.1779,1.824,-0.035736,0.017104,-0.0024435
0.21005,-7.4334,5.2171,1.726,-0.027489,0.017715,0.0015272
0.19449,-7.3942,5.1583,1.7456,-0.023213,0.020464,0.0033598
0.18579,-7.2765,5.1191,1.7848,-0.041539,0.027489,-0.0030543
0.18518,-7.4334,5.1191,1.8044,-0.0064141,0.030849,-0.0054978
0.17136,-7.355,5.0798,1.6867,0.010996,0.027184,0.00030543
0.16766,-7.4334,5.1191,1.8829,0.022602,0.023518,0.0024435
0.15942,-7.3942,5.1583,1.6867,0.021686,0.020769,0.0012217
0.15466,-7.3354,5.0798,1.6475,0.002138,0.017104,0.00030543
0.1402,-7.2569,5.021,1.726,-0.022907,0.015577,0.0015272
0.13577,-7.5903,5.0798,1.824,-0.039095,0.015577,0.0009163
0.12131,-7.2961,5.2171,1.7848,-0.016493,0.016188,-0.0039706
0.10641,-7.3942,5.2171,1.9025,-0.013744,0.014661,-0.0058032
0.10098,-7.1392,5.1191,1.6867,-0.018021,0.015272,-0.002138
0.096802,-7.4138,5.0995,1.8044,-0.027184,0.01741,0.0058032
0.089386,-7.4531,5.0995,1.8044,-0.036652,0.019853,0.011301
0.082062,-7.2569,5.1191,1.8044,-0.040928,0.020464,0.0097738
0.077728,-7.2569,5.1191,1.7456,-0.035125,0.019548,0.0061087
0.070587,-7.6688,5.1191,1.7848,-0.025045,0.018937,0.0009163
0.074402,-7.2569,5.0602,1.726,-0.015272,0.019242,-0.0085521
0.076233,-7.4138,5.1191,1.6279,-0.011606,0.019242,-0.011912
0.066528,-7.2569,5.1583,1.6671,-0.010385,0.01741,-0.0061087
0.073883,-7.2961,5.1191,1.6671,-0.01741,0.01405,-0.0042761
0.09375,-7.1785,5.021,1.6475,-0.024129,0.01405,0.0009163
0.097351,-7.4334,5.1583,1.824,-0.027489,0.01741,0.0039706
0.11362,-7.2569,5.2368,1.6671,-0.036346,0.022297,0.0027489
0.10464,-7.4334,5.2368,1.726,-0.022907,0.022602,-0.0018326
0.13544,-7.4531,5.1583,1.8044,-0.046426,0.017104,-0.025962
0.15436,-7.7473,5.0995,1.5887,-0.01069,0.018326,-0.0281
0.17856,-7.2961,5.2171,1.726,0.0033598,0.015577,-0.019242
0.18188,-7.4334,5.2171,1.726,0.0061087,0.013744,-0.012523
0.17294,-7.6688,5.1583,1.7848,-0.00061087,0.016188,-0.0030543
0.18195,-7.5903,5.1191,1.7848,-0.016799,0.019548,0.0012217
0.18076,-7.2569,5.1191,1.8044,-0.035125,0.02138,-0.0061087
0.1922,-7.1785,5.0798,1.6475,-0.04612,0.022297,-0.018631
0.18692,-7.2373,5.0798,1.6475,-0.040623,0.018631,-0.0097738
0.18661,-7.4334,5.0798,1.7848,-0.02474,0.013134,-0.012523
0.18527,-7.355,5.0798,1.7848,-0.0079412,0.0073304,-0.025045
0.18582,-7.3942,5.0798,1.6867,0.0036652,0.0048869,-0.020159
0.18256,-7.2569,5.1191,1.6867,0.0039706,0.0033598,-0.012523
0.18381,-7.1785,5.021,1.6475,-0.0045815,0.0033598,-0.007025
0.17871,-7.6688,5.0995,1.824,-0.01741,0.0051924,-0.0048869
0.17734,-7.2961,5.2171,1.726,-0.029322,0.0048869,-0.0054978
0.18292,-7.2765,5.1191,1.726,-0.03543,0.0054978,-0.013439
0.17679,-7.1785,5.021,1.7848,-0.033903,0.007025,-0.01405
0.17542,-7.4923,5.0995,1.7848,-0.029016,0.0094684,-0.016188
0.16107,-7.4334,5.0995,1.7456,-0.021686,0.01069,-0.018326
0.15631,-7.2373,5.0798,1.6867,-0.016493,0.0079412,-0.012828
0.15137,-7.355,5.1583,1.824,-0.012828,0.0073304,-0.0051924
0.14511,-7.2569,5.0995,1.726,-0.0064141,0.0088575,-0.0033598
0.12918,-7.3942,5.0995,1.6475,0.0009163,0.01069,-0.0076358
0.12741,-7.4334,5.1583,1.726,0.0088575,0.013134,-0.0033598
0.12888,-7.2765,5.0995,1.6279,0.0073304,0.01405,-0.0009163
0.12448,-7.4531,5.0995,1.5887,0.0048869,0.012828,-0.0094684
0.12244,-7.2569,5.1583,1.6475,-0.0058032,0.012523,-0.0076358
0.1265,-7.355,5.1779,1.6475,-0.014966,0.010079,-0.0088575
0.12686,-7.3354,5.1583,1.6475,-0.019853,0.0058032,-0.0097738
0.13388,-7.2569,5.0798,1.6279,-0.022602,0.0036652,-0.010996
0.13129,-7.6688,5.0995,1.8044,-0.017104,0.0030543,-0.0064141
0.13907,-7.4923,5.0798,1.7848,-0.024435,0.012217,0.0027489
0.15567,-7.4334,5.0602,1.726,-0.025962,0.015272,-0.0018326
0.15762,-7.355,5.0995,1.6475,-0.03207,0.013439,-0.0076358
0.15881,-7.4531,5.0602,1.6475,-0.045204,0.011912,-0.002138
0.16306,-7.4531,5.1191,1.8044,-0.064752,0.014355,0.007025
0.16348,-7.4334,5.1191,1.726,-0.081856,0.017104,0.012217
0.15125,-7.2765,5.1583,1.7456,-0.039095,0.017715,0.010385
0.15082,-7.4334,5.0798,1.6475,-0.031154,0.016493,0.007025
0.1506,-7.2961,5.0995,1.726,-0.069639,0.020464,-0.0012217
0.16156,-7.355,5.0995,1.6671,-0.0562,0.024129,-0.0064141
0.16165,-7.3942,5.0995,1.726,-0.046426,0.022602,-0.0054978
0.15787,-7.355,5.0602,1.6671,-0.041233,0.02138,-0.0079412
0.1492,-7.4923,5.1583,1.8044,-0.042455,0.022602,-0.007025
0.15161,-7.2961,5.1779,1.7848,-0.048869,0.02474,-0.0027489
0.14618,-7.355,5.2564,1.726,-0.087048,0.025962,0.0012217
0.15427,-7.4334,5.1583,1.6475,-0.082772,0.025045,0.0024435
0.15784,-7.2569,5.1583,1.726,-0.063835,0.025656,-0.014661
0.15591,-7.355,5.0995,1.6475,-0.070555,0.029322,-0.0097738
0.16302,-7.2765,5.0995,1.726,-0.071471,0.027184,-0.011301
0.16403,-7.4334,5.1191,1.6867,-0.065973,0.023518,-0.010996
0.14481,-7.3354,5.1583,1.726,-0.054672,0.023824,-0.0079412
0.13675,-7.355,5.021,1.6475,-0.044288,0.025656,-0.009163
0.13516,-7.355,5.0798,1.6671,-0.055589,0.023824,-0.010079
0.13318,-7.355,5.021,1.6475,-0.059254,0.022297,-0.012523
0.12708,-7.2961,5.0995,1.6867,-0.039095,-0.009163,-0.00061087
0.11029,-7.2765,5.0995,1.6475,0.1069,-0.0051924,-0.0067195
0.11041,-7.2765,5.0602,1.726,0.10263,-0.0009163,0.011912
0.11237,-7.3942,5.0995,1.726,0.087354,0.0012217,0.011606
0.11935,-7.2961,5.0798,1.6671,0.060781,0.00061087,0.0073304
0.11359,-7.2569,5.021,1.7848,0.028405,0.0024435,0.0045815
0.10599,-7.3354,5.0995,1.6475,-0.0042761,0.007025,0.0027489
0.093231,-7.355,5.1191,1.726,-0.027489,0.0082467,0.0039706
0.10226,-7.4334,5.0995,1.726,-0.025045,0.018326,-0.0067195
0.11432,-7.8061,5.021,1.6475,-0.026573,0.01741,-0.00061087
0.11063,-7.2569,5.021,1.6671,-0.025962,0.014966,-0.0051924
0.11691,-7.1785,4.9426,1.6475,-0.028711,0.01405,-0.0048869
0.11011,-7.2961,5.0798,1.6867,-0.028711,0.015882,-0.0030543
0.11664,-7.355,5.2171,1.7456,-0.023824,0.014661,-0.0027489
0.13071,-7.2961,5.0995,1.6867,-0.016799,0.014966,-0.0045815
0.13013,-7.5511,5.0798,1.8044,-0.014355,0.014355,-0.0076358
0.12836,-7.2765,5.1191,1.6475,-0.018326,0.01405,-0.00030543
0.13123,-7.2569,5.0798,1.6475,-0.024435,0.015272,0.002138
0.13419,-7.5119,5.1191,1.8044,-0.032376,0.019548,0.0027489
0.1301,-7.4334,5.021,1.726,-0.036957,0.02474,0.00030543
0.14215,-7.355,5.0995,1.6867,-0.036957,0.02474,-0.0045815
0.14075,-7.2961,5.0602,1.6475,-0.028711,0.022602,-0.0085521
0.14005,-7.4334,5.1583,1.726,-0.019548,0.019548,-0.010385
0.15555,-7.2373,4.9426,1.726,-0.010385,0.015882,-0.0064141
0.14429,-7.4334,5.0798,1.8044,-0.033598,0.012217,-0.0051924
0.15253,-7.4531,5.0995,1.726,-0.025351,0.0073304,-0.0048869
0.15408,-7.4138,5.0995,1.6475,-0.025351,0.010079,0.0015272
0.16281,-7.4334,5.0602,1.8437,-0.026878,0.018631,0.0051924
0.16736,-7.3942,5.0995,1.7848,-0.028711,0.023824,0.0054978
0.16699,-7.355,5.0995,1.726,-0.03146,0.026267,0.0024435
0.15314,-7.2569,5.0995,1.6475,-0.034514,0.024435,-0.0015272
0.14282,-7.2569,5.0798,1.726,-0.035736,0.024129,-0.0039706
0.14603,-7.7473,5.1583,1.8044,-0.021075,0.022297,-0.0027489
0.13922,-7.3354,5.0995,1.6867,-0.027489,0.02138,-0.0039706
0.14487,-7.4923,5.0798,1.8044,-0.018021,0.021991,-0.0048869
0.12057,-7.5511,5.0995,1.8044,-0.011301,0.019548,-0.0027489
0.11743,-7.2569,4.9426,1.6475,-0.01069,0.01741,-0.00030543
0.12067,-7.5903,5.1583,1.8437,-0.012217,0.016799,0.00030543
0.10727,-7.2569,5.0995,1.8044,-0.014661,0.016493,-0.00061087
0.097412,-7.4334,5.0798,1.726,-0.01741,0.017104,-0.0012217
0.10974,-7.4923,5.1191,1.8044,-0.0039706,0.015272,0.011606
0.11682,-7.2765,5.0798,1.6867,-0.019242,0.010079,0.012217
0.12857,-7.4138,5.0995,1.6475,-0.030543,0.010079,0.0064141
0.1246,-7.355,5.1191,1.726,-0.038485,0.01069,0.0097738
0.12802,-7.2569,5.021,1.726,-0.036957,0.009163,0.011606
0.11792,-7.2569,5.021,1.726,-0.027794,0.0073304,0.011606
0.12289,-7.3354,5.0995,1.726,0.015272,0.0082467,0.01069
0.11996,-7.2569,5.0995,1.8044,0.0088575,0.010079,0.011301
0.1188,-7.2569,5.021,1.726,-0.026878,0.013744,0.0033598
0.1091,-7.355,5.0995,1.7848,-0.033292,0.015272,0.007025
0.099731,-7.2961,5.0995,1.8044,-0.036957,0.017715,0.014355
0.090424,-7.4138,5.0995,1.726,-0.034514,0.019242,0.016188
0.09903,-7.4923,5.1583,1.8044,-0.025656,0.018631,0.014355
0.0849,-7.2569,5.0995,1.6475,-0.015272,0.014355,0.0085521
0.077454,-7.2569,5.021,1.6867,-0.022907,0.012217,0.0024435
0.063416,-7.1981,5.0798,1.726,-0.02138,0.011606,0.0015272
0.072144,-7.2961,5.0798,1.6867,-0.017104,0.0054978,0.00030543
0.076019,-7.4138,5.1191,1.6475,-0.019242,0.0048869,0
0.073334,-7.2569,5.0014,1.6475,-0.014966,0.0082467,0.007025
0.077789,-7.2765,5.0995,1.726,-0.012828,0.012523,0.0088575
0.059814,-7.2961,5.1191,1.726,-0.01405,0.013134,0.010996
0.080994,-7.355,5.0995,1.726,-0.019548,0.014661,0.012828
0.078491,-7.355,5.1191,1.726,-0.023518,0.016493,0.010996
0.081329,-7.2765,5.1583,1.8044,-0.023518,0.019242,0.0051924
0.072754,-7.2765,5.1583,1.726,-0.0042761,0.019853,-0.0012217
0.067871,-7.2961,5.1191,1.8044,-0.0024435,0.020464,0.0009163
0.061951,-7.2569,5.0602,1.6671,-0.0027489,0.018937,0.0054978
0.064301,-7.4923,5.0995,1.8437,-0.0033598,0.019548,0.009163
0.072418,-7.4334,5.1583,1.8044,0.0039706,0.021075,0.007025
0.062195,-7.3354,5.0995,1.8044,0.01405,0.019242,0.0033598
0.065674,-7.355,5.0798,1.7848,-0.01069,0.018631,-0.0012217
0.06662,-7.4334,5.0995,1.9025,-0.007025,0.018326,-0.0012217
0.082794,-7.2569,5.1191,1.8044,0.0051924,0.02474,-0.013439
0.099213,-7.6688,5.1191,1.8044,0.0039706,0.025351,-0.01741
0.1076,-7.2961,5.1583,1.8044,0.0036652,0.026267,-0.012217
0.1171,-7.355,5.1191,1.824,0.0048869,0.026878,-0.013439
0.1283,-7.4923,5.2171,1.9417,0.0082467,0.027184,-0.013134
0.11823,-7.4334,5.1583,1.7456,0.0094684,0.029627,-0.013744
0.10379,-7.4334,5.1583,1.8044,0.011912,0.03146,-0.014661
0.0979,-7.355,5.1191,1.8044,0.015272,0.033598,-0.01405
0.1091,-7.5315,5.1191,1.8437,0.0064141,-0.0045815,0.018021
0.10599,-7.4334,5.0995,1.7848,-0.0054978,-0.015882,0.019853
0.097412,-7.2961,5.1779,1.8437,-0.007025,-0.023213,-0.0012217
0.09433,-7.355,5.1583,1.9025,-0.0088575,-0.027184,0.0015272
0.095886,-7.4923,5.2171,1.9417,-0.0079412,-0.030238,0.0076358
0.097443,-7.355,5.1583,1.824,-0.0061087,-0.03207,0.014661
0.093506,-7.2569,5.1583,1.7456,-0.00061087,-0.031765,0.016493
0.08902,-7.2569,5.0602,1.726,0.0064141,-0.030543,0.016493
0.091309,-7.355,5.0995,1.726,0.0033598,-0.028405,0.0024435
0.088348,-7.3354,5.1583,1.6867,-0.0076358,-0.02474,0.0018326
0.079254,-7.4334,5.1191,1.726,-0.018021,-0.018631,0.020159
0.087189,-7.355,5.0798,1.6279,-0.02138,-0.011606,0.015882
0.075867,-7.1785,5.0602,1.6279,-0.019548,-0.0073304,0.0079412
0.072113,-7.2373,5.0014,1.6475,-0.010079,-0.0064141,-0.00030543
0.073425,-7.2961,5.1191,1.6867,0.002138,-0.0051924,-0.0033598
0.06604,-7.4138,5.021,1.7848,0.014355,-0.0027489,-0.00061087
0.045898,-7.4334,5.0995,1.6671,0.024435,0.0012217,-0.012523
0.038605,-7.2765,5.1583,1.726,0.025045,0.0073304,-0.010996
0.041382,-7.4334,5.1583,1.6671,0.019242,0.010079,0.0015272
0.037964,-7.4138,5.0995,1.6867,0.013744,0.013744,-0.0009163
0.027496,-7.3942,5.0995,1.726,0.01069,0.019242,-0.0054978
0.021851,-7.355,5.0995,1.6867,0.0097738,0.022602,-0.011606
0.022156,-7.3942,5.0995,1.7456,0.0085521,0.023213,-0.015882
0.029144,-7.355,5.1191,1.726,0.0076358,0.023518,-0.014966
0.022583,-7.1785,5.2564,1.726,-0.0036652,0.017715,-0.01741
0.040527,-7.2569,5.0995,1.8829,-0.0094684,0.017715,-0.014661
0.050568,-7.4334,5.0995,1.7848,-0.013134,0.019242,-0.01069
0.061676,-7.4531,5.0798,1.8437,-0.01405,0.021075,-0.013134
0.053894,-7.2373,5.0995,1.7848,-0.01405,0.02138,-0.020769
0.044678,-7.1196,5.1583,1.8044,-0.013134,0.018937,-0.025045
0.052948,-7.1785,5.021,1.7456,-0.010079,0.018937,-0.023518
0.059967,-7.2569,5.0995,1.726,-0.0051924,0.020464,-0.021075
0.065582,-7.4334,5.0995,1.6867,-0.022907,0.021075,-0.014966
0.04776,-7.3942,5.021,1.6867,-0.0073304,0.020769,-0.010079
0.059387,-7.4334,5.021,1.6475,-0.018631,0.021991,-0.012828
0.066345,-7.2765,5.0995,1.6671,-0.033903,0.024435,-0.013744
0.074158,-7.4334,5.0798,1.6671,-0.041233,0.026573,-0.018631
0.065887,-7.2569,5.0602,1.6671,-0.04215,0.027184,-0.021686
0.061707,-7.2961,5.0995,1.6475,-0.037874,0.024435,-0.02138
0.068024,-7.1785,5.0602,1.6867,-0.030238,0.023824,-0.019548
0.074371,-7.4334,5.2368,1.8044,-0.02474,0.025045,-0.009163
0.077637,-7.4923,5.1191,1.8437,-0.026878,0.03146,-0.0061087
0.060181,-7.2765,5.1779,1.6279,-0.024435,0.032681,-0.0082467
0.081146,-7.5903,5.0995,1.7848,-0.018326,0.032376,-0.011606
0.090546,-7.355,5.0995,1.726,-0.011301,0.032987,-0.014661
0.085419,-7.2569,5.0995,1.726,-0.0088575,0.031765,-0.016188
0.068878,-7.5511,5.1191,1.7848,-0.020159,0.030238,-0.014966
0.070984,-7.4138,5.0798,1.726,-0.022297,0.027794,-0.012523
0.065338,-7.355,5.1191,1.7456,-0.02138,0.023824,-0.0015272
0.061584,-7.4923,5.1191,1.8437,-0.029016,0.018326,0.0018326
0.047211,-7.355,5.0602,1.8044,-0.035125,0.017715,-0.0051924
0.051422,-7.4334,5.0798,1.7848,-0.036041,0.018631,-0.0039706
0.050476,-7.4138,5.021,1.8044,-0.031765,0.019853,-0.0039706
0.056396,-7.2569,5.0602,1.6475,-0.026267,0.019548,-0.0054978
0.042023,-7.355,5.0995,1.8044,-0.0097738,0.017715,-0.0061087
0.047516,-7.355,5.0995,1.6867,-0.014661,0.014661,-0.0045815
0.050995,-7.4334,5.0014,1.6867,-0.014355,0.018631,-0.0036652
0.070007,-7.8649,5.0014,1.6671,0.0079412,0.014966,-0.002138
0.085907,-7.2569,5.021,1.6671,0.011606,0.015577,-0.0054978
0.090637,-7.1785,4.9622,1.6671,0.007025,0.01405,-0.0085521
0.074219,-7.2373,5.021,1.6671,-0.0045815,0.011606,-0.0073304
0.069946,-7.2569,5.0602,1.726,-0.014355,0.011301,-0.007025
0.077148,-7.2569,5.0995,1.726,-0.017715,0.01069,-0.007025
0.065216,-7.4138,5.0995,1.6671,-0.018937,0.010079,-0.0067195
0.055267,-7.4531,5.0995,1.7456,-0.010385,0.010996,-0.012523
0.042999,-7.2765,5.1191,1.6867,-0.010385,0.014661,-0.010996
0.042236,-7.4334,5.021,1.7848,-0.013134,0.018631,-0.0009163
0.044495,-7.4334,5.021,1.8044,-0.019242,0.021686,0.0009163
0.050323,-7.4334,5.0798,1.6475,-0.026573,0.023518,-0.00061087
0.035217,-7.4923,5.021,1.8044,-0.031154,0.023213,-0.0054978
0.044617,-7.2961,5.021,1.7848,-0.028711,0.022602,-0.01069
0.039917,-7.4531,5.0602,1.726,-0.021075,0.021686,-0.013744
0.05661,-7.2569,5.0995,1.6671,-0.013134,0.019242,-0.011301
0.045532,-7.1785,5.0798,1.726,-0.013134,0.019242,-0.007025
0.054688,-7.2569,5.0602,1.6867,-0.017715,0.019548,-0.0061087
0.058777,-7.6688,5.0602,1.8044,-0.032376,0.018937,0.00030543
0.056061,-7.4923,5.021,1.6475,-0.051618,0.020464,0.0027489
0.048645,-7.4334,5.0995,1.726,-0.06689,0.019242,0.0009163
0.049774,-7.2961,4.9426,1.6475,-0.073915,0.016799,-0.0048869
0.053711,-7.2961,4.8445,1.6475,-0.067195,0.011606,-0.0097738
0.036255,-7.4531,5.0995,1.6671,-0.050091,0.0054978,-0.010996
0.041382,-7.355,5.1583,1.7456,-0.03879,0.0039706,-0.010385
0.030701,-7.2569,5.0995,1.726,-0.036346,0.0088575,0.002138
0.0087891,-7.2569,5.021,1.7456,-0.042761,0.013439,0.0097738
0.02475,-7.61,5.0602,1.8044,-0.050702,0.018326,0.010996
0.024109,-7.4923,5.0602,1.8044,-0.0562,0.024435,0.0051924
0.012756,-7.4531,5.0798,1.6475,-0.054062,0.027794,-0.0039706
0.015869,-7.2569,5.0995,1.6475,-0.046731,0.027794,-0.0094684
0.029846,-7.2569,5.0798,1.6867,-0.014355,-0.0073304,0.0030543
0.049561,-7.2961,5.0995,1.6279,-0.017104,-0.0088575,0.0018326
0.06192,-7.4923,5.1191,1.8044,-0.019548,-0.0076358,0.0067195
0.056915,-7.2569,5.0014,1.6671,-0.025656,-0.0061087,0.0048869
0.053467,-7.4138,5.021,1.726,-0.029016,-0.0067195,0.0018326
0.05896,-7.4334,5.0995,1.7848,-0.026573,-0.0067195,0.00030543
0.062561,-7.7473,5.0995,1.8044,-0.010385,-0.0064141,-0.00030543
0.075012,-7.4531,5.0014,1.824,-0.011301,-0.0051924,0.00061087
0.047974,-7.4531,4.9622,1.6475,-0.013134,-0.0042761,-0.0058032
0.0513,-7.4138,5.0602,1.726,-0.016799,-0.0042761,-0.0048869
0.050842,-7.4334,5.0602,1.8044,-0.018631,-0.00061087,-0.00030543
0.059021,-7.2961,5.0798,1.7848,-0.017104,0.0027489,0.0009163
0.047363,-7.4531,5.021,1.8044,-0.013439,0.002138,0.0067195
0.049713,-7.4923,4.9622,1.7848,-0.007025,0.0054978,0.0073304
0.048615,-7.3942,5.0798,1.8437,-0.022602,0.010385,0.00061087
0.052307,-7.4334,5.1191,1.8044,-0.015272,0.011301,-0.0051924
0.04248,-7.4334,5.0602,1.8044,0.016493,0.011912,-0.0030543
0.037109,-7.4334,5.0798,1.726,0.011606,0.011301,0.0009163
0.039642,-7.4923,5.0798,1.8044,0.00030543,0.012828,-0.0073304
0.040314,-7.4334,5.0798,1.6867,-0.0088575,0.012828,-0.0097738
0.036255,-7.4334,5.0798,1.7848,-0.013744,0.0082467,-0.0064141
0.02533,-7.4138,5.021,1.6475,-0.015882,0.0058032,-0.0033598
0.029785,-7.3942,5.0995,1.726,0.0009163,0.0027489,-0.0024435
0.02594,-7.3942,5.0798,1.6475,0.011912,0.0030543,-0.0036652
0.026886,-7.4334,5.021,1.6867,-0.01069,0.018631,-0.0064141
0.016144,-7.2569,5.021,1.6475,-0.0024435,0.015882,0.0009163
0.02002,-7.4923,4.9622,1.7456,0.00030543,0.012217,-0.0054978
0.022766,-7.4334,4.9622,1.726,-0.0051924,0.0079412,-0.00030543
0.029877,-7.4138,5.0995,1.726,-0.01405,0.0058032,-0.002138
0.016876,-7.355,5.0995,1.726,-0.017715,0.0033598,-0.0073304
0.015594,-7.4531,5.0798,1.8044,-0.016493,-0.0012217,-0.011606
0.011932,-7.355,4.9426,1.6475,-0.012523,-0.0042761,-0.010996
0.037292,-7.4531,4.9622,1.726,-0.018021,0.021075,-0.00030543
0.041748,-8.0415,4.9229,1.7848,-0.01405,0.02138,-0.0015272
0.050201,-7.6492,5.0798,1.9025,-0.013439,0.019548,0
0.04303,-7.4334,5.021,1.8044,-0.013439,0.017715,0.00030543
0.052612,-7.4334,5.0798,1.8044,-0.012523,0.018021,0.00030543
0.052917,-7.4923,5.0798,1.824,-0.011912,0.019853,0.0009163
0.055939,-7.2569,4.9622,1.7848,-0.010385,0.021991,0.00061087
0.053864,-7.3942,4.9622,1.7848,-0.0079412,0.023824,0
0.062286,-7.355,4.9622,1.726,-0.009163,0.027489,-0.00061087
0.069672,-7.4138,5.0995,1.7848,-0.013744,0.032681,-0.00061087
0.061432,-7.2569,5.021,1.726,-0.010079,0.035125,0.00030543
0.053314,-7.2569,5.0798,1.6867,-0.0036652,0.03543,0.00061087
0.059418,-7.2569,5.0602,1.6279,0.00061087,0.032987,-0.0024435
0.064362,-7.355,5.0995,1.6867,0.0036652,0.032376,-0.0039706
0.064697,-7.2961,5.021,1.6867,0.0027489,0.030849,-0.0033598
0.058624,-7.2569,4.9426,1.726,-0.0009163,0.029627,-0.0012217
0.056824,-7.2569,5.0995,1.726,-0.0088575,0.002138,0.0024435
0.066315,-7.4923,5.0798,1.6867,-0.019548,0.0045815,0.0064141
0.066315,-7.2961,5.0798,1.6671,-0.015272,0.0036652,-0.0024435
0.068512,-7.2961,5.021,1.726,-0.014966,0.0048869,-0.0012217
0.059662,-7.2961,5.0798,1.726,-0.016188,0.0061087,0.0015272
0.075409,-7.4334,5.0602,1.726,-0.012523,0.0051924,0.002138
0.070679,-7.2373,5.0798,1.7848,-0.0097738,0.0039706,0.0009163
0.05838,-7.4334,5.021,1.726,-0.0097738,0.0042761,0
0.050598,-7.2569,5.0798,1.726,-0.0097738,0.0048869,-0.0058032
0.055328,-7.4334,5.0798,1.6867,-0.012828,0.0067195,-0.0030543
0.048615,-7.2765,5.021,1.7456,-0.013744,0.012523,0.0064141
0.047333,-7.4334,5.021,1.726,-0.015577,0.01741,0.0027489
0.03833,-7.2569,5.0995,1.824,-0.019548,0.020769,-0.0018326
0.035034,-7.2765,5.021,1.8044,-0.021991,0.020769,-0.0036652
0.032928,-7.2765,5.0602,1.8044,-0.020159,0.02138,-0.0051924
0.027313,-7.4334,5.021,1.7456,-0.019853,0.021686,-0.0058032
0.029968,-7.3354,5.0602,1.7456,-0.016493,0.030238,-0.0076358
0.04538,-7.4334,5.0798,1.726,-0.032987,0.034514,-0.0033598
0.052673,-7.2765,5.021,1.726,-0.045509,0.032376,0.0024435
0.063965,-7.3354,5.0602,1.8044,-0.049786,0.032376,0.0064141
0.067108,-7.4531,5.021,1.726,-0.044288,0.033903,0.0064141
0.068726,-7.5119,5.0995,1.824,-0.034208,0.035736,0.00030543
0.092468,-7.4923,5.0602,1.726,-0.0051924,0.036957,-0.0073304
0.097992,-7.7473,5.0798,1.8044,-0.0064141,0.033598,-0.010385
0.085876,-7.4334,5.021,1.8044,0.00030543,0.01069,0.0027489
0.07605,-7.1785,5.0995,1.726,-0.0061087,0.014661,0.002138
0.078857,-7.1981,5.0602,1.6671,-0.007025,0.017715,0.009163
0.099762,-7.4923,5.0995,1.7848,-0.0082467,0.019242,0.0058032
0.10208,-7.2765,4.9426,1.6475,-0.010385,0.019242,0.002138
0.089539,-7.4923,5.0602,1.7848,-0.0073304,0.019853,0.0012217
0.090729,-7.2569,4.9622,1.6475,-0.0061087,0.022602,0.0012217
0.088959,-7.355,5.0995,1.6671,-0.0033598,0.024435,0.0024435
0.086731,-7.2569,5.021,1.6867,-0.0058032,0.027184,-0.0097738
0.084839,-7.4334,5.0798,1.7848,-0.0024435,0.029627,-0.0079412
0.08844,-7.2569,4.9622,1.7456,-0.0079412,0.029016,0.0012217
0.094849,-7.4923,5.0602,1.7848,-0.007025,0.030543,0.0012217
0.10059,-7.2373,5.021,1.726,-0.01069,0.033598,0
0.094482,-7.4923,5.1191,1.8437,-0.016188,0.034514,-0.0027489
0.094788,-7.2765,4.9622,1.6867,-0.018326,0.035736,-0.0076358
0.087585,-7.4923,5.0014,1.8044,-0.011606,0.036346,-0.010996
0.080078,-7.2373,5.0602,1.6671,-0.020464,0.033598,-0.0027489
0.081726,-7.4334,5.1191,1.6279,-0.030238,0.028711,0
0.075562,-7.4334,5.0602,1.824,-0.034514,0.030238,0.00030543
0.074127,-7.4334,5.021,1.6867,-0.032376,0.03207,0.0051924
0.075958,-7.2765,5.021,1.726,-0.025045,0.033903,0
0.065063,-7.2569,5.0602,1.6867,-0.014355,0.033598,-0.0079412
0.06601,-7.4334,5.0995,1.726,-0.0042761,0.029932,-0.011606
0.063812,-7.3942,5.021,1.6671,-0.0073304,0.027794,-0.0082467
0.07959,-7.4334,4.9622,1.726,-0.0067195,0.012828,-0.0064141
0.08963,-7.6688,5.021,1.726,0.0030543,0.012828,-0.0079412
0.096497,-7.2765,5.0014,1.6475,0.0064141,0.013134,0.0045815
0.097473,-7.2569,4.9426,1.726,0.007025,0.015577,0.002138
0.10052,-7.4138,5.021,1.6475,0.0027489,0.018021,-0.0048869
0.10214,-7.2569,5.1191,1.6867,-0.0036652,0.018326,-0.0067195
0.092072,-7.6688,5.0995,1.8437,-0.0085521,0.015882,-0.0064141
0.095398,-7.4334,5.0995,1.6671,-0.012523,0.013134,-0.007025
0.089996,-7.4334,5.0995,1.726,0.0097738,0.017104,0.0061087
0.10159,-7.5511,5.0995,1.8044,-0.045509,0.023518,0.0018326
0.094421,-7.4923,5.0995,1.824,-0.044593,0.021686,-0.0015272
0.072937,-7.2569,5.0995,1.6475,-0.039706,0.018631,0.00061087
0.069519,-7.4334,5.0798,1.5887,-0.030543,0.017104,-0.00061087
0.067291,-7.4923,5.0602,1.8044,-0.018631,0.014661,-0.0042761
0.066284,-7.4334,4.9426,1.726,-0.0051924,0.014355,-0.0009163
0.064392,-7.4334,5.0602,1.6475,0.0054978,0.013744,0.0045815
0.06189,-7.2569,4.9229,1.6475,0.0094684,0.012523,0.013134
0.061737,-7.5707,5.0798,1.8044,0,0.0085521,0.014355
0.075623,-7.4138,5.0995,1.6867,-0.017104,0.0079412,-0.00061087
0.079559,-7.4138,5.1583,1.726,-0.027794,0.01069,0.0015272
0.070892,-7.2373,5.021,1.6475,-0.027794,0.011912,0.0033598
0.087158,-7.2569,5.021,1.6475,-0.02474,0.011912,0.0012217
0.084778,-7.2961,5.0602,1.6671,-0.018937,0.010996,0.00061087
0.072998,-7.5511,5.0602,1.8044,-0.01405,0.0097738,0.0048869
0.065155,-7.4334,5.0995,1.726,-0.012523,0.013134,0.0018326
0.070709,-7.5511,5.0014,1.7848,-0.015577,0.016188,0.0036652
0.072418,-7.4334,4.9426,1.6475,-0.027184,0.020464,0.0097738
0.063965,-7.3942,4.9426,1.7848,-0.039706,0.020159,0.0067195
0.04953,-7.4334,5.021,1.6475,-0.045815,0.018937,0.0054978
0.044434,-7.4531,5.0602,1.8044,-0.041844,0.01741,0.0009163
0.051147,-7.4334,5.0602,1.7848,-0.03146,0.014355,-0.0033598
0.054535,-7.355,5.0798,1.726,-0.018631,0.011912,-0.0024435
0.074829,-7.355,5.0995,1.726,-0.0027489,0.019242,-0.0036652
0.085022,-7.4138,5.0995,1.6671,-0.028711,0.021075,-0.0058032
0.095734,-7.4531,5.0995,1.6475,-0.034208,0.022602,-0.0030543
0.09671,-7.2569,5.0602,1.6867,-0.035125,0.025045,-0.0024435
0.10782,-7.3942,5.0602,1.6671,-0.027184,0.023824,-0.007025
0.10284,-7.1981,5.0798,1.6475,-0.019853,0.022297,-0.010079
0.094482,-7.2765,5.0602,1.6475,-0.01405,0.019242,-0.0076358
0.097748,-7.355,5.2171,1.7456,-0.0085521,0.018326,-0.0042761
0.1015,-7.3354,5.0995,1.6475,-0.014355,0.019548,-0.013134
0.095612,-7.4923,5.021,1.726,-0.015577,0.018326,-0.012828
0.092377,-7.2373,4.9622,1.6475,-0.014661,0.019242,-0.0064141
0.10086,-7.4923,5.0995,1.726,-0.011606,0.022907,-0.0058032
0.095917,-7.2569,5.021,1.6475,-0.0067195,0.026267,-0.0085521
0.087921,-7.4334,5.0995,1.726,0.0027489,0.023824,-0.012828
0.083588,-7.4923,5.021,1.8044,-0.0042761,0.020159,-0.013744
0.087646,-7.2961,4.8445,1.6475,-0.0097738,0.01741,-0.013134
0.087585,-7.355,5.021,1.6867,0.0054978,0.014966,-0.019242
0.09433,-7.4531,5.021,1.6475,-0.010996,0.01405,-0.011301
0.084381,-7.4138,5.0995,1.6671,-0.018021,0.01405,-0.010996
0.099915,-7.2569,5.0602,1.6475,-0.01741,0.016493,-0.0076358
0.084503,-7.2961,5.021,1.6867,-0.012828,0.026573,-0.0064141
0.089661,-7.3942,5.021,1.6867,-0.0067195,0.034514,-0.0088575
0.0849,-7.355,5.0602,1.726,0.010079,0.03543,-0.016493
0.069397,-7.4334,5.0995,1.6475,0.01405,0.032987,-0.021991
0.058411,-7.2765,5.021,1.6475,-0.019242,0.030543,-0.017715
0.068359,-7.355,5.0602,1.5887,-0.031765,0.033903,-0.012217
0.060669,-7.2569,4.9622,1.726,-0.040928,0.033903,-0.0094684
0.055542,-7.5511,5.0995,1.8437,-0.037874,0.030543,-0.011606
0.049133,-7.5511,5.0995,1.8044,-0.029627,0.024435,-0.011606
0.055267,-7.2569,5.021,1.6867,-0.018021,0.019548,-0.012523
0.063751,-7.5511,4.9229,1.7848,-0.0054978,0.016799,-0.019242
0.063995,-7.2569,5.0602,1.7456,-0.011301,0.014355,-0.02138
0.064514,-7.2569,5.1191,1.6867,0.0045815,0.002138,-0.0088575
0.09137,-7.8061,4.9622,1.5887,-0.007025,0.0085521,-0.0009163
0.10461,-7.3942,5.021,1.6867,-0.013744,0.009163,-0.0076358
0.10959,-7.2569,5.0798,1.5887,-0.022907,0.0076358,-0.0058032
0.097748,-7.4334,5.0602,1.5887,-0.029322,0.0094684,-0.0088575
0.11819,-7.3942,5.021,1.6475,-0.025656,0.0088575,-0.015272
0.11142,-7.2961,4.9229,1.6671,-0.014966,0.0048869,-0.017104
0.10849,-7.355,5.0014,1.6671,-0.0033598,0.0018326,-0.014355
0.098969,-7.355,4.9426,1.6867,0.0064141,0.0009163,0.0024435
0.10059,-7.2765,5.021,1.6671,0.0009163,-0.0033598,0.0088575
0.11084,-7.3354,4.9622,1.6867,-0.013744,-0.00030543,0.0042761
0.10486,-7.2961,4.9229,1.726,-0.0281,0.0036652,0.0048869
0.11945,-7.355,4.9229,1.6671,-0.032376,0.0054978,0.0015272
0.1015,-7.2765,4.9426,1.6867,-0.030238,0.0058032,-0.0039706
0.10583,-7.3942,5.0014,1.6867,-0.027184,0.0039706,-0.0064141
0.11874,-7.4923,5.0602,1.726,-0.023213,0.00030543,-0.0042761
0.11267,-7.3942,4.9622,1.6671,-0.018937,-0.0018326,0.0027489
0.11481,-7.3942,5.0995,1.726,-0.021991,0,0.009163
0.12598,-7.2569,4.9426,1.726,-0.035125,-0.0009163,0.013134
0.12869,-7.4531,4.9622,1.6279,-0.047342,-0.0033598,0.014355
0.12891,-7.4531,5.0602,1.8044,-0.050702,-0.0018326,0.011606
0.13177,-7.2765,5.1191,1.6671,-0.045815,0.00061087,0.0079412
0.13837,-7.4334,5.0014,1.5887,-0.03543,0.00061087,0.002138
0.13147,-7.4138,5.021,1.6475,-0.02474,-0.00030543,-0.00030543
0.12811,-7.2765,5.021,1.8044,-0.0073304,0.009163,-0.011606
0.10797,-7.2569,4.9622,1.6867,-0.016188,0.0064141,-0.0097738
0.12213,-7.355,5.021,1.6475,-0.018326,0.007025,-0.0094684
0.11752,-7.4531,4.9426,1.6671,-0.022602,0.0058032,-0.0097738
0.11609,-7.3942,4.9229,1.6475,-0.02474,0.0036652,-0.012217
0.10635,-7.4334,5.0014,1.6671,-0.024129,0.0036652,-0.014661
0.11703,-7.2569,4.9426,1.6671,-0.019242,0.0027489,-0.014355
0.12012,-7.355,4.9426,1.726,-0.012828,0.0015272,-0.014355
0.12653,-7.2569,4.8445,1.6475,-0.0054978,0.03207,0.015577
0.13513,-7.355,5.0014,1.726,0.0039706,0.030543,0.0076358
0.14615,-7.4138,5.021,1.6475,0.015577,0.026878,0.010385
0.13614,-7.2765,5.021,1.726,0.019242,0.02138,0.010079
0.12949,-7.355,4.9426,1.6867,0.012828,0.020464,0.0088575
0.12555,-7.5119,5.0602,1.8044,0.0036652,0.019853,0.0079412
0.11981,-7.7473,5.1583,1.8044,-0.013134,0.016493,0.012828
0.13077,-7.355,5.0014,1.6867,-0.012828,0.017104,0.017104
0.13812,-7.2569,4.9229,1.6475,-0.0045815,0.018631,0.0018326
0.1347,-7.4923,5.0602,1.8044,-0.0018326,0.018631,-0.00061087
0.13889,-7.4334,5.1191,1.726,0.0030543,0.018021,-0.0030543
0.14963,-7.2569,5.0798,1.7456,0.0058032,0.017104,-0.0067195
0.15439,-7.355,4.9229,1.6475,-0.00030543,0.014661,-0.0018326
0.14911,-7.355,5.0602,1.726,-0.007025,0.014355,0.0058032
0.14951,-7.2569,5.0995,1.8044,-0.0039706,0.014966,0.01069
0.15323,-7.4334,5.1583,1.8437,-0.0064141,0.014355,0.0079412
0.15176,-7.3942,5.021,1.6867,-0.0045815,0.01405,0.0064141
0.1525,-7.3942,4.9622,1.726,0.0009163,0.013439,0.0054978
0.14413,-7.2961,4.9229,1.6867,0.0058032,0.012523,-0.0009163
0.15125,-7.355,4.9229,1.8044,0.0054978,0.011301,-0.0009163
0.16312,-7.2765,4.9229,1.726,0.0012217,0.011301,0.0018326
0.16251,-7.4531,4.9426,1.8044,-0.0039706,0.011606,0.0067195
0.14413,-7.4334,5.021,1.726,-0.010385,0.013439,0.009163
0.14456,-7.4923,5.0995,1.824,-0.0097738,0.011912,0.0082467
0.14813,-7.2961,5.0014,1.726,-0.012217,0.018937,0.020159
0.14935,-7.2569,5.021,1.726,0.0045815,0.018326,0.015882
0.14291,-7.2569,5.0602,1.8044,-0.012217,0.020464,0.025962
0.14728,-7.7473,5.0995,1.824,-0.020769,0.020464,0.017715
0.14749,-7.2569,5.0995,1.7848,-0.020769,0.018937,0.01405
0.14783,-7.4531,5.0602,1.6475,-0.018021,0.02138,0.018326
0.14374,-7.2765,5.0995,1.6671,-0.015577,0.026267,0.024129
0.14578,-7.4334,5.1191,1.726,-0.01405,0.03146,0.023518
0.15295,-7.2569,5.021,1.6867,-0.024435,0.023213,-0.020769
0.18311,-7.61,4.9229,1.6279,-0.019242,0.021991,-0.020769
0.17599,-7.2961,5.0798,1.7848,-0.016799,0.024129,-0.0033598
0.18112,-7.4334,5.0798,1.6671,-0.01741,0.025962,-0.0048869
0.1799,-7.2569,5.0602,1.6671,-0.020159,0.026878,-0.010385
0.18317,-7.4334,5.0014,1.6475,-0.021991,0.028711,-0.012828
0.16531,-7.4923,5.021,1.6867,-0.025351,0.030238,-0.011912
0.16531,-7.2961,5.0798,1.726,-0.025962,0.030849,-0.014966
0.16257,-7.4923,5.0602,1.7848,-0.024129,0.029627,0.00030543
0.15887,-7.3354,4.9229,1.5887,-0.022602,0.028711,-0.0076358
0.14661,-7.4334,4.9229,1.5298,-0.021991,0.024435,-0.016493
0.1409,-7.2961,5.0995,1.6671,-0.019242,0.019853,-0.011301
0.14377,-7.355,5.0995,1.726,-0.021075,0.021075,-0.0082467
0.15091,-7.2569,5.0406,1.6475,-0.027794,0.023518,-0.0067195
0.14087,-7.4531,5.021,1.6671,-0.040928,0.025045,-0.0018326
0.14713,-7.355,5.021,1.7848,-0.051313,0.029932,0.00061087
0.14923,-7.4923,5.0798,1.8044,-0.0085521,0.021991,-0.0088575
0.14496,-7.2961,5.0602,1.726,-0.027794,0.025656,-0.0085521
0.13477,-7.2569,4.9622,1.6475,-0.029016,0.026267,-0.018631
0.13724,-7.2961,5.1191,1.726,-0.026267,0.023518,-0.01741
0.14847,-7.2569,5.021,1.6867,-0.017104,0.021075,-0.018937
0.15112,-7.4334,5.021,1.8044,-0.0097738,0.018326,-0.017715
0.146,-7.5119,5.021,1.7848,-0.0051924,0.016493,-0.015272
0.1358,-7.2569,5.021,1.6475,-0.0051924,0.015272,-0.011912
0.13806,-7.2765,5.021,1.6867,-0.0088575,0.01741,-0.015882
0.14847,-7.2961,5.0602,1.726,-0.015577,0.021686,-0.010079
0.15381,-7.3354,5.021,1.6475,-0.027489,0.020769,-0.0085521
0.1481,-7.355,5.0995,1.6475,-0.036652,0.020159,-0.0073304
0.15454,-7.2569,5.0798,1.6475,-0.045509,0.022602,-0.0039706
0.15146,-7.4334,5.0602,1.6279,-0.049175,0.025351,-0.0051924
0.16318,-7.3354,5.021,1.6475,-0.041844,0.027184,-0.012217
0.15448,-7.3942,5.0014,1.6671,-0.032987,0.025656,-0.015272
0.16287,-7.3354,4.8445,1.6475,-0.010079,0.012828,-0.0094684
0.18033,-7.355,5.021,1.7456,-0.014355,0.010385,-0.0079412
0.18643,-7.355,5.021,1.6671,-0.017715,0.015577,-0.0064141
0.19189,-7.4334,4.9426,1.6867,-0.017104,0.018631,-0.0082467
0.19946,-7.3354,5.021,1.6867,-0.015272,0.018937,-0.011606
0.18781,-7.3354,5.0014,1.726,-0.011912,0.016493,-0.015272
0.20044,-7.4138,5.021,1.6475,-0.0042761,0.01405,-0.014966
0.21063,-7.4923,5.0602,1.824,-0.0048869,0.013134,-0.011301
0.20947,-7.4334,5.021,1.6867,-0.017715,0.017104,-0.010996
0.21054,-7.355,5.021,1.7456,-0.030238,0.014355,-0.0048869
0.20004,-7.2569,4.9622,1.6867,-0.021991,0.018631,-0.013744
0.21185,-7.355,5.021,1.726,-0.016493,0.022907,-0.013439
0.20563,-7.3942,5.021,1.6475,-0.018021,0.015882,-0.0097738
0.21417,-7.355,5.021,1.726,-0.024129,0.0079412,-0.0051924
0.19891,-7.3354,5.0798,1.726,-0.022907,0.0082467,-0.002138
0.20367,-7.4334,5.0798,1.726,-0.016493,0.010079,-0.0058032
0.20636,-7.4334,5.0798,1.6671,-0.014355,0.0088575,-0.0015272
0.20935,-7.5119,5.021,1.7456,-0.024129,0.0067195,0.00030543
0.19739,-7.355,5.021,1.6867,-0.027184,0.0061087,-0.0027489
0.19928,-7.5511,5.0014,1.7848,-0.029016,0.0094684,-0.0039706
0.20032,-7.4138,5.021,1.6671,-0.026267,0.011301,-0.0058032
0.19727,-7.4138,5.0798,1.6475,-0.021991,0.0088575,-0.0073304
0.17572,-7.4531,4.9622,1.6475,-0.01741,0.0079412,-0.0061087
0.18073,-7.355,4.9229,1.6475,-0.013744,0.009163,-0.0045815
0.18567,-7.4923,4.9229,1.6475,-0.026878,0.0082467,-0.0079412
0.18719,-7.4138,4.9622,1.6671,-0.028711,0.0058032,-0.007025
0.16687,-7.4923,4.9426,1.6475,-0.027489,0.0067195,0
0.17468,-7.2569,4.9229,1.6867,-0.019853,0.0079412,-0.0024435
0.17218,-7.3354,4.9033,1.6671,-0.01069,0.0079412,-0.0064141
0.17474,-7.7473,5.0602,1.8044,-0.0054978,0.0088575,-0.0076358
0.15698,-7.355,5.0602,1.726,-0.018631,0.01069,-0.007025
0.14987,-7.4334,5.0602,1.7848,-0.024129,0.01405,-0.0085521
0.15356,-7.355,4.9622,1.6475,-0.017104,0.0079412,-0.0094684
0.16971,-7.8845,4.9229,1.5887,-0.00030543,0.012828,-0.0048869
0.1651,-7.2569,5.0014,1.726,-0.0015272,0.018631,0.0051924
0.17691,-7.2569,5.021,1.726,-0.011606,0.020464,0.0039706
0.17432,-7.4334,4.9426,1.6867,-0.026878,0.019853,0.0018326
0.181,-7.5511,4.8641,1.7848,-0.037263,0.017715,-0.0018326
0.18457,-7.5707,4.9622,1.6475,-0.040012,0.015882,-0.0067195
0.18057,-7.2569,4.9426,1.726,-0.032681,0.013134,-0.0094684
0.18802,-7.1785,5.0602,1.6475,-0.022297,0.01069,-0.015882
0.19711,-7.1785,4.9426,1.5887,0.0018326,0.0088575,-0.014966
0.18909,-7.6492,5.0014,1.6867,0.015272,0.010385,0.0024435
0.18637,-7.2765,4.9229,1.6867,0.013134,0.015882,0.0024435
0.18643,-7.4923,5.021,1.6475,0.0027489,0.019242,0.0027489
0.19556,-7.3942,5.021,1.6867,-0.015272,0.020464,-0.0009163
0.19666,-7.4334,4.9229,1.6475,-0.0281,0.022907,-0.0067195
0.18637,-7.4334,4.8445,1.6475,-0.029627,0.023213,-0.011606
0.19119,-7.4138,4.9426,1.6671,-0.017104,0.019548,0.0018326
0.20068,-7.2569,4.9426,1.6475,-0.0088575,0.018021,-0.0024435
0.20056,-7.4334,4.9426,1.6475,-0.0027489,0.013744,-0.0058032
0.19373,-7.355,4.9426,1.6671,-0.0039706,0.0094684,0.00061087
0.19678,-7.4923,4.9622,1.726,-0.012217,0.0067195,0.00061087
0.19626,-7.2765,4.9622,1.726,-0.022602,0.0067195,-0.00061087
0.20001,-7.5903,5.0798,1.8044,-0.033292,0.0082467,-0.0009163
0.19843,-7.2961,4.9622,1.6671,-0.039401,0.01069,0.0015272
0.20288,-7.355,4.9229,1.6867,-0.038179,0.012523,-0.0027489
0.21387,-7.3942,5.021,1.6475,-0.029322,0.01405,-0.0015272
0.19412,-7.5119,5.021,1.8044,-0.020769,0.018937,-0.0061087
0.1889,-7.2569,4.9229,1.6867,-0.01741,0.018631,-0.0076358
0.18033,-7.5511,5.021,1.8044,-0.016799,0.016188,-0.002138
0.18726,-7.2569,4.9229,1.6867,-0.016188,0.015577,0.0024435
0.17941,-7.5119,4.9622,1.824,-0.018326,0.016493,0.0018326
0.17334,-7.4531,4.9622,1.6475,-0.019548,0.015272,-0.002138
0.18402,-7.4334,4.9229,1.7848,-0.0054978,0.0097738,0.0027489
0.2045,-7.2961,4.9229,1.6867,-0.0064141,0.0097738,0.007025
0.20609,-7.4531,4.9229,1.8437,-0.014966,0.010996,0.0051924
0.20978,-7.4531,4.9622,1.6671,-0.021075,0.013744,0.0033598
0.21338,-7.4531,4.9622,1.7848,-0.025656,0.014966,0.002138
0.21573,-7.2765,5.0014,1.6475,-0.020769,0.015882,-0.00061087
0.20749,-7.3942,4.9229,1.7456,-0.01069,0.017715,-0.0024435
0.20328,-7.2569,4.9229,1.7848,-0.0058032,0.017715,-0.002138
0.20709,-7.3942,4.9229,1.6867,-0.0097738,0.019242,0.0048869
0.19595,-7.2765,4.9622,1.726,-0.0067195,0.021686,0.012523
0.2048,-7.4923,5.021,1.6867,0.0012217,0.020769,0.0024435
0.18018,-7.4334,4.9229,1.6867,0.013134,0.018326,-0.0042761
0.16394,-7.4923,4.9622,1.726,0.018631,0.015272,-0.0039706
0.16394,-7.4531,4.9622,1.6671,0.010996,0.011912,-0.00030543
0.16693,-7.4138,5.0995,1.726,-0.0058032,0.011301,-0.0027489
0.16983,-7.2569,4.9622,1.7848,-0.0088575,0.0097738,-0.0030543
0.16971,-7.2569,4.8445,1.6475,-0.023518,0.0073304,0.010385
0.17841,-7.3354,4.9426,1.726,-0.024129,0.0061087,0.0073304
0.17477,-7.4334,5.021,1.6867,-0.020769,0.0082467,0.01069
0.16843,-7.4334,5.0602,1.6867,-0.015272,0.0094684,0.0042761
0.17575,-7.4334,5.021,1.726,-0.0097738,0.0079412,0.00061087
0.18301,-7.3942,4.9229,1.726,-0.0082467,0.0079412,0.0036652
0.17712,-7.2569,4.9426,1.6867,-0.0042761,0.010385,0.0094684
0.16873,-7.3942,5.021,1.6475,-0.017715,0.013134,0.011301
0.17325,-7.2765,4.9229,1.6475,-0.016493,0.011912,-0.00030543
0.16837,-7.4531,4.9622,1.8044,-0.018326,0.0085521,0.0015272
0.17224,-7.4531,4.9426,1.6867,-0.01069,0.0079412,0.0054978
0.17035,-7.355,4.9622,1.726,0.00030543,0.009163,0.0033598
0.16235,-7.355,4.7856,1.6867,0.0073304,0.0094684,0.0015272
0.15884,-7.5707,4.9033,1.6475,0.011606,0.0088575,0.0024435
0.15857,-7.4531,4.9033,1.7848,-0.011912,0.0085521,0.00061087
0.15753,-7.3354,4.9229,1.726,-0.013439,0.010385,-0.00061087
0.16605,-7.2765,4.9229,1.6867,-0.025045,0.023213,0.0018326
0.18991,-7.963,4.9229,1.726,-0.024129,0.022907,-0.0012217
0.19571,-7.4334,4.9229,1.5691,-0.021686,0.023518,0.00030543
0.21115,-7.355,5.021,1.6867,-0.020159,0.024435,-0.0018326
0.20883,-7.5511,5.021,1.6475,-0.023824,0.023213,0.0012217
0.20422,-7.355,4.9229,1.5887,-0.027489,0.021991,0.0039706
0.21115,-7.3942,4.9622,1.6475,-0.030238,0.024129,0.0064141
0.20428,-7.3354,4.9426,1.6279,-0.030238,0.023518,0.0058032
0.21112,-7.5119,5.021,1.726,-0.027489,0.022602,0.0076358
0.20993,-7.4138,5.0014,1.6867,-0.025045,0.023824,0.0051924
0.19809,-7.2961,4.7856,1.6475,-0.019548,0.018937,0.00030543
0.18738,-7.355,5.021,1.6867,-0.014355,0.015577,0.0027489
0.18124,-7.4923,5.021,1.6475,-0.014355,0.014355,0.0064141
0.18799,-7.3942,5.0602,1.6475,-0.016493,0.013439,0.0067195
0.19113,-7.2569,5.021,1.5887,-0.020159,0.010996,0.0061087
0.19141,-7.2765,5.021,1.6279,-0.023824,0.009163,0.0082467
0.18298,-7.7473,5.021,1.8044,-0.022907,0.0088575,0.009163
0.18802,-7.4138,5.021,1.6475,-0.022297,0.0064141,0.0088575
0.18176,-7.5511,5.0014,1.8044,-0.018937,0.0061087,0.0042761
0.17502,-7.5511,5.021,1.8044,-0.01405,0.0054978,0.0061087
0.18875,-7.355,4.9426,1.726,-0.010996,0.0042761,0.0094684
0.19318,-7.355,5.021,1.7848,-0.011301,0.0039706,0.010079
0.18155,-7.355,4.9229,1.7456,-0.012523,0.002138,0.010385
0.16898,-7.4334,5.021,1.7456,-0.010385,0.0030543,0.010996
0.15576,-7.5119,5.021,1.824,-0.023518,0.022297,0.002138
0.15884,-7.2961,4.9229,1.726,-0.029322,0.026267,0.0027489
0.14719,-7.5903,5.0798,1.8044,-0.033903,0.025045,-0.0030543
0.14163,-7.2961,4.9229,1.726,-0.033292,0.024435,-0.0027489
0.12903,-7.5707,5.021,1.8044,-0.03146,0.02474,-0.0045815
0.13223,-7.3354,4.9622,1.7456,-0.027489,0.022907,-0.0039706
0.12943,-7.4138,5.021,1.726,-0.024435,0.021991,-0.0036652
0.12857,-7.4138,5.0602,1.6475,-0.022297,0.02138,-0.00061087
0.14185,-7.4531,4.9622,1.6279,-0.0082467,0.022602,0.015882
0.16138,-7.4923,4.9229,1.6475,-0.0027489,0.021075,0.010996
0.16025,-7.4334,5.021,1.6867,0.0042761,0.020464,0.0088575
0.17004,-7.3354,5.021,1.6475,0.0048869,0.018631,0.0085521
0.18307,-7.6492,5.0995,1.7848,-0.0033598,0.018326,0.0073304
0.17432,-7.4138,4.9622,1.6475,-0.012523,0.017104,0.0067195
0.17667,-7.4923,5.021,1.726,-0.022602,0.016799,0.010079
0.18677,-7.2961,4.9622,1.6279,-0.012523,0.018021,0.013744
0.18045,-7.3942,4.9229,1.6475,-0.0097738,0.019853,-0.025351
0.1687,-7.4334,4.9622,1.726,0.00030543,0.020769,-0.0064141
0.17947,-7.2961,4.9229,1.726,0.0082467,0.020159,0.0045815
0.17688,-7.4531,4.9426,1.6671,0.02474,0.016188,-0.00030543
0.18671,-7.3354,5.0602,1.6867,0.067195,0.011912,0.0015272
0.17105,-7.2961,5.0602,1.6867,0.11912,0.0051924,0.0067195
0.16986,-7.2373,4.9229,1.6475,-0.01741,0.0012217,0.010385
0.17502,-7.5707,4.9622,1.7848,-0.018326,0.0061087,0.0009163
0.18643,-7.4334,5.021,1.6671,-0.0018326,0.015882,0.0015272
0.18478,-7.2569,5.0995,1.6867,0.013134,0.018326,0.0054978
0.18015,-7.2765,4.9033,1.6671,0.002138,0.021075,0.012523
0.17816,-7.2961,4.9426,1.6867,-0.0079412,0.022297,0.007025
0.17349,-7.4138,5.021,1.6867,-0.015882,0.022907,0.0030543
0.15607,-7.4138,5.0014,1.6671,-0.020159,0.023824,0.00061087
0.15274,-7.3942,5.021,1.6671,-0.01741,0.021991,-0.00061087
0.15219,-7.4334,5.0798,1.726,-0.0094684,0.019242,-0.00030543
0.15155,-7.355,5.0798,1.726,-0.026573,0.018021,0.0054978
0.12918,-7.4923,5.021,1.8044,0.00061087,0.016799,0.0076358
0.13721,-7.355,4.9229,1.7456,-0.0042761,0.017104,0.0085521
0.13248,-7.2569,5.021,1.6475,-0.01069,0.017715,0.0085521
0.13751,-7.4923,4.766,1.6475,-0.018631,0.019242,0.007025
0.12521,-7.2765,5.0014,1.6671,-0.025045,0.021075,0.0045815
0.1268,-7.355,5.276,1.8829,-0.028711,0.021075,0.0048869
0.12421,-7.355,5.1191,1.6867,-0.029016,0.022602,0.0054978
0.12848,-7.2569,4.9033,1.5691,-0.0088575,0.01741,-0.0039706
0.14166,-7.5903,4.7072,1.5298,-0.01069,0.021686,0.0027489
0.16159,-7.2569,5.0602,1.8044,-0.013439,0.019548,-0.0024435
0.15866,-7.4138,5.1191,1.6867,-0.014661,0.015882,-0.0054978
0.15735,-7.4923,5.1583,1.8044,-0.014355,0.014966,-0.0064141
0.15277,-7.2765,4.9033,1.6279,-0.0058032,0.013744,-0.0082467
0.15356,-7.4923,4.9426,1.726,0.0058032,0.01069,-0.010385
0.14453,-7.2569,4.9229,1.6475,0.010996,0.0061087,-0.010385
0.13354,-7.4923,5.0995,1.8044,0.0048869,0.0036652,0.0061087
0.12836,-7.2961,5.0995,1.6867,-0.0058032,0.002138,0.0073304
0.12375,-7.5511,5.021,1.8044,-0.019242,0.007025,0.007025
0.12329,-7.4334,4.9426,1.6279,-0.029627,0.01069,0.0048869
0.12857,-7.4334,5.021,1.6671,-0.031154,0.009163,-0.0024435
0.12537,-7.355,4.9622,1.6867,-0.025656,0.0073304,-0.0082467
0.12836,-7.355,5.0995,1.8044,-0.024129,0.0058032,-0.0082467
0.14005,-7.1785,5.021,1.6671,-0.025351,0.0058032,-0.0009163
0.12369,-7.355,5.021,1.726,-0.03207,0.014966,0.0073304
0.12476,-7.1785,4.9622,1.6475,-0.02138,0.014966,0.0073304
0.13443,-7.4334,4.9229,1.6867,-0.0281,0.013134,-0.0067195
0.13727,-7.3942,5.021,1.6475,-0.031154,0.009163,-0.0067195
0.14172,-7.4923,4.9622,1.6867,-0.03207,0.0067195,-0.0030543
0.13058,-7.4531,4.9622,1.6475,-0.03207,0.007025,0.0039706
0.12466,-7.4923,4.9229,1.6867,-0.030543,0.010079,0.0058032
0.13135,-7.4531,5.0014,1.6475,-0.029322,0.014355,0.0042761
0.11774,-7.4531,4.9622,1.726,-0.034819,0.017104,-0.0027489
0.10553,-7.4138,5.021,1.6475,-0.036041,0.019548,-0.0018326
0.11099,-7.4334,5.021,1.726,-0.036957,0.022297,0.0033598
0.12033,-7.4334,5.0602,1.6475,-0.035736,0.021075,-0.0009163
0.11548,-7.4334,5.0798,1.8044,-0.032681,0.019853,-0.0036652
0.11298,-7.4334,5.021,1.6475,-0.026267,0.018937,-0.0061087
0.11536,-7.2765,5.021,1.6475,-0.018326,0.017104,-0.0067195
0.12018,-7.2961,5.0602,1.6475,-0.011912,0.016188,-0.0039706
0.12802,-7.7669,5.0995,1.8044,-0.011606,0.0088575,0.0073304
0.1503,-7.355,5.0014,1.6475,-0.014661,0.010079,0.0094684
0.15298,-7.355,5.021,1.6475,-0.015272,0.0097738,0.0079412
0.15637,-7.2569,4.9622,1.6475,-0.014355,0.0085521,0.0073304
0.16144,-7.5511,5.021,1.726,-0.01741,0.0079412,-0.0009163
0.1571,-7.2961,4.9622,1.6671,-0.021991,0.0076358,-0.0051924
0.14639,-7.355,4.9622,1.6475,-0.0027489,0.0033598,-0.00061087
0.15088,-7.2569,4.9229,1.6475,-0.0076358,0.00061087,0.0024435
0.14706,-7.4923,5.0602,1.7848,-0.033292,0.019853,-0.012523
0.14633,-7.2373,4.9033,1.6867,-0.028711,0.023213,-0.011301
0.13315,-7.3942,5.0602,1.726,-0.029627,0.023213,-0.014661
0.13171,-7.3354,4.9229,1.6671,-0.025962,0.021991,-0.014966
0.13385,-7.5707,5.0798,1.8044,-0.0281,0.021686,-0.012523
0.12888,-7.2569,4.9229,1.6867,-0.031765,0.019242,-0.011301
0.12003,-7.5903,5.021,1.8044,-0.033598,0.019548,-0.010996
0.11118,-7.3354,5.0602,1.6475,-0.033903,0.018937,-0.012217
0.11545,-7.4334,5.021,1.6279,-0.018631,0.015882,-0.00061087
0.10535,-7.6492,5.021,1.7848,-0.012217,0.012523,-0.0012217
0.10663,-7.4334,4.9622,1.6475,-0.0097738,0.013134,-0.011301
0.11499,-7.3354,5.021,1.726,-0.0097738,0.011606,-0.010385
0.10416,-7.355,5.021,1.726,-0.013134,0.009163,-0.0079412
0.098785,-7.4531,5.0798,1.6671,-0.022297,0.0085521,-0.0058032
0.078644,-7.4334,5.0798,1.726,-0.031154,0.010079,-0.0039706
0.080597,-7.4334,5.0014,1.6475,-0.027184,0.01069,-0.0015272
0.08429,-7.4923,5.0602,1.8044,-0.029932,0.0097738,0.00030543
0.080414,-7.3354,4.9426,1.7456,-0.022907,0.012828,0.0030543
0.077087,-7.7473,5.021,1.726,-0.019242,0.014661,-0.002138
0.083008,-7.4923,4.9622,1.6671,-0.015882,0.014966,-0.00030543
0.084778,-7.3942,5.0602,1.726,-0.009163,0.013744,-0.00061087
0.079071,-7.4334,5.021,1.726,-0.0036652,0.010385,0.0024435
0.081085,-7.4138,4.9426,1.6867,-0.030543,0.009163,0.0048869
0.10199,-7.2569,5.0602,1.6475,-0.032987,0.0079412,0.0009163
0.09137,-7.4334,4.9229,1.5887,-0.028405,0.021686,-0.012828
0.098114,-7.7473,4.9229,1.6475,-0.018937,0.023518,-0.0088575
0.096619,-7.4334,4.9229,1.6279,-0.015272,0.018021,-0.014661
0.10941,-7.3942,4.9229,1.5887,-0.018631,0.01405,-0.009163
0.12061,-7.355,4.9229,1.6867,-0.022907,0.014661,-0.0051924
0.12167,-7.3354,4.9622,1.6475,-0.025962,0.011912,-0.0033598
0.11877,-7.355,4.9622,1.6671,-0.030543,0.010079,-0.0076358
0.12384,-7.4334,4.9622,1.6867,-0.032376,0.0082467,-0.012217
0.11465,-7.4334,4.9229,1.6867,-0.023824,0.0030543,-0.002138
0.11908,-7.2765,5.021,1.6475,-0.017715,0.0018326,-0.0024435
0.1192,-7.4923,4.9426,1.7456,-0.010079,0.0033598,-0.0033598
0.13239,-7.3942,5.0995,1.7456,-0.0094684,0.0027489,0.002138
0.12741,-7.5903,5.021,1.8044,-0.01405,0.0024435,0.0036652
0.11972,-7.4138,5.0602,1.7848,-0.018937,0.0024435,0.0036652
0.11865,-7.5903,5.021,1.8044,-0.022602,0.0048869,0.002138
0.12604,-7.4138,5.0602,1.7456,-0.020464,0.0039706,-0.0009163
0.12006,-7.355,5.021,1.7848,-0.012523,0.0009163,-0.00030543
0.11844,-7.4334,5.021,1.726,-0.0036652,-0.0024435,-0.00030543
0.11441,-7.2765,5.021,1.6671,0.00061087,-0.0012217,-0.00061087
0.11804,-7.2765,4.9229,1.726,-0.0030543,-0.0030543,0.002138
0.11267,-7.7473,5.0602,1.824,-0.01069,-0.0045815,0.007025
0.10687,-7.2961,4.9229,1.8044,-0.019853,-0.0027489,0.01069
0.1011,-7.355,5.021,1.726,-0.023824,-0.0012217,0.0079412
0.11499,-7.355,5.0602,1.726,-0.021991,-0.0024435,0.0024435
0.10898,-7.4138,5.021,1.8044,-0.017715,-0.0042761,0.0054978
0.085388,-7.355,5.021,1.726,-0.013134,-0.0064141,0.0036652
0.084442,-7.4923,5.021,1.824,-0.012523,-0.0076358,0.0027489
0.084839,-7.2765,4.9229,1.726,-0.013439,-0.009163,0.0067195
0.077606,-7.4334,5.021,1.8044,-0.013439,-0.010996,0.0097738
0.070648,-7.2765,4.9622,1.824,-0.016493,-0.010996,0.0088575
0.06131,-7.4138,4.9622,1.8044,-0.020464,-0.011912,0.0064141
0.070068,-7.4923,4.8445,1.8437,-0.026573,-0.011301,0.0051924
0.061615,-7.4334,4.9426,1.726,0.020769,0.036957,0.0018326
0.079193,-7.355,4.9622,1.726,-0.014661,0.036346,0
0.08551,-7.4923,4.9622,1.8044,-0.013439,0.033292,0.00061087
0.088745,-7.4138,4.9622,1.726,-0.0085521,0.029322,-0.0018326
0.079163,-7.4531,5.0602,1.7456,-0.002138,0.025045,-0.0012217
0.090363,-7.2765,4.9229,1.6867,0.0064141,0.023518,0.0009163
0.087524,-7.4531,5.021,1.726,0.013439,0.023518,0.0039706
0.082703,-7.4138,5.0798,1.6671,0.017104,0.025962,0.0048869
0.085571,-7.4923,4.9622,1.7848,0.01069,0.0281,0.00030543
0.10333,-7.4334,4.9622,1.6671,0.0088575,0.027489,-0.00061087
0.10004,-7.4138,5.0798,1.726,0.012523,0.03146,-0.002138
0.090424,-7.355,5.0798,1.6867,0.016493,0.035125,-0.0015272
0.087219,-7.355,5.0602,1.726,0.01405,0.035125,-0.0048869
0.092529,-7.355,4.9426,1.6475,0.0009163,0.031765,-0.012828
0.091156,-7.4334,4.9426,1.7848,0.020769,0.032987,-0.014661
0.087036,-7.5119,4.9622,1.6867,0.017104,0.03207,-0.0058032
0.089294,-7.4923,4.9622,1.8044,-0.026267,0.025351,0.025656
0.10147,-7.2569,4.9229,1.7848,-0.016493,0.021686,0.02474
0.10364,-7.2765,4.9229,1.7456,-0.0033598,0.015272,-0.0018326
0.10403,-7.2765,4.9229,1.726,0.0088575,0.010996,-0.0036652
0.094147,-7.7473,5.0995,1.9025,0.013134,0.0058032,-0.00030543
0.10391,-7.3942,4.9622,1.7848,0.009163,0.0015272,0.0058032
0.099518,-7.355,4.9622,1.8044,-0.016188,0.0027489,0.013439
0.10052,-7.4334,5.0798,1.8044,-0.026573,0.0054978,0.020769
0.097809,-7.4923,5.1191,1.8829,-0.012523,0.0027489,0.0094684
0.10141,-7.2961,5.0602,1.8437,0.010385,0.0048869,0.0058032
0.09491,-7.7473,5.0798,1.824,0.0015272,0.0061087,0.0085521
0.089478,-7.2961,5.0995,1.7848,-0.0076358,0.0097738,0.0088575
0.10123,-7.2569,5.0995,1.7848,-0.012217,0.015577,0.0058032
0.088348,-7.4334,5.0995,1.6867,-0.013439,0.020464,0.0030543
0.085175,-7.4923,5.0995,1.8044,-0.015882,0.023824,0.0061087
0.07431,-7.2569,4.9622,1.6867,-0.013744,0.031154,0.010385
0.097198,-7.4923,5.0798,1.8437,-0.018021,0.019853,-0.0045815
0.10812,-7.8061,4.9426,1.726,-0.023824,0.023824,-0.0009163
0.10583,-7.2569,5.0014,1.8044,-0.019548,0.025656,0.0061087
0.10767,-7.6492,5.021,1.8044,-0.014966,0.02474,0.0009163
0.11349,-7.4334,4.9033,1.8044,-0.010079,0.022907,-0.0033598
0.10449,-7.2961,5.0014,1.7456,-0.0039706,0.020464,-0.0012217
0.11099,-7.4334,4.9622,1.726,0.0024435,0.018937,-0.0012217
0.11798,-7.5511,5.0798,1.8437,0.0030543,0.014661,-0.0048869
0.11807,-7.2569,5.0014,1.7848,-0.0009163,0.011301,-0.0067195
0.10959,-7.4923,5.021,1.8829,-0.007025,0.0082467,-0.010385
0.10339,-7.2569,4.9622,1.726,-0.016188,0.013134,0.0030543
0.10175,-7.4531,5.0602,1.8437,-0.022602,0.018326,0.0018326
0.10684,-7.1785,4.9622,1.726,-0.026878,0.019548,0
0.10287,-7.4531,5.0602,1.8044,-0.030849,0.021075,0.00030543
0.084717,-7.2569,4.9229,1.6671,-0.030849,0.025351,0.0015272
0.088593,-7.5511,5.0995,1.7848,-0.025351,0.029627,-0.0012217
0.084747,-7.2569,4.9426,1.726,-0.020159,0.029932,-0.011301
0.076508,-7.4923,5.021,1.8044,-0.020769,0.029932,-0.013439
0.078857,-7.2569,5.0798,1.6475,-0.023518,0.024129,-0.0076358
0.085846,-7.355,5.0602,1.6279,-0.024129,0.021075,-0.002138
0.079681,-7.355,5.021,1.6475,-0.018631,0.021075,-0.0042761
0.084656,-7.3354,4.9229,1.6475,-0.012828,0.019548,-0.010385
0.081696,-7.4334,5.0798,1.6475,-0.0079412,0.019548,-0.01405
0.083801,-7.2569,5.0995,1.726,-0.0027489,0.019853,-0.013744
0.092163,-7.3354,5.0995,1.6867,-0.012217,0.012217,0.0073304
0.070709,-7.2569,5.021,1.7456,-0.0033598,0.014966,0.009163
0.074707,-7.4923,4.9426,1.726,-0.0024435,0.013134,0.011912
0.074219,-7.4923,4.9033,1.8044,-0.0054978,0.01069,0.011606
0.071472,-7.4923,5.0798,1.726,-0.0097738,0.012217,0.013439
0.065155,-7.5511,5.021,1.8437,-0.0094684,0.017715,0.012828
0.068817,-7.2373,4.9622,1.6475,-0.0076358,0.021075,0.0082467
0.071198,-7.2569,4.9229,1.6867,-0.0073304,0.019853,0.0045815
0.070862,-7.355,5.0798,1.7848,-0.018937,0.022297,-0.002138
0.086823,-7.2961,5.021,1.6867,-0.016493,0.019548,-0.002138
0.10245,-7.4923,5.021,1.8044,-0.01069,0.018937,-0.009163
0.10785,-7.4138,5.0995,1.726,-0.0033598,0.018937,-0.012523
0.11395,-7.2765,5.0995,1.6671,-0.0018326,0.016799,-0.012523
0.11606,-7.2961,5.021,1.726,-0.0048869,0.015577,-0.010079
0.10291,-7.2961,5.0995,1.726,-0.013744,0.015272,-0.0073304
0.10822,-7.355,5.0995,1.6867,-0.018326,0.015882,-0.0042761
0.10614,-7.4334,5.0995,1.7456,-0.019853,0.014661,-0.0042761
0.1048,-7.4334,5.0995,1.6671,-0.014661,0.018021,-0.0036652
0.09964,-7.4138,5.1191,1.7848,-0.010996,0.018631,-0.0015272
0.10318,-7.4334,5.1191,1.6671,-0.0097738,0.018326,-0.0073304
0.099335,-7.4923,5.0995,1.7848,-0.0051924,0.018937,-0.012828
0.095856,-7.3354,5.0798,1.726,-0.0027489,0.015882,-0.010079
0.089386,-7.5119,5.0602,1.8044,-0.010996,0.013134,-0.0033598
0.09964,-7.4138,5.0602,1.6475,-0.018631,0.012523,-0.0024435
0.10086,-7.355,5.0798,1.726,-0.024129,0.013744,-0.0012217
0.085388,-7.4727,5.0798,1.6867,-0.026267,0.014355,0.002138
0.084717,-7.4138,5.0995,1.726,-0.025045,0.01405,-0.0073304
0.08667,-7.4923,5.021,1.6475,-0.027184,0.014661,-0.0073304
0.098145,-7.5511,5.021,1.8044,-0.028405,0.015272,-0.0058032
0.084717,-7.4531,5.021,1.6867,-0.027184,0.015577,-0.0033598
0.08078,-7.4923,5.0602,1.8044,-0.023824,0.015577,-0.0027489
0.073456,-7.355,5.021,1.726,-0.02138,0.015882,-0.0018326
0.079193,-7.5511,5.021,1.8437,-0.03146,0.019548,0.00030543
0.06012,-7.355,5.0995,1.726,-0.023518,0.021991,-0.0036652
0.043243,-7.355,5.0995,1.7848,-0.013439,0.021686,0.002138
0.049225,-7.4138,5.021,1.726,-0.0073304,0.021686,-0.0058032
0.04303,-7.4923,5.0602,1.8044,-0.0073304,0.019548,-0.012828
0.037598,-7.4138,5.0602,1.6867,-0.0088575,0.018326,-0.010996
0.045441,-7.5511,5.0014,1.8044,-0.030543,0.020159,-0.0039706
0.038818,-7.3942,5.021,1.726,-0.03543,0.023518,-0.00030543
0.063934,-7.2569,4.9622,1.6475,-0.013439,0.012828,-0.011301
0.06842,-7.61,4.9229,1.5102,-0.010996,0.0061087,-0.0097738
0.080872,-7.2569,4.9229,1.5887,-0.019242,0.0058032,-0.0009163
0.084442,-7.708,5.0995,1.7848,-0.030238,0.0094684,0.0015272
0.084442,-7.2961,4.9622,1.726,-0.036041,0.0094684,-0.00061087
0.082306,-7.4923,4.9426,1.6475,-0.036652,0.0067195,-0.0061087
0.091492,-7.4334,5.021,1.6279,-0.03543,0.0054978,-0.0094684
0.084656,-7.5119,4.9229,1.726,-0.026573,0.0045815,-0.011301
0.066132,-7.2765,4.9033,1.6475,-0.01405,0.018937,-0.0048869
0.082886,-7.2569,4.9622,1.6475,-0.023518,0.014355,-0.0018326
0.086456,-7.2373,4.9229,1.6475,-0.032987,0.012523,-0.0064141
0.085419,-7.4531,5.021,1.6475,-0.040317,0.01069,-0.0030543
0.081055,-7.4531,5.0995,1.726,-0.042455,0.010996,-0.0012217
0.084229,-7.4923,5.0798,1.726,-0.039401,0.015272,-0.0018326
0.085266,-7.4531,5.021,1.6475,-0.032681,0.016188,-0.0009163
0.081329,-7.4923,4.9622,1.6867,-0.023213,0.018021,-0.0033598
0.085358,-7.4923,5.021,1.6475,-0.018631,0.019853,-0.011301
0.080414,-7.4334,5.0995,1.726,-0.0082467,0.023824,-0.0033598
0.074463,-7.2569,4.9622,1.6867,-0.01069,0.025656,0.0024435
0.086426,-7.2765,5.0014,1.6475,-0.020464,0.025351,0.0058032
0.087524,-7.2569,4.9426,1.6867,-0.036041,0.025962,0.0027489
0.087646,-7.6688,5.0995,1.8437,-0.045815,0.028405,-0.0036652
0.089142,-7.2569,5.021,1.7848,-0.042455,0.026878,-0.009163
0.077881,-7.4923,4.9622,1.6671,-0.03146,0.021991,-0.012523
0.069855,-7.2569,4.9229,1.726,-0.011912,0.018631,-0.0085521
0.074951,-7.355,5.021,1.7848,-0.013134,0.019242,-0.0039706
0.062347,-7.355,5.0602,1.7848,-0.019853,0.022297,0.0061087
0.067413,-7.3942,4.9426,1.6867,-0.0281,0.023213,0.009163
0.062134,-7.2569,4.9033,1.6671,-0.034819,0.02138,0.0027489
0.067596,-7.355,5.0014,1.7848,-0.036957,0.018021,-0.0058032
0.060272,-7.4923,5.021,1.8044,-0.032681,0.015577,-0.01069
0.055023,-7.2961,4.8641,1.726,-0.023213,0.013744,-0.010996
0.067627,-7.4923,4.9229,1.8044,0.01069,0.0051924,-0.0024435
0.071228,-7.3354,4.9229,1.726,-0.009163,0.0076358,-0.0015272
0.082764,-7.4923,5.021,1.8044,-0.0085521,0.0073304,0.0024435
0.089325,-7.5511,5.0995,1.8044,-0.007025,0.0085521,0.0036652
0.081543,-7.4531,5.021,1.6867,-0.0039706,0.0073304,0.0009163
0.07373,-7.4923,5.0798,1.8044,0,0.0051924,-0.0064141
0.069824,-7.2765,5.021,1.6671,0.0042761,0.0039706,-0.0094684
0.073151,-7.5511,5.0995,1.8044,0.009163,0.0030543,-0.0067195
0.064697,-7.2765,4.9426,1.6671,-0.02138,0.0024435,-0.0085521
0.059052,-7.4138,5.021,1.726,0.010079,0.0024435,-0.0079412
0.084869,-7.4334,4.9426,1.6867,0.0079412,0.0058032,-0.0015272
0.054749,-7.4334,5.021,1.726,-0.00061087,0.011301,0
0.063965,-7.355,4.9229,1.726,-0.0073304,0.015272,-0.00061087
0.073792,-7.355,5.021,1.726,-0.013134,0.019548,-0.0030543
0.075012,-7.2373,4.9229,1.6671,-0.016799,0.022602,-0.0076358
0.071014,-7.4334,5.0602,1.726,-0.018326,0.022297,-0.0088575
0.079193,-7.2373,4.9229,1.726,-0.01405,0.020464,-0.0058032
0.078064,-7.4138,4.9622,1.7848,-0.0054978,0.018326,-0.011912
0.070129,-7.355,4.9229,1.6671,-0.0009163,0.01405,-0.0079412
0.075775,-7.5903,5.021,1.8829,-0.0027489,0.012217,-0.0088575
0.069092,-7.2765,4.9426,1.6475,-0.010996,0.013134,-0.0082467
0.075439,-7.4334,4.9229,1.6279,-0.019548,0.013134,-0.0048869
0.062897,-7.355,5.021,1.8044,-0.022907,0.015882,-0.0024435
0.065308,-7.4138,5.021,1.726,-0.020769,0.017715,-0.0018326
0.054688,-7.2569,4.9229,1.726,-0.022907,0.018326,0.0042761
0.060944,-7.355,5.0014,1.6867,-0.018326,0.014966,0.0042761
0.058868,-7.2765,5.0014,1.7456,-0.016493,0.014966,-0.012828
0.05603,-7.2765,5.0014,1.6671,-0.014355,0.01405,-0.009163
0.056519,-7.2765,5.021,1.726,-0.018021,0.012217,-0.0054978
0.055847,-7.2961,5.0602,1.726,-0.022907,0.010079,-0.002138
0.040039,-7.355,4.9622,1.6867,-0.02474,0.010079,0.00030543
0.050812,-7.4334,5.0798,1.7848,-0.025351,0.011912,0.0012217
0.062408,-7.355,4.9622,1.7456,-0.01069,0.018937,0.011912
0.06958,-7.7473,4.8641,1.6475,-0.0088575,0.019548,0.0094684
0.07373,-7.6688,5.021,1.726,-0.014355,0.02138,0.0045815
0.085052,-7.4923,4.9229,1.6867,-0.014966,0.022297,-0.00030543
0.082092,-7.355,4.9426,1.726,-0.010996,0.022907,-0.0027489
0.085815,-7.4334,4.9426,1.6671,-0.0054978,0.020159,0.00061087
0.072266,-7.4923,5.021,1.7848,-0.0045815,0.016493,0.0061087
0.085876,-7.2569,4.9622,1.6475,-0.0088575,0.015882,0.011301
0.081787,-7.4334,4.9426,1.5887,-0.010079,0.014966,0.0097738
0.074646,-7.4531,4.9229,1.8044,-0.010079,0.011912,0.016799
0.076813,-7.4923,4.9229,1.8044,-0.014661,0.009163,0.0042761
0.085907,-7.4923,4.9622,1.6475,-0.019548,0.010996,0.0073304
0.085663,-7.2569,4.9426,1.6671,-0.019548,0.012828,0.014966
0.074066,-7.4923,5.0798,1.726,-0.013744,0.015577,0.01741
0.075623,-7.2765,5.021,1.726,-0.0039706,0.018021,0.016799
0.082153,-7.355,5.0602,1.6867,0.0073304,0.016493,0.012828
0.072815,-7.2569,4.9622,1.726,0.009163,0.014661,0.0058032
0.05896,-7.4138,5.0995,1.8044,-0.0024435,0.012828,0.010385
0.057495,-7.4138,5.0995,1.6867,-0.015577,0.011301,0.024129
0.054718,-7.3942,5.1191,1.726,-0.025962,0.0094684,0.022907
0.049194,-7.355,5.0602,1.8044,-0.031765,0.0067195,0.017104
0.048187,-7.61,4.9622,1.8044,-0.030543,0.0024435,0.011606
0.059937,-7.4923,4.9229,1.9025,-0.014661,-0.0012217,0.011301
0.05545,-7.4923,5.0798,1.8044,0.0051924,-0.0039706,0.0082467
0.049133,-7.4334,5.1583,1.8044,0.019242,-0.007025,0.01069
0.042664,-7.355,4.9622,1.7456,0.019548,-0.0097738,0.0088575
0.059204,-7.2569,4.9426,1.726,0.010996,-0.009163,0.018326
0.057007,-7.5903,5.0995,1.8044,0,-0.0054978,0.022297
0.048828,-7.1981,5.0798,1.726,-0.011301,-0.0027489,0.019853
0.041168,-7.3354,5.021,1.726,-0.018631,-0.0039706,0.016188
0.049042,-7.2765,4.9622,1.726,-0.020159,-0.0036652,0.012828
0.052917,-7.4334,4.9622,1.6867,-0.017715,0.00061087,0.010996
0.060394,-7.355,5.021,1.6279,-0.017715,0.027184,0.00030543
0.075287,-7.355,4.9622,1.6671,-0.016188,0.023213,0.0009163
0.087585,-7.3354,5.0014,1.6475,-0.015577,0.023213,-0.00061087
0.086212,-7.5511,5.021,1.7848,-0.014355,0.023518,0.0027489
0.099579,-7.1981,4.9622,1.6475,-0.015882,0.021686,0.0082467
0.076416,-7.4334,5.0798,1.726,-0.017104,0.020464,0.0073304
0.097565,-7.2961,5.0995,1.6475,-0.029016,0.018937,0.0036652
0.094269,-7.355,5.0995,1.6867,-0.021991,0.015882,0.00061087
0.098022,-7.4531,5.021,1.726,-0.0015272,0.014966,0.00061087
0.091766,-7.4531,5.021,1.6475,0.011606,0.016188,-0.0036652
0.10114,-7.4334,5.0995,1.6867,0.022602,0.013744,0.00061087
0.098083,-7.2569,5.0995,1.6475,0.02474,0.010996,-0.00061087
0.093964,-7.2569,5.0995,1.726,0.018021,0.010996,-0.0042761
0.098694,-7.6688,5.1583,1.7848,0.0027489,0.0094684,-0.0058032
0.091003,-7.2569,5.0602,1.726,-0.015577,0.0088575,-0.002138
0.07959,-7.2765,5.021,1.726,-0.010079,0.010079,0.0018326
0.083679,-7.355,5.021,1.726,-0.035736,0.0097738,-0.0009163
0.08609,-7.355,5.0798,1.726,-0.032681,0.0067195,0
0.091217,-7.4334,5.0602,1.6475,-0.022907,0.0076358,-0.0088575
0.10196,-7.4923,5.0602,1.8044,-0.01405,0.0082467,-0.014355
0.087006,-7.2765,5.021,1.8044,-0.0079412,0.0045815,-0.016493
0.10437,-7.4531,4.9229,1.7848,-0.0076358,0.0024435,-0.012217
0.086731,-7.2569,4.9229,1.6867,-0.014661,0.0024435,-0.0064141
0.077759,-7.4923,5.021,1.8044,-0.0281,0.0027489,-0.0027489
0.078979,-7.2961,4.9622,1.726,-0.030543,0.026878,0.0085521
0.075287,-7.4923,5.1191,1.8437,-0.013134,0.024129,0.0030543
0.072815,-7.2569,5.021,1.6867,-0.014661,0.023518,0.00030543
0.068359,-7.4923,5.0602,1.8044,-0.012828,0.022907,-0.0012217
0.062561,-7.4531,5.0798,1.6475,-0.011606,0.019548,0.0024435
0.062836,-7.4923,5.0798,1.7848,-0.011912,0.019548,0.0097738
0.057037,-7.4334,5.0995,1.6475,-0.018631,0.022907,0.013744
