-0.030792,0.76492,1.1572,9.5125,-0.016799,0.016799,-0.0009163
-0.051208,0.76492,1.2945,9.5713,-0.023824,0.021991,-0.0027489
-0.039673,0.56879,1.1768,9.4928,-0.019548,0.017715,-0.0012217
-0.041473,0.54917,1.2356,9.5713,-0.014661,0.016493,-0.0015272
-0.041382,0.74531,1.0395,9.4928,-0.016799,0.016799,-0.0009163
-0.036041,0.74531,1.2553,9.5125,-0.016799,0.013744,-0.0009163
-0.038544,0.72569,1.2553,9.6301,-0.017104,0.014661,-0.0024435
-0.034332,0.70608,1.2945,9.5125,-0.015272,0.015882,-0.0024435
-0.051361,0.5884,1.1964,9.5125,-0.015882,0.014661,-0.0018326
-0.047577,0.76492,1.2356,9.5125,-0.021075,0.014966,-0.0030543
-0.046661,0.41188,1.3337,9.9636,-0.019242,0.014966,-0.0033598
-0.035339,0.72569,1.1768,9.8066,-0.016493,0.014661,-0.0030543
-0.03775,0.56879,1.3141,9.6301,-0.017104,0.015882,-0.0018326
-0.038971,0.41188,1.2356,9.5713,-0.016493,0.016493,-0.00030543
-0.045471,0.80415,1.1768,9.3359,-0.016188,0.015577,0.00030543
-0.035828,0.64724,1.2553,9.3359,-0.016799,0.015577,-0.00030543
-0.033783,0.49033,1.2945,9.6694,-0.017104,0.01405,-0.0027489
-0.037079,0.72569,1.1572,9.5125,-0.015272,0.01405,-0.0033598
-0.034607,0.70608,1.2553,9.5321,-0.015882,0.015272,-0.0009163
-0.032166,0.60801,1.2553,9.4732,-0.016799,0.016188,-0.0009163
-0.044647,0.5884,1.2945,9.434,-0.015577,0.016188,-0.002138
-0.030273,0.74531,1.2945,9.5713,-0.016493,0.015882,-0.0018326
-0.041412,0.60801,1.1768,9.5125,-0.016493,0.015272,-0.0012217
-0.043549,0.45111,1.1964,9.5713,-0.015882,0.016493,-0.002138
-0.038727,0.56879,1.2553,9.4732,-0.018021,0.016799,-0.0012217
-0.037201,0.56879,1.1572,9.434,-0.017715,0.016799,-0.00030543
-0.041412,0.56879,1.1572,9.5321,-0.017104,0.017104,-0.0036652
-0.0336,0.74531,1.2553,9.6301,-0.014966,0.016493,-0.0030543
-0.040192,0.74531,1.1768,9.5125,-0.015577,0.017104,-0.0027489
-0.040863,0.66685,1.2553,9.5125,-0.018326,0.016188,-0.0039706
-0.040405,0.56879,1.2553,9.4732,-0.017715,0.015577,-0.0033598
-0.051392,0.74531,1.0395,9.5125,-0.016493,0.014661,-0.0024435
-0.045441,0.5884,1.1964,9.4928,-0.017715,0.01741,-0.0018326
-0.039856,0.74531,1.0787,9.5125,-0.017104,0.018021,-0.002138
-0.035522,0.66685,1.1964,9.4732,-0.016188,0.016493,-0.0018326
-0.039398,0.70608,1.2553,9.5125,-0.01741,0.015882,-0.0018326
-0.035614,0.74531,1.0395,9.5125,-0.016799,0.016799,-0.0015272
-0.043152,0.56879,1.1964,9.434,-0.017104,0.016188,-0.0009163
-0.03363,0.74531,1.0787,9.5125,-0.015577,0.016188,-0.0030543
-0.030334,0.43149,1.2553,9.6301,-0.01741,0.015272,-0.0024435
-0.039581,0.56879,1.2553,9.4732,-0.016799,0.01405,-0.0024435
-0.039673,0.56879,1.2553,9.6301,-0.016799,0.011912,-0.0030543
-0.031677,0.70608,1.2553,9.5125,-0.017104,0.013744,-0.0015272
-0.03833,0.5884,1.2356,9.4732,-0.018326,0.014966,-0.0024435
-0.035797,0.70608,1.2553,9.5713,-0.018021,0.015272,-0.0018326
-0.029633,0.56879,1.216,9.3752,-0.01741,0.015272,-0.0012217
-0.035461,0.49033,1.2553,9.5321,-0.017715,0.015577,-0.002138
-0.039734,0.56879,1.1768,9.5125,-0.016799,0.015577,-0.002138
-0.029968,0.72569,1.2553,9.5713,-0.017715,0.016188,-0.0027489
-0.032928,0.66685,1.2553,9.434,-0.01741,0.018937,-0.0027489
-0.033081,0.56879,1.1572,9.434,-0.018021,0.017715,-0.0027489
-0.031891,0.43149,1.2945,9.5713,-0.018021,0.014966,-0.0015272
-0.03064,0.66685,1.2945,9.5125,-0.017715,0.014966,-0.0009163
-0.02655,0.74531,1.0787,9.5125,-0.015882,0.014966,-0.0012217
-0.027191,0.64724,1.2553,9.5125,-0.01741,0.015272,-0.0018326
-0.052795,0.56879,1.1964,9.434,-0.018937,0.015272,-0.0027489
-0.035583,0.76492,1.2553,9.5321,-0.013439,0.017104,-0.002138
-0.035797,0.56879,1.1572,9.6301,-0.013439,0.014661,-0.0024435
-0.033783,0.76492,1.1572,9.4732,-0.014966,0.014966,-0.002138
-0.034088,0.72569,1.1768,9.5125,-0.015577,0.015577,-0.0027489
-0.032166,0.56879,1.1768,9.4732,-0.015577,0.014355,-0.0030543
-0.033295,0.74531,1.1768,9.5713,-0.016493,0.014661,-0.0042761
-0.037109,0.64724,1.1964,9.5321,-0.015882,0.015882,-0.0042761
-0.041779,0.5884,1.2553,9.4732,-0.014966,0.016799,-0.0027489
-0.033295,0.49033,1.2553,9.5713,-0.016799,0.015882,-0.0027489
-0.030457,0.27459,1.1376,9.7478,-0.017715,0.015882,-0.0024435
-0.03418,0.60801,1.2945,9.5125,-0.016493,0.015577,-0.0027489
-0.027008,0.74531,1.2553,9.5125,-0.016493,0.015577,-0.002138
-0.033264,0.56879,1.1572,9.5125,-0.016188,0.016188,-0.0036652
-0.029541,0.56879,1.2553,9.5125,-0.01741,0.017104,-0.0024435
-0.028137,0.56879,1.1572,9.5713,-0.018326,0.015272,-0.0009163
-0.024994,0.70608,1.2553,9.5125,-0.016493,0.015577,-0.002138
-0.036743,0.72569,1.2553,9.5713,-0.015882,0.016188,-0.0027489
-0.037323,0.76492,1.0395,9.5125,-0.014966,0.014966,-0.0015272
-0.034607,0.56879,1.2553,9.4928,-0.01741,0.014661,-0.0030543
-0.038147,0.60801,1.2553,9.5125,-0.018326,0.015272,-0.0027489
-0.03186,0.66685,1.1572,9.5125,-0.018326,0.015577,-0.0027489
-0.038666,0.74531,1.1768,9.5125,-0.018937,0.015577,-0.0027489
-0.035706,0.74531,1.1964,9.5713,-0.018631,0.015272,-0.0030543
-0.032349,0.56879,1.1768,9.5713,-0.018631,0.015272,-0.0036652
-0.030243,0.45111,1.2553,9.6497,-0.016799,0.014355,-0.0027489
-0.032501,0.74531,1.0787,9.4732,-0.017104,0.010385,-0.0015272
-0.023499,0.41188,1.2945,9.6301,-0.016493,0.012828,-0.0030543
-0.028107,0.56879,1.2553,9.4732,-0.015577,0.014966,-0.0015272
-0.033539,0.74531,1.2356,9.5713,-0.01741,0.015577,-0.0015272
-0.032318,0.74531,1.2553,9.5321,-0.018021,0.015577,-0.0030543
-0.035278,0.76492,1.2553,9.5321,-0.017715,0.015882,-0.0024435
-0.029877,0.72569,1.2553,9.5125,-0.017104,0.015882,-0.0024435
-0.030151,0.66685,1.2553,9.4928,-0.017715,0.015577,-0.0024435
-0.031708,0.72569,1.2553,9.5713,-0.017715,0.01741,-0.0039706
-0.034485,0.56879,1.1572,9.6301,-0.016799,0.016188,-0.0018326
-0.034271,0.54917,1.2553,9.5713,-0.016188,0.015272,-0.0012217
-0.037262,0.54917,1.2553,9.5713,-0.016493,0.014661,-0.0009163
-0.028961,0.66685,1.1768,9.5321,-0.017104,0.014966,-0.0015272
-0.034882,0.74531,1.3141,9.5125,-0.017104,0.015577,-0.002138
-0.037384,0.74531,1.2553,9.5713,-0.01741,0.014966,-0.0018326
-0.026337,0.74531,1.0395,9.4732,-0.016188,0.01405,-0.0027489
-0.0289,0.50995,1.2553,9.5713,-0.01741,0.010385,-0.0024435
-0.047546,0.66685,1.1768,9.5125,-0.01741,0.012523,-0.002138
-0.019012,0.76492,1.0983,9.5125,-0.016493,0.014355,-0.0027489
-0.025299,0.54917,1.2356,9.5713,-0.016493,0.015577,-0.0030543
-0.028412,0.5884,1.1376,9.5713,-0.016188,0.015272,-0.0018326
-0.021423,0.70608,1.2553,9.5125,-0.017104,0.015272,-0.0018326
-0.027466,0.80415,1.0199,9.5125,-0.015272,0.015577,-0.002138
-0.024872,0.66685,1.2553,9.4928,-0.017104,0.014661,-0.0030543
-0.03299,0.60801,1.2553,9.5321,-0.018326,0.012828,-0.0036652
-0.031219,0.74531,1.1964,9.5713,-0.018021,0.014355,-0.002138
-0.032379,0.66685,1.2553,9.5125,-0.018021,0.014966,-0.002138
-0.029205,0.74531,1.0787,9.4732,-0.017104,0.014661,-0.0018326
-0.031311,0.60801,1.2553,9.5125,-0.015882,0.015272,-0.0012217
-0.027039,0.64724,1.2356,9.5125,-0.017104,0.014661,-0.00030543
-0.02655,0.56879,1.1572,9.434,-0.01741,0.014355,-0.0015272
-0.029175,0.50995,1.2553,9.6301,-0.015882,0.014966,-0.0027489
-0.025208,0.74531,1.2553,9.5125,-0.015882,0.012828,-0.0033598
-0.029327,0.66685,1.2553,9.4928,-0.016188,0.012828,-0.0030543
-0.0354,0.70608,1.2553,9.5125,-0.016799,0.01405,-0.0015272
-0.027252,0.74531,1.0395,9.5125,-0.017715,0.014966,-0.0015272
-0.029938,0.74531,1.2553,9.4928,-0.016493,0.016188,-0.0018326
-0.026001,0.74531,1.2553,9.5713,-0.01741,0.014661,-0.00061087
-0.025635,0.5884,1.1768,9.3752,-0.016493,0.015882,-0.0018326
-0.023804,0.74531,1.2553,9.5125,-0.016799,0.018326,-0.0030543
-0.020569,0.49033,1.2553,9.5713,-0.015882,0.019242,-0.0030543
-0.019012,0.56879,1.1572,9.6301,-0.016493,0.01741,-0.0030543
-0.030243,0.49033,1.2945,9.5909,-0.01741,0.015882,-0.0042761
-0.023895,0.80415,1.0395,9.5125,-0.01741,0.015882,-0.0030543
-0.025513,0.70608,1.2553,9.4928,-0.01741,0.015272,-0.0015272
-0.029419,0.56879,1.2945,9.4928,-0.015272,0.014966,-0.0027489
-0.031647,0.74531,1.2553,9.5125,-0.01741,0.014966,-0.0024435
-0.031464,0.56879,1.2553,9.434,-0.015882,0.016188,-0.0030543
-0.01416,0.35304,1.0787,9.7478,-0.017104,0.014966,-0.0036652
-0.029358,0.70608,1.2945,9.4928,-0.01741,0.015577,-0.00061087
-0.028931,0.74531,1.1964,9.5125,-0.018631,0.015882,-0.0024435
-0.032227,0.74531,1.2356,9.5321,-0.016188,0.01405,-0.0036652
-0.020905,0.72569,1.2553,9.4928,-0.015882,0.014355,-0.0033598
-0.031708,0.72569,1.2945,9.5125,-0.016493,0.016188,-0.0033598
-0.026947,0.41188,1.1964,9.5909,-0.01741,0.014966,-0.0036652
-0.030334,0.54917,1.2553,9.5909,-0.015272,0.014966,-0.0030543
-0.038574,0.74531,1.3141,9.5321,-0.014966,0.012523,-0.002138
-0.018097,0.74531,1.1964,9.5125,-0.014966,0.014661,-0.0024435
-0.021301,0.74531,1.1964,9.434,-0.014966,0.016493,-0.0030543
-0.022156,0.80415,1.0003,9.5125,-0.016493,0.016493,-0.002138
-0.022583,0.72569,1.3141,9.5125,-0.017715,0.016188,-0.002138
-0.015228,0.66685,1.2356,9.5713,-0.016799,0.014966,-0.0018326
-0.026581,0.74531,1.0395,9.5125,-0.015577,0.013439,-0.0018326
-0.0159,0.70608,1.2945,9.5125,-0.015577,0.01405,-0.0024435
-0.027771,0.76492,1.1572,9.4928,-0.015882,0.018326,-0.0042761
-0.02774,0.74531,1.2553,9.5125,-0.016493,0.01741,-0.0033598
-0.030426,0.72569,1.3141,9.5125,-0.015577,0.014966,-0.0030543
-0.026978,0.49033,1.2945,9.5713,-0.016799,0.016493,-0.0024435
-0.022614,0.76492,1.2553,9.5125,-0.018021,0.017104,-0.0012217
-0.017273,0.43149,1.2553,9.6301,-0.018937,0.015272,0.00030543
-0.021912,0.54917,1.2553,9.5713,-0.018326,0.014355,-0.0009163
-0.028381,0.56879,1.1376,9.6301,-0.016188,0.014966,-0.0009163
-0.014008,0.56879,1.1964,9.5125,-0.01741,0.014661,-0.0009163
-0.018372,0.74531,1.0199,9.5125,-0.01741,0.015272,-0.0036652
-0.022644,0.72569,1.1768,9.4928,-0.017715,0.016188,-0.002138
-0.01828,0.56879,1.1964,9.5125,-0.017104,0.016188,-0.002138
-0.024384,0.45111,1.2553,9.6301,-0.014966,0.016188,-0.0036652
-0.01944,0.74531,1.2553,9.5321,-0.016188,0.015882,-0.0042761
-0.023346,0.74531,1.1572,9.5713,-0.015577,0.015882,-0.0012217
-0.020599,0.60801,1.1964,9.4144,-0.018021,0.015577,-0.002138
-0.023865,0.54917,1.1964,9.5713,-0.018937,0.015272,-0.0033598
-0.037476,0.54917,1.2553,9.5321,-0.017104,0.015882,-0.002138
-0.023529,0.56879,1.0983,9.5713,-0.016188,0.015577,-0.0027489
-0.016846,0.74531,1.2945,9.5713,-0.016799,0.016188,-0.002138
-0.016632,0.74531,1.3337,9.5909,-0.016493,0.015577,-0.0012217
-0.026672,0.74531,1.1572,9.5321,-0.017715,0.01405,-0.0012217
-0.021576,0.70608,1.1964,9.4928,-0.018326,0.015272,-0.0009163
-0.022369,0.56879,1.2553,9.4928,-0.017104,0.015577,-0.0024435
-0.028961,0.74531,1.2356,9.6301,-0.017715,0.013134,-0.002138
-0.019867,0.72569,1.2356,9.5125,-0.017104,0.014661,-0.0030543
-0.019806,0.54917,1.2553,9.6301,-0.016188,0.014661,-0.00061087
-0.034393,0.74531,1.1964,9.4928,-0.016188,0.014661,-0.0009163
-0.045441,0.74531,1.2553,9.5321,-0.017104,0.016188,-0.0027489
-0.029968,0.72569,1.1768,9.5125,-0.018631,0.016799,-0.0033598
-0.020691,0.76492,1.0395,9.5125,-0.016188,0.014661,-0.0024435
-0.018951,0.70608,1.2553,9.5125,-0.01741,0.015272,-0.0015272
-0.023682,0.74531,1.1964,9.5125,-0.016188,0.018937,-0.0030543
-0.01947,0.74531,1.1964,9.6301,-0.016493,0.016799,-0.002138
-0.017883,0.60801,1.1768,9.434,-0.015882,0.014966,-0.0027489
-0.024841,0.41188,1.2356,9.6301,-0.016493,0.014661,-0.0030543
-0.022522,0.74531,1.1964,9.5125,-0.016799,0.015272,-0.0012217
-0.016937,0.56879,1.2553,9.5125,-0.017104,0.015882,-0.0015272
-0.026093,0.49033,1.2553,9.5713,-0.018937,0.014966,-0.002138
-0.023071,0.66685,1.1964,9.5125,-0.016493,0.014355,-0.0027489
-0.028473,0.72569,1.1964,9.5125,-0.017104,0.012828,-0.002138
-0.028839,0.56879,1.1572,9.434,-0.016188,0.012828,-0.0042761
-0.02951,0.72569,1.2356,9.5125,-0.016799,0.01405,-0.0033598
-0.022095,0.80415,1.2553,9.5321,-0.017104,0.015577,-0.0027489
-0.020477,0.76492,1.0787,9.4928,-0.017104,0.015577,-0.0033598
-0.028839,0.74531,1.2553,9.5713,-0.01741,0.015882,-0.0030543
-0.014954,0.49033,1.2553,9.5713,-0.015882,0.014661,-0.0030543
-0.01944,0.50995,1.1572,9.6497,-0.017104,0.013439,-0.0030543
-0.019867,0.54917,1.0787,9.6497,-0.018326,0.012523,-0.0024435
-0.016388,0.74531,1.1572,9.5125,-0.017715,0.013744,-0.0027489
-0.027649,0.76492,1.2945,9.5713,-0.019242,0.014661,-0.0036652
-0.021454,0.72569,1.2553,9.5713,-0.018631,0.015272,-0.0030543
-0.025116,0.56879,1.1964,9.5125,-0.017715,0.015882,-0.0033598
-0.028534,0.5884,1.1768,9.3752,-0.018326,0.015577,-0.0027489
-0.026459,0.74531,1.2553,9.5321,-0.016799,0.018021,-0.0027489
-0.026276,0.66685,1.2553,9.4928,-0.015577,0.017715,-0.002138
-0.02182,0.80415,1.1964,9.5321,-0.01741,0.016493,-0.0009163
-0.012939,0.66685,1.2356,9.5125,-0.020159,0.017104,-0.002138
-0.023438,0.66685,1.2945,9.5125,-0.020159,0.016799,-0.0015272
-0.015259,0.80415,1.2356,9.5125,-0.01741,0.015577,-0.002138
-0.016846,0.66685,1.2356,9.5125,-0.014355,0.015882,-0.0030543
-0.021851,0.66685,1.2553,9.5125,-0.013134,0.015882,-0.0030543
-0.028992,0.76492,1.0003,9.5125,-0.015272,0.015882,-0.0033598
-0.02536,0.50995,1.2356,9.6497,-0.017104,0.016188,-0.0024435
-0.029358,0.56879,1.1964,9.5125,-0.015577,0.016799,-0.002138
-0.028931,0.66685,1.1768,9.5125,-0.015577,0.016493,-0.0018326
-0.023041,0.50995,1.3141,9.5321,-0.016799,0.015272,-0.0030543
-0.016846,0.60801,1.1572,9.6694,-0.017104,0.015882,-0.0015272
-0.022247,0.66685,1.2553,9.5321,-0.017715,0.016188,-0.002138
-0.015564,0.64724,1.1572,9.5321,-0.018631,0.014355,-0.0030543
-0.020782,0.74531,1.2553,9.5125,-0.018631,0.014661,-0.0018326
-0.016968,0.5884,1.2553,9.4928,-0.01741,0.015577,-0.0033598
-0.022064,0.66685,1.1964,9.5321,-0.019548,0.017104,-0.0027489
-0.022156,0.70608,1.2945,9.5125,-0.017715,0.015882,-0.0036652
-0.018036,0.54917,1.2553,9.6497,-0.017715,0.014661,-0.0033598
-0.03363,0.74531,1.2553,9.5125,-0.01741,0.016188,-0.0033598
-0.034332,0.76492,1.1768,9.5321,-0.016799,0.014966,-0.00030543
-0.023712,0.76492,1.1572,9.4732,-0.017715,0.014661,-0.00061087
-0.016479,0.74531,1.1572,9.5321,-0.015882,0.015272,-0.0018326
-0.014282,0.66685,1.2553,9.5125,-0.015577,0.015272,-0.0030543
-0.018829,0.74531,1.2356,9.5713,-0.01741,0.014355,-0.0018326
-0.023438,0.66685,1.1964,9.5713,-0.015882,0.015577,-0.0009163
-0.023468,0.56879,1.1964,9.4928,-0.017104,0.016188,-0.0030543
-0.018433,0.66685,1.2945,9.5125,-0.018021,0.015882,-0.0042761
-0.030426,0.41188,1.2356,9.6694,-0.016799,0.01405,-0.0027489
-0.022675,0.74531,1.2356,9.5321,-0.016493,0.015577,-0.0015272
-0.016724,0.74531,1.1572,9.5125,-0.015577,0.016188,-0.0009163
-0.016174,0.60801,1.2945,9.5125,-0.018326,0.016188,-0.002138
-0.009552,0.72569,1.1964,9.5125,-0.016799,0.017715,-0.0027489
-0.015106,0.70608,1.1964,9.5125,-0.016188,0.016493,-0.0009163
-0.019806,0.5884,1.0983,9.5713,-0.014966,0.015577,-0.0033598
-0.016541,0.49033,1.2553,9.5713,-0.015272,0.014355,-0.0039706
-0.024567,0.66685,1.2356,9.5713,-0.013439,0.014355,-0.0018326
-0.026764,0.72569,1.1964,9.4928,-0.016188,0.015272,-0.0012217
-0.017273,0.76492,1.2553,9.5713,-0.017715,0.015882,-0.00030543
-0.020844,0.70608,1.2553,9.5125,-0.018021,0.015577,-0.0030543
-0.02301,0.49033,1.1964,9.5713,-0.015882,0.012523,-0.0015272
-0.012207,0.76492,1.1964,9.5713,-0.016493,0.014966,-0.0030543
-0.015015,0.41188,1.1964,9.5713,-0.014355,0.015272,-0.0024435
-0.011108,0.54917,1.1572,9.5125,-0.015577,0.01405,-0.0027489
-0.019653,0.49033,1.1572,9.5713,-0.015577,0.015577,-0.0027489
-0.013367,0.5884,1.1964,9.5125,-0.016493,0.015577,-0.0009163
-0.020294,0.74531,1.2553,9.5125,-0.017104,0.015272,-0.0018326
-0.020111,0.66685,1.2553,9.5125,-0.017104,0.015577,-0.0030543
-0.015289,0.54917,1.2356,9.5713,-0.018326,0.015577,-0.0009163
-0.016724,0.41188,1.2356,9.6497,-0.01741,0.015882,-0.0024435
-0.016296,0.72569,1.2553,9.5125,-0.016799,0.015272,-0.0018326
-0.028259,0.54917,1.2945,9.5713,-0.018021,0.015577,-0.0015272
-0.022461,0.66685,1.2945,9.5125,-0.017715,0.014966,-0.0009163
-0.013031,0.66685,1.2553,9.5713,-0.01741,0.013744,-0.0024435
-0.03418,0.74531,1.2553,9.4928,-0.018021,0.014661,-0.0048869
-0.024475,0.56879,1.2553,9.5125,-0.017715,0.016188,-0.0009163
-0.020447,0.41188,1.0787,9.7282,-0.01741,0.017715,-0.002138
-0.02359,0.60801,1.2945,9.5125,-0.016188,0.016493,-0.0030543
-0.025177,0.41188,1.1964,9.5713,-0.017104,0.015272,-0.0027489
-0.022766,0.66685,1.2553,9.434,-0.016493,0.014966,-0.0033598
-0.019745,0.56879,1.1768,9.4928,-0.015272,0.015577,-0.0033598
-0.0082397,0.70608,1.2945,9.5125,-0.014966,0.01405,-0.0024435
-0.017517,0.76492,1.2553,9.5125,-0.016188,0.015272,-0.0012217
-0.012054,0.76492,1.2553,9.5713,-0.017715,0.015882,-0.0012217
-0.025421,0.66685,1.1572,9.5125,-0.018326,0.015577,-0.0012217
-0.021729,0.56879,1.2356,9.434,-0.016493,0.014966,-0.0027489
-0.021851,0.76492,1.0199,9.5125,-0.015577,0.014661,-0.0018326
-0.024628,0.56879,1.2553,9.434,-0.016799,0.015882,-0.0018326
-0.018707,0.74531,1.2356,9.4928,-0.017715,0.016493,-0.0027489
-0.01889,0.56879,1.1572,9.6301,-0.017104,0.016799,-0.0027489
-0.01886,0.80415,1.1572,9.5125,-0.018326,0.015577,-0.002138
-0.012054,0.74531,1.1768,9.5125,-0.01741,0.016188,-0.0042761
-0.013428,0.64724,1.2553,9.4732,-0.019242,0.018631,-0.0033598
-0.018341,0.56879,1.2553,9.5713,-0.018631,0.015577,-0.0024435
-0.018433,0.76492,1.2553,9.5713,-0.018326,0.01405,-0.0030543
-0.020416,0.72569,1.3141,9.5125,-0.017715,0.014661,-0.0027489
-0.018555,0.80415,1.1572,9.4732,-0.016188,0.016188,-0.0015272
-0.018402,0.74531,1.0787,9.5125,-0.016188,0.016799,-0.0015272
-0.017487,0.66685,1.1964,9.434,-0.016799,0.015577,-0.0030543
-0.01767,0.74531,1.2553,9.5909,-0.015577,0.014661,-0.002138
-0.015625,0.76492,1.1572,9.5125,-0.016493,0.011606,-0.0024435
-0.017456,0.60801,1.1964,9.4928,-0.016493,0.013744,-0.0027489
-0.018097,0.5884,1.1964,9.4732,-0.015882,0.015577,-0.0027489
-0.023865,0.74531,1.0199,9.5125,-0.016188,0.014355,-0.0024435
-0.02533,0.66685,1.1572,9.5321,-0.01741,0.01405,-0.0030543
-0.023987,0.56879,1.1964,9.4928,-0.018326,0.014661,-0.0033598
-0.062042,0.60801,1.2553,9.434,-0.017715,0.014966,-0.002138
-0.015259,0.74531,1.0199,9.5125,-0.016493,0.016799,-0.0024435
-0.012848,0.72569,1.2945,9.5321,-0.015272,0.019853,-0.002138
-0.019928,0.74531,1.1964,9.6497,-0.014355,0.017715,-0.0036652
-0.019409,0.74531,1.2553,9.5125,-0.015577,0.015272,-0.0030543
-0.021057,0.54917,1.2553,9.5713,-0.016188,0.016799,-0.002138
-0.01889,0.74531,1.2356,9.5321,-0.016493,0.016799,-0.0033598
-0.024231,0.66685,1.2356,9.5125,-0.016188,0.015577,-0.0042761
-0.013519,0.74531,1.1572,9.4732,-0.016799,0.014661,-0.0024435
-0.018799,0.80415,1.2356,9.5713,-0.016799,0.014966,-0.0033598
-0.012573,0.80415,1.2356,9.5321,-0.017715,0.017104,-0.0027489
-0.024628,0.80415,1.2553,9.5321,-0.016493,0.015882,-0.0012217
-0.021149,0.74531,1.2356,9.5125,-0.016188,0.015272,-0.0015272
-0.023438,0.76492,1.1572,9.5125,-0.016799,0.016188,-0.002138
-0.019562,0.74531,1.0199,9.5125,-0.016799,0.015577,-0.0024435
-0.017731,0.64724,1.1768,9.434,-0.016493,0.01405,-0.0012217
-0.021759,0.74531,1.1572,9.5125,-0.017715,0.013439,-0.0018326
-0.0089722,0.56879,1.3141,9.3752,-0.01741,0.014966,-0.0030543
-0.019104,0.54917,1.1964,9.4928,-0.016493,0.014966,-0.0018326
-0.013641,0.76492,1.1768,9.4732,-0.017104,0.015577,-0.0024435
-0.014771,0.5884,1.1572,9.434,-0.016799,0.015882,-0.0012217
-0.016296,0.74531,1.2553,9.5125,-0.01741,0.015272,-0.0024435
-0.01593,0.74531,1.2553,9.5321,-0.016188,0.014966,-0.0033598
-0.025696,0.74531,1.0983,9.5125,-0.01741,0.013744,-0.0027489
-0.011902,0.66685,1.1964,9.5125,-0.01741,0.014966,-0.0030543
-0.016174,0.74531,1.1572,9.4928,-0.016188,0.015272,-0.0027489
-0.016876,0.72569,1.2553,9.5321,-0.014966,0.012828,-0.0036652
-0.010529,0.45111,1.2945,9.6301,-0.014966,0.013134,-0.0015272
-0.012665,0.66685,1.2553,9.5125,-0.015272,0.014966,-0.0027489
-0.0088501,0.66685,1.2945,9.5125,-0.016493,0.015577,-0.0018326
-0.021973,0.74531,1.3141,9.5125,-0.016799,0.015272,-0.0024435
-0.021332,0.66685,1.1768,9.5125,-0.016493,0.01405,-0.0030543
-0.019775,0.66685,1.2356,9.5125,-0.017104,0.014966,-0.0039706
-0.016357,0.66685,1.1768,9.5125,-0.016799,0.016188,-0.0030543
-0.014008,0.41188,1.0787,9.689,-0.014355,0.014355,-0.0033598
-0.018311,0.66685,1.2553,9.5125,-0.015272,0.014661,-0.0036652
-0.020844,0.74531,1.0787,9.5125,-0.018326,0.015272,-0.0042761
-0.027405,0.66685,1.1964,9.5125,-0.019242,0.013744,-0.0033598
-0.014404,0.76492,1.2356,9.5713,-0.016188,0.013744,-0.0027489
-0.020355,0.41188,1.2553,9.6301,-0.016188,0.014966,-0.0030543
-0.014008,0.70608,1.2553,9.5125,-0.018937,0.015272,-0.0024435
-0.010986,0.56879,1.1964,9.5125,-0.018631,0.015882,-0.0036652
-0.016724,0.70608,1.2553,9.5321,-0.020769,0.019242,-0.0030543
-0.022949,0.49033,1.2553,9.6301,-0.018326,0.01741,-0.002138
-0.024292,0.41188,1.2553,9.6497,-0.018021,0.015577,-0.0012217
-0.01413,0.74531,1.1572,9.4732,-0.019853,0.015272,-0.00061087
-0.013275,0.56879,1.1768,9.434,-0.017715,0.015272,-0.0024435
-0.019501,0.72569,1.2553,9.5125,-0.015882,0.015577,-0.002138
-0.021851,0.74531,1.2553,9.6497,-0.017104,0.016188,-0.0039706
-0.017731,0.76492,1.1964,9.5713,-0.016188,0.015577,-0.0033598
-0.016968,0.66685,1.2553,9.5125,-0.015577,0.012217,-0.0033598
-0.01767,0.76492,1.1964,9.4928,-0.015882,0.013439,-0.0024435
-0.018951,0.80415,1.1964,9.5321,-0.017104,0.014966,-0.002138
-0.02655,0.56879,1.1572,9.5909,-0.018326,0.015577,-0.0015272
-0.022064,0.56879,1.2553,9.5713,-0.018021,0.014355,-0.0030543
-0.013031,0.74531,1.0787,9.4928,-0.01741,0.014661,-0.0030543
-0.01413,0.80415,1.2553,9.5713,-0.018937,0.01405,-0.0030543
-0.01297,0.66685,1.2553,9.5125,-0.015882,0.014355,-0.0018326
-0.0085144,0.76492,1.2553,9.5321,-0.014661,0.019242,-0.002138
-0.019653,0.74531,1.2553,9.5125,-0.016799,0.016799,-0.0036652
-0.017609,0.56879,1.2553,9.5125,-0.018021,0.015272,-0.0012217
-0.015106,0.43149,1.2553,9.6301,-0.017104,0.014661,-0.00030543
-0.017944,0.74531,1.1572,9.4928,-0.017715,0.014966,-0.0027489
-0.023163,0.74531,1.0199,9.5125,-0.016493,0.014966,-0.0033598
-0.010651,0.56879,1.1964,9.4732,-0.016799,0.014966,-0.0018326
-0.010345,0.66685,1.1964,9.5909,-0.016493,0.016188,-0.0024435
-0.016663,0.74531,1.2553,9.5125,-0.018326,0.019242,-0.0027489
-0.014984,0.74531,1.1572,9.5713,-0.016493,0.017715,-0.0024435
-0.01413,0.56879,1.1964,9.434,-0.014966,0.015272,-0.0030543
-0.025146,0.60801,1.1964,9.5125,-0.016188,0.014661,-0.0033598
-0.019501,0.54917,1.1964,9.4144,-0.016493,0.014966,-0.0027489
-0.0064697,0.74531,1.1572,9.5125,-0.016799,0.015577,-0.0015272
-0.0081177,0.66685,1.2553,9.5125,-0.015577,0.015272,-0.0018326
-0.015289,0.74531,1.0395,9.4928,-0.016188,0.01405,-0.0024435
-0.021423,0.76492,1.2553,9.5125,-0.014966,0.01405,-0.0042761
-0.039978,0.74531,1.0395,9.5125,-0.015882,0.014355,-0.002138
-0.020233,0.70608,1.1964,9.5125,-0.017104,0.014966,-0.00030543
-0.016266,0.56879,1.2553,9.4928,-0.016493,0.015272,-0.0018326
-0.020599,0.45111,1.2945,9.6497,-0.015577,0.01405,-0.0018326
-0.0066833,0.76492,1.1964,9.5125,-0.015272,0.015272,-0.0015272
-0.018433,0.54917,1.2553,9.5713,-0.017715,0.016188,-0.0009163
-0.014313,0.76492,1.1964,9.5713,-0.017104,0.014966,-0.0027489
-0.015472,0.76492,1.1376,9.4928,-0.017104,0.012828,-0.002138
-0.021149,0.56879,1.2553,9.5125,-0.015577,0.014661,-0.0030543
-0.021362,0.74531,1.2553,9.5321,-0.01741,0.014661,-0.002138
-0.017822,0.49033,1.2945,9.5321,-0.016493,0.014355,-0.0033598
-0.017181,0.41188,1.1768,9.5713,-0.017104,0.014966,-0.0030543
-0.013123,0.56879,1.1964,9.4732,-0.016188,0.014661,-0.0024435
-0.011993,0.74531,1.0787,9.4928,-0.014661,0.015272,-0.0036652
-0.012939,0.72569,1.2553,9.4732,-0.019242,0.016493,-0.0036652
-0.015381,0.76492,1.3337,9.5909,-0.018326,0.018631,-0.0042761
-0.014526,0.56879,1.2356,9.3359,-0.017104,0.016799,-0.0018326
-0.012848,0.76492,1.1572,9.5125,-0.016799,0.014661,-0.0012217
-0.011749,0.66685,1.2945,9.5125,-0.016799,0.015272,-0.0030543
-0.0054321,0.56879,1.1572,9.6301,-0.01741,0.016799,-0.0027489
-0.01001,0.66685,1.3141,9.5125,-0.018021,0.01741,-0.002138
-0.010773,0.72569,1.2356,9.5321,-0.019853,0.014966,-0.0024435
-0.013763,0.5884,1.1572,9.5713,-0.015577,0.016493,-0.0009163
-0.0084229,0.56879,1.0787,9.7478,-0.016799,0.020159,-0.0012217
-0.011963,0.74531,1.1964,9.5713,-0.015272,0.016493,-0.002138
-0.018341,0.60801,1.1572,9.5713,-0.015272,0.014966,-0.002138
-0.010101,0.74531,1.1768,9.5125,-0.015577,0.015577,-0.0024435
-0.01123,0.74531,1.1964,9.5713,-0.016188,0.014661,-0.0036652
-0.018494,0.76492,1.1964,9.5321,-0.015577,0.014661,-0.0036652
-0.0050964,0.50995,1.2553,9.5713,-0.015882,0.015577,-0.002138
-0.0067444,0.54917,1.1964,9.4928,-0.015272,0.015577,-0.0030543
-0.018616,0.70608,1.1964,9.5125,-0.013744,0.011301,-0.002138
-0.016357,0.74531,1.1572,9.4928,-0.014355,0.013439,-0.0030543
-0.0088196,0.74531,1.1768,9.5321,-0.016799,0.015882,-0.0036652
-0.025513,0.72569,1.2356,9.5321,-0.017104,0.015577,-0.0027489
-0.017181,0.72569,1.2553,9.5713,-0.017715,0.015577,-0.0027489
-0.0082703,0.80415,1.0395,9.5125,-0.016188,0.014355,-0.0018326
-0.010529,0.74531,1.2553,9.5713,-0.016799,0.015272,-0.0024435
-0.0036926,0.5884,1.1964,9.4928,-0.016799,0.016493,-0.0048869
-0.014343,0.56879,1.1768,9.4144,-0.015882,0.018631,-0.0042761
-0.014465,0.72569,1.2553,9.4928,-0.015882,0.01741,-0.0039706
-0.020752,0.74531,1.2553,9.5125,-0.016799,0.016188,-0.0036652
-0.025024,0.56879,1.2356,9.4732,-0.018021,0.015882,-0.0030543
-0.018005,0.74531,1.1572,9.5125,-0.016799,0.015882,-0.0048869
-0.011475,0.60801,1.2356,9.4928,-0.015882,0.015577,-0.0027489
-0.0072327,0.56879,1.0983,9.6301,-0.015882,0.016188,-0.002138
-0.022919,0.60801,1.2945,9.4732,-0.015882,0.015272,-0.0018326
-0.017731,0.74531,1.3141,9.5321,-0.014966,0.014355,-0.0024435
-0.012238,0.80415,1.1964,9.5713,-0.016188,0.016188,-0.0030543
-0.014862,0.5884,1.2356,9.5125,-0.017715,0.015272,-0.0024435
-0.0065002,0.45111,1.2553,9.6301,-0.017715,0.014661,-0.0036652
-0.0095825,0.66685,1.1964,9.5125,-0.015882,0.015882,-0.0027489
-0.020386,0.74531,1.1964,9.5125,-0.014966,0.014966,-0.0027489
-0.02124,0.41188,1.2945,9.6301,-0.015577,0.014966,-0.0024435
-0.02063,0.49033,1.2553,9.6497,-0.017715,0.01405,-0.0039706
-0.019226,0.74531,1.2945,9.5321,-0.016799,0.01405,-0.0033598
-0.01651,0.76492,1.1572,9.5909,-0.016799,0.014661,-0.0015272
-0.0062866,0.72569,1.2553,9.5125,-0.017104,0.014966,-0.002138
-0.0068359,0.66685,1.2356,9.5713,-0.017715,0.015577,-0.0033598
-0.0047913,0.74531,1.0983,9.4732,-0.017104,0.015272,-0.0036652
-0.02002,0.76492,1.0395,9.5125,-0.017104,0.01405,-0.0024435
-0.019409,0.5884,1.1572,9.5713,-0.018326,0.014661,-0.0027489
-0.014709,0.56879,1.1964,9.5125,-0.017104,0.014966,-0.0018326
-0.012726,0.70608,1.1964,9.5125,-0.018937,0.011301,-0.0027489
-0.0087891,0.56879,1.1768,9.434,-0.019548,0.012217,-0.0024435
-0.012451,0.56879,1.1572,9.5321,-0.018021,0.015272,-0.0018326
-0.0075073,0.49033,1.2553,9.5321,-0.01741,0.015882,-0.0027489
-0.016632,0.66685,1.2553,9.5125,-0.016493,0.014966,-0.0033598
-0.01651,0.54917,1.2553,9.5713,-0.016188,0.014355,-0.0027489
-0.025238,0.74531,1.1768,9.5321,-0.016188,0.01405,-0.0024435
-0.014984,0.45111,1.2945,9.6301,-0.016188,0.014966,-0.002138
-0.009491,0.74531,1.1768,9.5125,-0.015272,0.012523,-0.002138
-0.015778,0.56879,1.2553,9.5125,-0.015272,0.014661,-0.0018326
-0.019165,0.56879,1.1572,9.5909,-0.016493,0.016493,-0.0027489
-0.033051,0.66685,1.1964,9.4928,-0.016799,0.016188,-0.0033598
-0.017944,0.66685,1.2945,9.5125,-0.016188,0.016188,-0.0027489
-0.0081482,0.56879,1.2553,9.5125,-0.016493,0.014966,-0.0030543
-0.0077209,0.41188,1.2553,9.5713,-0.017715,0.01405,-0.0024435
-0.011871,0.74531,1.1572,9.434,-0.014966,0.016493,-0.0024435
-0.012848,0.72569,1.0787,9.5125,-0.015272,0.020464,-0.0024435
-0.014038,0.56879,1.1964,9.4732,-0.016493,0.018021,-0.0009163
-0.021698,0.66685,1.1768,9.5125,-0.018937,0.015272,-0.00061087
-0.014252,0.74531,1.2553,9.5321,-0.016799,0.01405,-0.0018326
-0.011475,0.80415,1.2553,9.5713,-0.015577,0.014661,-0.002138
-0.013641,0.64724,1.2553,9.5713,-0.017104,0.014966,-0.002138
-0.012054,0.74531,1.2553,9.5321,-0.014966,0.013744,-0.0015272
-0.013153,0.60801,1.1964,9.3359,-0.019548,0.01405,-0.0018326
-0.0093689,0.41188,0.98067,9.7478,-0.018326,0.011301,-0.0018326
-0.015228,0.74531,1.2553,9.5713,-0.01741,0.012523,-0.0018326
-0.014801,0.74531,1.1768,9.5321,-0.018021,0.01405,-0.0012217
-0.013336,0.64724,1.2356,9.4732,-0.01741,0.015272,-0.0024435
-0.017487,0.49033,1.2553,9.5713,-0.016493,0.015272,-0.0039706
-0.019714,0.56879,1.0983,9.5713,-0.017715,0.015577,-0.0033598
-0.016693,0.56879,1.2356,9.4732,-0.01741,0.015577,-0.0030543
-0.014069,0.56879,1.1964,9.5125,-0.015882,0.014661,-0.0039706
-0.015991,0.76492,1.2553,9.5125,-0.01741,0.015882,-0.0042761
-0.010651,0.70608,1.2356,9.5713,-0.016188,0.015882,-0.0033598
-0.011475,0.66685,1.2553,9.5125,-0.018326,0.015577,-0.0027489
-0.017456,0.76492,1.2553,9.5713,-0.017715,0.016188,-0.0030543
-0.0096741,0.74531,1.1964,9.5713,-0.016493,0.015882,-0.0036652
-0.01004,0.56879,1.2553,9.5125,-0.015577,0.014661,-0.0024435
-0.011414,0.74531,1.1768,9.5321,-0.016799,0.01405,-0.0027489
-0.0089722,0.60801,1.2945,9.5125,-0.01741,0.015272,-0.0015272
-0.01413,0.60801,1.2356,9.5713,-0.017104,0.012828,-0.0018326
-0.013214,0.74531,1.2553,9.5125,-0.018326,0.013744,-0.002138
-0.0068054,0.74531,1.1964,9.5321,-0.016188,0.016188,-0.002138
-0.0064392,0.74531,1.1768,9.5125,-0.016188,0.015272,-0.0036652
-0.022614,0.54917,1.1768,9.4928,-0.01741,0.014661,-0.0024435
-0.016876,0.56879,1.2553,9.4928,-0.018326,0.015272,-0.0015272
-0.018829,0.56879,1.1572,9.434,-0.018937,0.016188,-0.00030543
-0.020508,0.72569,1.3141,9.5125,-0.020464,0.015577,-0.0033598
-0.017517,0.76492,1.2553,9.5713,-0.019242,0.017715,-0.002138
-0.01181,0.56879,1.1768,9.3752,-0.016799,0.017104,-0.0024435
-0.0099182,0.74531,1.1572,9.5713,-0.017104,0.014661,-0.0033598
-0.010193,0.66685,1.2945,9.5125,-0.017104,0.015577,-0.0033598
-0.018188,0.74531,1.0395,9.5125,-0.016799,0.015577,-0.0027489
-0.010834,0.74531,1.1572,9.4732,-0.015577,0.01405,-0.0024435
-0.021667,0.56879,1.1376,9.3555,-0.016188,0.014661,-0.0030543
-0.020386,0.66685,1.1964,9.4928,-0.01741,0.015272,-0.0036652
-0.01297,0.56879,1.2553,9.5713,-0.017715,0.014355,-0.0036652
-0.020477,0.56879,1.1572,9.5713,-0.018937,0.013744,-0.0027489
-0.019379,0.66685,1.1768,9.434,-0.018326,0.014661,-0.0036652
-0.010742,0.74531,1.3141,9.5125,-0.016188,0.01405,-0.0030543
-0.0095215,0.43149,1.2553,9.6301,-0.018021,0.014661,-0.002138
-0.011627,0.66685,1.2553,9.5125,-0.017104,0.016188,-0.002138
-0.0075684,0.5884,1.2553,9.5125,-0.015577,0.014966,-0.0033598
-0.0094604,0.56879,1.1768,9.5909,-0.016799,0.015577,-0.0030543
-0.01651,0.5884,1.2356,9.5125,-0.016493,0.01069,-0.0027489
-0.016541,0.41188,1.3141,9.5713,-0.016493,0.011912,-0.0018326
-0.014923,0.66685,1.1964,9.4732,-0.018021,0.01405,-0.0024435
-0.011963,0.74531,1.2356,9.5713,-0.016799,0.014661,-0.0030543
-0.015045,0.41188,1.1964,9.5713,-0.016799,0.014355,-0.002138
-0.016449,0.56879,1.2356,9.5125,-0.014966,0.014355,-0.0009163
-0.021423,0.70608,1.2553,9.5125,-0.016188,0.015577,-0.0012217
-0.011444,0.56879,1.1572,9.434,-0.018021,0.015882,-0.0033598
-0.010773,0.45111,1.2553,9.5713,-0.016799,0.017104,-0.0036652
-0.0079956,0.56879,1.2553,9.5713,-0.015577,0.016799,-0.0033598
-0.01178,0.56879,1.1572,9.5713,-0.017715,0.014966,-0.0027489
-0.019501,0.56879,1.2356,9.4928,-0.017715,0.014966,-0.0030543
-0.017151,0.74531,1.1768,9.5125,-0.016188,0.014661,-0.0024435
-0.026306,0.72569,1.2553,9.5713,-0.019548,0.01405,-0.0015272
-0.02652,0.66685,1.2553,9.5125,-0.018326,0.015577,-0.002138
-0.011505,0.74531,1.0787,9.5125,-0.020159,0.014355,-0.0027489
-0.0089111,0.60801,1.2553,9.5125,-0.018326,0.014355,-0.0033598
-0.0097351,0.74531,1.1964,9.5125,-0.018631,0.012217,-0.0036652
-0.013855,0.74531,1.1572,9.5321,-0.019242,0.013439,-0.002138
-0.023376,0.70608,1.3141,9.5125,-0.018937,0.015577,-0.0027489
-0.018982,0.41188,1.1964,9.6301,-0.020159,0.015577,-0.002138
-0.012177,0.74531,1.2553,9.5321,-0.018631,0.015577,-0.0018326
0.010864,0.80415,1.2356,9.5125,-0.020464,0.015272,-0.0012217
-0.01355,0.43149,1.2553,9.5125,-0.017715,0.013439,-0.0030543
-0.0052185,0.56879,1.1376,9.6694,-0.018631,0.013744,-0.0042761
-0.019501,0.41188,1.2553,9.5713,-0.019242,0.015577,-0.0027489
-0.010681,0.76492,1.1572,9.434,-0.018631,0.015577,-0.0018326
-0.011322,0.76492,1.0395,9.5321,-0.017104,0.015272,-0.0018326
-0.012177,0.74531,1.2553,9.5321,-0.018937,0.014661,-0.0015272
-0.016693,0.76492,1.2553,9.5321,-0.018631,0.015577,-0.002138
-0.021545,0.56879,1.2356,9.3555,-0.016799,0.015577,-0.0027489
-0.011658,0.74531,1.1572,9.4928,-0.018631,0.014355,-0.0015272
-0.008667,0.66685,1.2553,9.5125,-0.016188,0.013439,-0.002138
-0.0078735,0.74531,1.0395,9.5125,-0.016493,0.013439,-0.0033598
-0.013702,0.56879,1.1964,9.4732,-0.018326,0.013134,-0.0015272
-0.01123,0.76492,1.0003,9.5125,-0.017104,0.012523,-0.0027489
-0.018738,0.74531,1.1964,9.5713,-0.016188,0.013439,-0.0030543
-0.017792,0.49033,1.2553,9.5713,-0.018021,0.014661,-0.0024435
-0.0059814,0.56879,1.1572,9.5713,-0.017104,0.014661,-0.0009163
-0.0087891,0.74531,1.2356,9.5125,-0.019548,0.016799,-0.0030543
-0.026855,0.56879,1.2553,9.5713,-0.020769,0.019853,-0.0027489
-0.012604,0.56879,1.1964,9.5125,-0.018021,0.017104,-0.0012217
-0.0098267,0.74531,1.1964,9.6497,-0.01741,0.015272,-0.0024435
-0.018219,0.70608,1.2553,9.5125,-0.017715,0.01405,-0.002138
-0.01358,0.43149,1.2553,9.6497,-0.017104,0.014966,-0.0009163
-0.011353,0.74531,1.1964,9.5713,-0.017104,0.014966,-0.002138
-0.011383,0.74531,1.1376,9.5713,-0.015577,0.01405,-0.0024435
-0.013641,0.80415,1.0787,9.5125,-0.016799,0.013439,-0.002138
-0.010986,0.60801,1.2945,9.5125,-0.017715,0.009163,-0.0036652
-0.013458,0.45111,1.2553,9.5713,-0.017104,0.011301,-0.002138
-0.0098572,0.56879,1.0983,9.6301,-0.017715,0.014355,-0.0009163
-0.0046082,0.5884,1.2553,9.4732,-0.018021,0.01405,-0.0012217
-0.015472,0.5884,1.1768,9.434,-0.016799,0.014661,-0.0036652
-0.0046082,0.80415,1.2553,9.5321,-0.017715,0.014661,-0.0027489
-0.014587,0.56879,1.2553,9.5909,-0.018326,0.015577,-0.0009163
-0.013123,0.72569,1.2356,9.5321,-0.018021,0.014661,-0.0036652
-0.0065918,0.70608,1.1572,9.4732,-0.018631,0.012523,-0.0024435
-0.0063782,0.56879,1.2945,9.5713,-0.018937,0.014966,-0.0033598
-0.0098877,0.72569,1.2553,9.5125,-0.018937,0.014966,-0.0042761
-0.011292,0.80415,1.2553,9.6301,-0.016799,0.014661,-0.0042761
-0.0098877,0.76492,1.2945,9.5125,-0.01741,0.013439,-0.0042761
-0.020142,0.74531,1.1572,9.4928,-0.018326,0.014355,-0.0015272
-0.014435,0.54917,1.3337,9.6497,-0.016188,0.014966,-0.0015272
-0.011536,0.74531,1.2356,9.5713,-0.017715,0.014355,-0.0033598
-0.019684,0.64724,1.1964,9.5125,-0.016799,0.015882,-0.002138
-0.0090027,0.66685,1.2356,9.4928,-0.01741,0.015882,-0.0024435
-0.016296,0.56879,1.1964,9.434,-0.01741,0.014966,-0.0027489
-0.013184,0.56879,1.1768,9.5125,-0.017715,0.013744,-0.0039706
-0.0085144,0.66685,1.2945,9.4732,-0.018937,0.014355,-0.0030543
-0.016327,0.41188,1.2553,9.6301,-0.018021,0.015882,-0.0024435
-0.008667,0.56879,1.1964,9.434,-0.017104,0.015272,-0.0048869
-0.00015259,0.5884,1.118,9.5909,-0.018631,0.014966,-0.0048869
-0.0095215,0.54917,1.2553,9.6301,-0.018937,0.014355,-0.0030543
-0.017975,0.66685,1.1572,9.5713,-0.018326,0.013134,-0.0030543
-0.016418,0.74531,1.2553,9.5125,-0.016188,0.014661,-0.0042761
-0.020081,0.5884,1.1964,9.4928,-0.015577,0.01405,-0.0030543
-0.021576,0.70608,1.2356,9.5321,-0.015577,0.013744,-0.0015272
-0.014709,0.70608,1.1964,9.4732,-0.016799,0.014355,-0.0009163
-0.0079346,0.56879,1.2553,9.5125,-0.016799,0.014966,-0.0042761
-0.0048828,0.5884,1.1572,9.434,-0.01741,0.014966,-0.0018326
-0.01358,0.56879,1.2553,9.4928,-0.019853,0.019242,-0.002138
-0.010498,0.74531,1.0787,9.5125,-0.018937,0.017104,-0.0042761
-0.01181,0.70608,1.2553,9.5125,-0.018937,0.014661,-0.0042761
-0.0060425,0.60801,1.1768,9.5125,-0.016188,0.013134,-0.0033598
-0.01709,0.41188,1.2945,9.6301,-0.014966,0.013744,-0.0027489
-0.011444,0.60801,1.1964,9.4732,-0.016799,0.014355,-0.0018326
-0.0079651,0.74531,1.1572,9.5713,-0.017715,0.015272,-0.00061087
-0.020782,0.72569,1.1768,9.5321,-0.015882,0.014966,-0.0027489
-0.011078,0.41188,1.0787,9.7478,-0.015577,0.013134,-0.002138
-0.014648,0.66685,1.2553,9.5125,-0.016188,0.013439,-0.0024435
-0.01358,0.74531,1.1964,9.5321,-0.018326,0.01405,-0.0027489
-0.010925,0.72569,1.1572,9.5321,-0.018937,0.014355,-0.0027489
-0.0047302,0.56879,1.2553,9.3555,-0.017715,0.015577,-0.0009163
-0.011627,0.74531,1.1572,9.5125,-0.016799,0.015577,-0.0024435
-0.021606,0.74531,1.2553,9.5125,-0.016799,0.015272,-0.0030543
-0.022186,0.66685,1.1964,9.5125,-0.017715,0.015272,-0.0030543
-0.024811,0.56879,1.3141,9.5125,-0.017715,0.01741,-0.0036652
-0.009613,0.66685,1.1572,9.5125,-0.017104,0.014966,-0.002138
-0.0072632,0.74531,1.2553,9.5713,-0.018021,0.013134,-0.0024435
-0.014374,0.56879,1.1768,9.5125,-0.019242,0.015272,-0.0018326
-0.014893,0.72569,1.2553,9.5125,-0.018937,0.017104,-0.0033598
-0.013367,0.66685,1.1572,9.434,-0.017715,0.016188,-0.002138
-0.0040283,0.56879,1.1768,9.5713,-0.017104,0.015577,-0.0009163
-0.0019531,0.74531,1.1768,9.5125,-0.016799,0.015577,-0.0027489
-0.0044556,0.66685,1.2553,9.4928,-0.01741,0.012828,-0.002138
-0.019745,0.74531,1.2553,9.5321,-0.017104,0.01405,-0.0033598
-0.01355,0.66685,1.1768,9.4928,-0.017715,0.016188,-0.0027489
-0.017761,0.56879,1.2553,9.4732,-0.018326,0.014966,-0.002138
-0.010803,0.72569,1.2553,9.5713,-0.016799,0.013439,-0.0024435
-0.0098877,0.76492,1.1572,9.4536,-0.016799,0.014661,-0.0018326
-0.01355,0.70608,1.1768,9.5125,-0.017715,0.015272,-0.0015272
-0.016113,0.72569,1.1964,9.5125,-0.018937,0.016493,-0.002138
-0.019379,0.76492,1.1572,9.5713,-0.019548,0.016493,-0.0018326
0.0011292,0.66685,1.2553,9.5125,-0.018631,0.014966,-0.0009163
-0.013062,0.56879,1.2356,9.5125,-0.016188,0.015577,-0.002138
-0.013153,0.60801,1.2356,9.4928,-0.016799,0.016188,-0.0030543
-0.0076599,0.56879,1.1768,9.4144,-0.016493,0.015272,-0.0036652
-0.012482,0.66685,1.2553,9.5125,-0.016493,0.015272,-0.0036652
-0.013214,0.74531,1.1964,9.5713,-0.014966,0.014966,-0.0027489
-0.0063477,0.76492,1.1964,9.5713,-0.016493,0.016799,-0.0018326
-0.0066833,0.66685,1.1572,9.4928,-0.017715,0.016188,-0.0009163
-0.0075684,0.5884,1.2553,9.4732,-0.01741,0.015272,-0.0042761
-0.012238,0.54917,1.1572,9.434,-0.01741,0.015882,-0.0024435
-0.01001,0.74531,1.1964,9.5125,-0.018631,0.015272,-0.0015272
-0.030609,0.76492,1.2553,9.5713,-0.018937,0.014355,-0.0027489
-0.0066223,0.5884,1.1572,9.5713,-0.01741,0.015577,-0.0036652
-0.013794,0.54917,1.2553,9.4732,-0.016188,0.01405,-0.0030543
-0.021057,0.72569,1.1964,9.5125,-0.018631,0.01405,-0.0030543
-0.019592,0.56879,1.1964,9.4732,-0.01741,0.013134,-0.0036652
-0.011047,0.74531,1.1964,9.5713,-0.018326,0.013134,-0.002138
-0.0047302,0.60801,1.2356,9.5321,-0.018326,0.013744,-0.0030543
-0.016357,0.72569,1.2553,9.5125,-0.019242,0.01405,-0.0024435
-0.012177,0.74531,1.0395,9.5125,-0.019242,0.01405,-0.0024435
-0.010193,0.49033,1.1964,9.6301,-0.018326,0.014966,-0.0027489
-0.016937,0.56879,1.2553,9.5125,-0.019853,0.014966,-0.0027489
-0.0093994,0.45111,1.2356,9.6301,-0.018937,0.015882,-0.0018326
-0.014008,0.76492,1.1768,9.4928,-0.018631,0.018631,-0.0036652
-0.015533,0.76492,1.0787,9.5125,-0.01741,0.016188,-0.0033598
-0.0078735,0.56879,1.1964,9.5125,-0.018326,0.01405,-0.0024435
-0.018982,0.56879,1.1964,9.4928,-0.016493,0.014661,-0.0036652
-0.0066528,0.72569,1.2553,9.5125,-0.015882,0.015272,-0.0045815
-0.0072021,0.74531,1.0003,9.5125,-0.018021,0.015577,-0.0033598
-0.011139,0.56879,1.1572,9.5713,-0.018631,0.014966,-0.0018326
-0.016541,0.64724,1.2945,9.5125,-0.017104,0.012828,-0.0039706
-0.016388,0.76492,1.0787,9.4928,-0.01741,0.010385,-0.0048869
-0.010071,0.70608,1.2356,9.5125,-0.018021,0.012828,-0.0033598
-0.0038147,0.70608,1.2553,9.5125,-0.017715,0.014966,-0.0033598
-0.016632,0.74531,1.2553,9.5321,-0.018326,0.014355,-0.0030543
-0.0082092,0.56879,1.1572,9.5713,-0.017715,0.01405,-0.0036652
-0.012268,0.66685,1.1964,9.5125,-0.018937,0.01405,-0.0042761
-0.019104,0.66685,1.1572,9.5125,-0.018326,0.015882,-0.0039706
-0.0088501,0.54917,1.2945,9.5713,-0.019242,0.015882,-0.0039706
-0.006073,0.60801,0.94144,9.6301,-0.018937,0.019548,-0.0042761
-0.0046997,0.56879,1.2553,9.4928,-0.017715,0.016188,-0.0027489
-0.008728,0.50995,1.3141,9.6301,-0.017715,0.013744,-0.0027489
-0.015259,0.66685,1.1964,9.5125,-0.018021,0.014355,-0.0048869
-0.015167,0.70608,1.2553,9.5125,-0.016799,0.014661,-0.0048869
-0.014618,0.60801,1.2553,9.5125,-0.018937,0.015272,-0.0036652
0.0028076,0.74531,1.1964,9.5321,-0.017715,0.015577,-0.0033598
-0.0064087,0.74531,1.1964,9.5713,-0.015882,0.014661,-0.0030543
-0.0097046,0.60801,1.2356,9.5713,-0.016799,0.016493,-0.0036652
-0.011597,0.54917,1.1964,9.434,-0.018021,0.015577,-0.002138
-0.015564,0.60801,1.2553,9.434,-0.018631,0.014355,-0.0030543
-0.002594,0.56879,1.1572,9.434,-0.018326,0.015272,-0.0030543
-0.0072937,0.74531,1.2553,9.5125,-0.018326,0.015882,-0.0024435
-0.0027161,0.74531,1.2553,9.5125,-0.016188,0.014966,-0.002138
-0.018433,0.80415,1.0395,9.4928,-0.016799,0.015577,-0.002138
-0.012451,0.74531,1.2553,9.5713,-0.022297,0.015577,-0.002138
-0.0099487,0.56879,1.2553,9.5713,-0.019853,0.015882,-0.0009163
0.0016174,0.76492,1.1964,9.5321,-0.016799,0.015272,-0.0024435
-0.0065613,0.49033,1.2553,9.5713,-0.017104,0.014355,-0.0027489
-0.016235,0.74531,1.0395,9.5125,-0.017104,0.013744,-0.0027489
-0.012756,0.66685,1.2356,9.4928,-0.01741,0.015577,-0.0030543
-0.012054,0.5884,1.1768,9.4928,-0.01741,0.015272,-0.0030543
-0.010345,0.70608,1.1964,9.5125,-0.016799,0.014661,-0.0030543
-0.0074463,0.49033,1.2945,9.6301,-0.017104,0.013744,-0.0024435
-0.0089722,0.41188,1.2553,9.5713,-0.016493,0.013744,-0.0030543
-0.015259,0.72569,1.1572,9.4928,-0.018021,0.015577,-0.0042761
-0.015717,0.74531,1.2553,9.5321,-0.01741,0.015272,-0.0036652
-0.0098572,0.72569,1.2945,9.5125,-0.018021,0.015882,-0.0018326
-0.010559,0.49033,1.1964,9.5713,-0.018326,0.015577,-0.0033598
-0.014038,0.49033,1.2356,9.5713,-0.015882,0.014966,-0.0045815
-0.012207,0.60801,1.2553,9.5125,-0.016799,0.014966,-0.0030543
-0.005249,0.74531,1.2553,9.4928,-0.014355,0.014966,-0.00061087
-0.011932,0.76492,1.2553,9.5321,-0.016188,0.014355,-0.002138
-0.015411,0.72569,1.2553,9.5125,-0.016493,0.015272,-0.0012217
-0.0010376,0.74531,1.2945,9.5713,-0.016493,0.015272,-0.00061087
0.0010376,0.74531,1.1768,9.5713,-0.016493,0.015272,-0.0015272
-0.0079651,0.72569,1.1964,9.4928,-0.018021,0.014966,-0.0015272
0.017456,0.54917,1.2553,9.5125,-0.018631,0.013744,-0.002138
-0.010681,0.64724,1.1964,9.4928,-0.018326,0.013439,-0.0018326
-0.0056458,0.66685,1.3141,9.5125,-0.016188,0.014661,-0.0027489
-0.0059814,0.74531,1.0787,9.5125,-0.016188,0.017715,-0.0018326
-0.0021057,0.74531,1.1768,9.5125,-0.016493,0.016188,-0.0033598
-0.0093994,0.64724,1.2945,9.4928,-0.015882,0.014355,-0.0027489
-0.010559,0.66685,1.1964,9.5321,-0.017104,0.01405,-0.0036652
-0.012268,0.56879,1.2553,9.5713,-0.01741,0.015272,-0.0036652
-0.020508,0.70608,1.2553,9.5125,-0.017104,0.015272,-0.0027489
-0.014343,0.74531,1.1572,9.4928,-0.017715,0.015577,-0.0015272
-0.0072021,0.74531,1.0395,9.4928,-0.018326,0.014355,-0.0033598
-0.0088501,0.74531,1.1768,9.5125,-0.018937,0.0097738,-0.0033598
-0.014709,0.41188,1.2553,9.5909,-0.018631,0.013439,-0.0018326
-0.0065918,0.74531,1.1768,9.5125,-0.018021,0.015272,-0.002138
-0.004303,0.74531,1.1964,9.5321,-0.017715,0.013744,-0.0015272
-0.0029602,0.41188,1.2356,9.5909,-0.015882,0.014966,-0.0027489
-0.010406,0.56879,1.2945,9.5125,-0.01741,0.015272,-0.0030543
-0.017365,0.70608,1.2553,9.5125,-0.017715,0.014661,-0.0030543
-0.019653,0.56879,1.1572,9.434,-0.016188,0.016493,-0.0036652
-0.0053406,0.45111,1.1964,9.6301,-0.016493,0.020464,-0.0030543
-0.012115,0.54917,1.2553,9.5713,-0.015882,0.018021,-0.0033598
-0.015228,0.56879,1.1376,9.6301,-0.015272,0.015882,-0.0024435
-0.016449,0.74531,1.1964,9.5321,-0.016188,0.015882,-0.0030543
-0.023621,0.74531,1.1964,9.5713,-0.016799,0.015882,-0.0033598
-0.013824,0.5884,1.2553,9.5125,-0.015882,0.015577,-0.002138
-0.015045,0.74531,1.0003,9.5125,-0.015577,0.015577,-0.0030543
-0.0044861,0.66685,1.2553,9.5125,-0.01741,0.013439,-0.0015272
-0.011108,0.49033,1.0787,9.6694,-0.01741,0.015272,-0.002138
-0.01825,0.60801,1.1768,9.434,-0.018326,0.014661,-0.0039706
-0.014893,0.49033,1.2553,9.5713,-0.018937,0.014966,-0.0027489
-0.014313,0.76492,1.2356,9.5125,-0.019548,0.016188,-0.0033598
-0.0087891,0.66685,1.2356,9.5125,-0.019242,0.015272,-0.0036652
-0.0054932,0.70608,1.2553,9.5125,-0.01741,0.014661,-0.0024435
-0.0099182,0.74531,1.0395,9.5125,-0.016493,0.015882,-0.002138
-0.0081177,0.56879,1.2553,9.5125,-0.018326,0.01741,-0.0030543
-0.011047,0.74531,1.3337,9.5125,-0.018021,0.014355,-0.002138
-0.0088196,0.74531,1.2553,9.5909,-0.019242,0.014661,-0.0024435
-0.0092468,0.56879,1.2945,9.434,-0.018631,0.016493,-0.0030543
-0.015717,0.74531,1.0395,9.5125,-0.018326,0.015272,-0.0033598
-0.018127,0.74531,1.2945,9.5321,-0.017104,0.013744,-0.0045815
-0.010986,0.54917,1.2553,9.5125,-0.015577,0.014355,-0.0045815
-0.0025024,0.66685,1.2553,9.5125,-0.015577,0.014661,-0.0036652
-0.013519,0.74531,1.0787,9.4928,-0.014355,0.015272,-0.0018326
-0.0098572,0.5884,1.1572,9.5713,-0.014661,0.01405,-0.0030543
-0.018738,0.49033,1.2553,9.5713,-0.017104,0.015577,-0.0033598
-0.010956,0.5884,1.0983,9.5321,-0.01741,0.016188,-0.0042761
-0.0066223,0.49033,1.1964,9.5713,-0.016799,0.015272,-0.0048869
-0.010559,0.74531,1.1572,9.5125,-0.015577,0.014661,-0.0042761
-0.016815,0.41188,1.2553,9.6497,-0.015882,0.01405,-0.002138
-0.014221,0.56879,1.1964,9.5321,-0.017104,0.015577,-0.0015272
-0.0083313,0.60801,1.1572,9.5713,-0.01741,0.016799,-0.0045815
-0.0096741,0.56879,1.1964,9.5125,-0.01741,0.018326,-0.0033598
0.00057983,0.74531,1.0787,9.5125,-0.016799,0.016493,-0.0036652
-0.0098267,0.76492,1.1572,9.434,-0.015882,0.015882,-0.0027489
-0.012939,0.5884,1.1964,9.4928,-0.017104,0.015577,-0.0027489
-0.017944,0.74531,1.2356,9.5321,-0.018021,0.014355,-0.0036652
-0.0077515,0.49033,1.2553,9.5713,-0.016188,0.01405,-0.0042761
-0.011627,0.41188,1.2553,9.5713,-0.014966,0.015272,-0.0048869
-0.010101,0.60801,1.1964,9.4732,-0.017104,0.016188,-0.0015272
-0.0086975,0.74531,1.1768,9.5321,-0.016188,0.019548,-0.0009163
-0.013,0.74531,1.1572,9.4928,-0.016188,0.015882,-0.0012217
-0.0015869,0.74531,1.0787,9.5125,-0.016188,0.014355,-0.0027489
-0.0081787,0.72569,1.2553,9.5125,-0.017715,0.014966,-0.002138
-0.018066,0.76492,1.2553,9.5321,-0.018937,0.014966,-0.00061087
-0.019135,0.56879,1.1572,9.5321,-0.016799,0.014661,-0.0024435
-0.0066833,0.56879,1.1964,9.434,-0.018326,0.014661,-0.0033598
-0.0090332,0.56879,1.1964,9.4144,-0.016799,0.013744,-0.0036652
-0.0072021,0.74531,1.1768,9.5713,-0.018326,0.0094684,-0.0039706
-0.023682,0.70608,1.2553,9.5125,-0.018326,0.011912,-0.0024435
-0.014801,0.72569,1.1964,9.5713,-0.016188,0.01405,-0.0030543
-0.0031738,0.74531,1.2553,9.5713,-0.015577,0.013439,-0.0009163
-0.0010681,0.49033,1.3141,9.6301,-0.017715,0.014966,-0.0027489
-0.0065613,0.41188,1.1964,9.6301,-0.018021,0.016188,-0.0039706
-0.010284,0.60801,1.2553,9.4928,-0.016188,0.015577,-0.0030543
-0.011139,0.54917,1.2553,9.6301,-0.01741,0.015882,-0.0027489
-0.010651,0.76492,1.2553,9.5713,-0.018021,0.017715,-0.0030543
-0.012054,0.74531,1.2553,9.5321,-0.017715,0.016188,-0.0027489
-0.017151,0.49033,1.2553,9.5713,-0.017104,0.014355,-0.0033598
-0.014374,0.5884,1.1572,9.5713,-0.018937,0.014661,-0.0042761
-0.01712,0.74531,1.1376,9.5125,-0.018021,0.014661,-0.0036652
-0.014069,0.74531,1.2553,9.5713,-0.018937,0.012828,-0.002138
-0.018921,0.76492,1.1376,9.4928,-0.017715,0.013744,-0.002138
-0.013458,0.56879,1.2553,9.5321,-0.018326,0.015272,-0.0030543
-0.01178,0.56879,1.1768,9.6301,-0.016799,0.014355,-0.0012217
-0.0069275,0.64724,1.2356,9.5125,-0.018631,0.014355,-0.0015272
-0.010712,0.74531,1.2553,9.5125,-0.019242,0.013744,-0.0024435
-0.010223,0.56879,1.2356,9.4928,-0.018326,0.013439,-0.0024435
-0.0054016,0.72569,1.2553,9.5321,-0.016493,0.01405,-0.0012217
-0.015503,0.64724,1.2356,9.4928,-0.016188,0.014966,-0.00030543
-0.0073242,0.50995,1.2553,9.5713,-0.016188,0.014966,-0.0015272
-0.015076,0.74531,1.0395,9.5125,-0.018326,0.014661,-0.0036652
-0.012604,0.56879,1.0787,9.6301,-0.017715,0.014966,-0.0036652
-0.013916,0.72569,1.2945,9.5125,-0.017104,0.016188,-0.0015272
-0.010651,0.74531,1.0199,9.5125,-0.014966,0.015882,-0.0012217
0.0016785,0.72569,1.2553,9.5713,-0.014966,0.014661,-0.0012217
-0.0042725,0.66685,1.1964,9.5125,-0.015882,0.01405,-0.0009163
-0.0068665,0.74531,1.1964,9.5125,-0.017104,0.014355,-0.0027489
-0.015198,0.74531,1.1572,9.5909,-0.017715,0.014355,-0.0033598
-0.0077209,0.54917,1.2553,9.5713,-0.014355,0.01405,-0.002138
-0.0013428,0.56879,1.2945,9.5125,-0.014966,0.012828,-0.002138
-0.012878,0.66685,1.1964,9.5125,-0.017104,0.01405,-0.002138
-0.010437,0.56879,1.1572,9.5125,-0.017104,0.014355,-0.002138
-0.011932,0.41188,1.2553,9.6497,-0.017104,0.016188,-0.0027489
-0.0042725,0.66685,1.1768,9.6301,-0.014966,0.015272,-0.0036652
-0.0097961,0.54917,1.2553,9.5713,-0.016799,0.01405,-0.0030543
-0.011444,0.64724,1.2553,9.5125,-0.017715,0.01405,-0.0015272
-0.018341,0.70608,1.1572,9.5321,-0.015882,0.01405,-0.0039706
-0.0075378,0.70608,1.1572,9.4732,-0.015882,0.011606,-0.0042761
-0.0065308,0.60801,1.1768,9.434,-0.016188,0.013744,-0.002138
-0.0060425,0.72569,1.2553,9.5125,-0.016799,0.015577,-0.0027489
-0.017334,0.74531,1.2945,9.5713,-0.015577,0.015577,-0.0030543
-0.0072327,0.74531,1.1572,9.5125,-0.017104,0.015272,-0.0030543
-0.01355,0.56879,1.1964,9.4928,-0.016493,0.015272,-0.0033598
-0.014801,0.72569,1.1964,9.5125,-0.016188,0.015577,-0.0033598
-0.012482,0.74531,1.0395,9.5125,-0.015882,0.016188,-0.0027489
-0.013397,0.74531,1.2356,9.5125,-0.015577,0.019853,-0.0033598
-0.01474,0.74531,1.2553,9.5125,-0.016799,0.017715,-0.0048869
-0.0032654,0.43149,1.2553,9.5713,-0.017104,0.015272,-0.0051924
-0.0081787,0.49033,1.3141,9.5713,-0.015882,0.014966,-0.0033598
-0.01474,0.72569,1.1768,9.5125,-0.017104,0.014966,-0.0027489
-0.023987,0.74531,1.2553,9.5125,-0.016799,0.01405,-0.0048869
-0.0087891,0.56879,1.2945,9.4928,-0.016799,0.014661,-0.0030543
-0.0039978,0.74531,1.0395,9.4928,-0.01741,0.014661,-0.0024435
-0.018219,0.74531,1.1572,9.5125,-0.018021,0.012523,-0.0042761
-0.012115,0.5884,1.2356,9.4928,-0.018326,0.013744,-0.0039706
-0.018524,0.74531,1.1964,9.5713,-0.018937,0.015577,-0.0042761
-0.0022278,0.66685,1.2945,9.5125,-0.01741,0.01405,-0.0036652
-0.0038452,0.66685,1.2356,9.5713,-0.016188,0.013439,-0.0030543
6.1035e-05,0.56879,1.1768,9.5713,-0.018937,0.014355,-0.0027489
-0.0092468,0.49033,1.2945,9.5713,-0.018021,0.016188,-0.002138
-0.008667,0.64724,1.2553,9.4928,-0.016188,0.016799,-0.0039706
-0.0024109,0.76492,1.0787,9.5125,-0.016799,0.016493,-0.0033598
-0.013519,0.5884,1.1768,9.5713,-0.016799,0.015272,-0.0036652
-0.011566,0.56879,1.2356,9.5125,-0.01741,0.014355,-0.002138
-0.012939,0.66685,1.2553,9.5713,-0.018326,0.013744,-0.0015272
-0.0088501,0.56879,1.1572,9.434,-0.019548,0.014966,-0.0030543
-0.0058289,0.74531,1.2553,9.5713,-0.01741,0.015882,-0.0042761
-0.012207,0.5884,1.2553,9.4928,-0.016188,0.01405,-0.0045815
-0.011078,0.66685,1.2553,9.5321,-0.016799,0.015272,-0.00030543
-0.017334,0.49033,1.2356,9.5713,-0.016799,0.01405,-0.0018326
-0.0074158,0.76492,1.0787,9.5125,-0.016799,0.014355,-0.0027489
-0.012024,0.41188,1.2553,9.5909,-0.017104,0.014355,-0.0015272
-0.011383,0.74531,1.1572,9.4928,-0.018937,0.014966,-0.0036652
-0.020782,0.56879,1.2945,9.5125,-0.018021,0.015272,-0.0030543
-0.018311,0.5884,1.1572,9.5909,-0.018937,0.015882,-0.0012217
-0.00061035,0.54917,1.2553,9.4732,-0.017104,0.015577,-0.0009163
-0.00018311,0.74531,1.1768,9.5125,-0.018937,0.015577,-0.0030543
-0.016937,0.41188,1.3141,9.6301,-0.017104,0.018631,-0.0033598
-0.019409,0.70608,1.2356,9.5125,-0.018631,0.017104,-0.0024435
-0.0076294,0.56879,1.1964,9.5125,-0.01741,0.015272,-0.0030543
-0.010315,0.74531,1.2553,9.5321,-0.018021,0.015577,-0.0033598
-0.0082092,0.56879,1.2356,9.5125,-0.019548,0.016188,-0.0027489
-0.006897,0.5884,1.1572,9.5713,-0.018631,0.016188,-0.0048869
-0.011108,0.76492,1.1964,9.5713,-0.019853,0.015272,-0.0048869
-0.010651,0.56879,1.2553,9.5125,-0.015272,0.014966,-0.0027489
-0.0093689,0.43149,1.0787,9.6694,-0.015577,0.013134,-0.0033598
-0.0098877,0.64724,1.1572,9.5125,-0.01741,0.013439,-0.0012217
-0.0072937,0.56879,1.1572,9.5909,-0.016493,0.015272,-0.0009163
-0.0014343,0.76492,1.1572,9.4732,-0.015882,0.016188,-0.0009163
-0.0039978,0.74531,1.2553,9.5713,-0.017715,0.016799,-0.0015272
-0.0027771,0.74531,1.1964,9.5321,-0.018021,0.016493,-0.0030543
-0.0054321,0.74531,1.0199,9.5125,-0.018021,0.015882,-0.0036652
-0.016815,0.72569,1.1964,9.5321,-0.018021,0.013134,-0.0027489
-0.011749,0.80415,1.2553,9.5713,-0.019548,0.0097738,-0.0045815
-0.0052185,0.74531,1.1768,9.5321,-0.017104,0.01405,-0.0048869
-0.0071716,0.66685,1.2945,9.5125,-0.01741,0.018021,-0.0039706
-0.011078,0.66685,1.2553,9.5125,-0.01741,0.016799,-0.0039706
-0.014404,0.74531,1.2945,9.5321,-0.01741,0.015577,-0.0030543
-0.0054321,0.56879,1.1572,9.5713,-0.017715,0.015272,-0.0018326
-0.0046387,0.64724,1.2356,9.5125,-0.018937,0.015272,-0.0012217
-0.010437,0.72569,1.2356,9.5125,-0.017104,0.016799,-0.0036652
-0.0032654,0.5884,1.2356,9.434,-0.018326,0.018021,-0.0033598
-0.0057373,0.74531,1.0787,9.4928,-0.018021,0.016799,-0.0030543
-0.012939,0.43149,1.2553,9.5713,-0.018021,0.015882,-0.0030543
-0.01239,0.70608,1.2553,9.5125,-0.018326,0.015272,-0.0033598
-0.011505,0.56879,1.2553,9.5125,-0.020159,0.014355,-0.0033598
-0.011292,0.74531,1.2945,9.5321,-0.020769,0.013744,-0.0027489
-0.01416,0.54917,1.2356,9.5909,-0.019242,0.014355,-0.0030543
-0.0061646,0.41188,1.2553,9.5713,-0.018631,0.01405,-0.0033598
-0.0080566,0.56879,1.2553,9.4928,-0.019548,0.01405,-0.0018326
-0.0057678,0.56879,1.1768,9.4928,-0.02138,0.015577,-0.0027489
-0.011322,0.74531,1.2553,9.4928,-0.020159,0.016188,-0.0033598
0.0053101,0.49033,1.1964,9.5713,-0.01741,0.015577,-0.0042761
-0.013947,0.66685,1.2553,9.5321,-0.018021,0.014661,-0.0030543
-0.020874,0.50995,1.1964,9.4732,-0.019548,0.01405,-0.0027489
-0.020599,0.72569,1.2553,9.5321,-0.018326,0.014355,-0.0033598
-0.0083923,0.56879,1.1376,9.6301,-0.017104,0.015272,-0.0012217
-0.0012512,0.66685,1.2553,9.5125,-0.017104,0.013439,-0.0030543
-0.005188,0.74531,1.0395,9.5125,-0.019853,0.013744,-0.002138
-0.0060425,0.74531,1.2356,9.5321,-0.018631,0.015577,-0.0024435
-0.010651,0.49033,1.2553,9.5713,-0.017715,0.015272,-0.0012217
-0.0067139,0.45111,1.2553,9.5909,-0.017104,0.014661,-0.0018326
-0.017029,0.76492,1.1964,9.4928,-0.017104,0.014661,-0.0033598
-0.0089417,0.74531,1.1768,9.5321,-0.016799,0.014355,-0.0015272
-0.0037842,0.80415,1.1964,9.5321,-0.018326,0.014355,-0.0015272
-0.017883,0.76492,1.2945,9.5125,-0.018326,0.013439,-0.0039706
-0.013397,0.5884,1.1572,9.5713,-0.018631,0.01405,-0.0036652
-0.015961,0.54917,1.2553,9.5125,-0.019242,0.01405,-0.0039706
-0.010773,0.56879,1.1964,9.5713,-0.019548,0.014966,-0.0027489
-0.015381,0.41188,1.2553,9.6497,-0.018326,0.015577,-0.0030543
0.0024414,0.76492,1.1964,9.5321,-0.016188,0.015272,-0.0036652
-0.013031,0.80415,1.2553,9.5321,-0.016493,0.015272,-0.0024435
-0.015869,0.43149,1.2749,9.5713,-0.019242,0.015272,-0.0036652
-0.0073242,0.56879,1.2553,9.4928,-0.019548,0.018021,-0.0018326
-0.0037537,0.50995,1.1964,9.5713,-0.020159,0.018021,-0.0042761
-0.0046082,0.74531,1.0787,9.5125,-0.019242,0.016493,-0.0042761
-0.0079956,0.43149,1.2553,9.5713,-0.01741,0.015882,-0.0042761
-0.0047302,0.70608,1.2356,9.4928,-0.018631,0.015577,-0.0039706
-0.016266,0.74531,1.0395,9.4928,-0.018021,0.013134,-0.0039706
-0.0015259,0.66685,1.2945,9.5321,-0.019853,0.013134,-0.0030543
-0.0022278,0.66685,1.2553,9.5321,-0.018631,0.014661,-0.0027489
-0.0041504,0.74531,1.0199,9.5125,-0.019853,0.012217,-0.0024435
-0.011475,0.72569,1.2553,9.5125,-0.01741,0.013744,-0.002138
-0.0098877,0.66685,1.1964,9.5125,-0.017715,0.016188,-0.0033598
-0.0093079,0.66685,1.1964,9.5125,-0.018326,0.015577,-0.0042761
-0.0047913,0.49033,1.2553,9.5713,-0.018021,0.01405,-0.0048869
-0.0098877,0.74531,1.1572,9.5321,-0.020159,0.01405,-0.0042761
-0.0047302,0.60801,1.2945,9.434,-0.017104,0.015577,-0.0033598
-0.002594,0.66685,1.2356,9.5321,-0.018326,0.013744,-0.0042761
-0.0057373,0.43149,1.0787,9.5125,-0.019853,0.012523,-0.002138
-0.0024719,0.74531,1.1964,9.6497,-0.01741,0.014661,-0.0036652
-0.015015,0.72569,1.2553,9.5125,-0.018631,0.015882,-0.0024435
-0.010803,0.72569,1.1964,9.5125,-0.018937,0.015577,-0.0009163
-0.0090332,0.45111,1.2553,9.5713,-0.018326,0.016188,-0.002138
-0.0028076,0.56879,1.2553,9.5713,-0.018631,0.014966,-0.0036652
-0.0067444,0.66685,1.1572,9.5321,-0.018021,0.013439,-0.0042761
-0.00018311,0.66685,1.1572,9.4732,-0.018631,0.016493,-0.0048869
-0.016052,0.56879,1.1572,9.3752,-0.018937,0.018631,-0.0042761
-0.0072632,0.72569,1.2945,9.4928,-0.017715,0.016188,-0.0015272
-0.009552,0.74531,1.2553,9.5713,-0.016799,0.013744,-0.0024435
-0.011108,0.70608,1.1768,9.5713,-0.016799,0.01405,-0.0030543
-0.010437,0.74531,1.2356,9.5321,-0.017715,0.014661,-0.0024435
-0.0089722,0.54917,1.2945,9.5909,-0.018326,0.014355,-0.002138
-0.00064087,0.56879,1.1572,9.6301,-0.018326,0.014355,-0.0033598
-0.0073547,0.54917,1.2553,9.5713,-0.019242,0.014355,-0.00030543
-0.011902,0.74531,1.0787,9.5125,-0.019242,0.012828,-0.0009163
-0.0076904,0.74531,1.1964,9.5125,-0.018326,0.014661,-0.0048869
-0.0045166,0.66685,1.2553,9.4928,-0.019548,0.014355,-0.0045815
-0.0028381,0.72569,1.1768,9.5321,-0.018937,0.015577,-0.0033598
-0.012207,0.74531,1.1964,9.5321,-0.018631,0.015577,-0.0048869
-0.021729,0.56879,1.2356,9.5125,-0.01741,0.01405,-0.0030543
-0.0069275,0.72569,1.2553,9.5125,-0.017104,0.014661,-0.0018326
-0.0067444,0.72569,1.2553,9.5321,-0.017104,0.015882,-0.0033598
-0.007843,0.74531,1.1964,9.4928,-0.019548,0.015882,-0.0042761
-0.0093079,0.72569,1.2553,9.5125,-0.019242,0.013744,-0.0036652
-0.005127,0.56879,1.1572,9.5713,-0.018326,0.014661,-0.0027489
-0.0085754,0.50995,1.1964,9.5713,-0.017104,0.015882,-0.0024435
-0.0062866,0.49033,1.2356,9.6301,-0.019242,0.015577,-0.0018326
-0.016846,0.66685,1.1768,9.5125,-0.020464,0.013744,-0.0027489
-0.0085754,0.66685,1.2553,9.4732,-0.018021,0.014355,-0.0033598
-0.004303,0.74531,1.2553,9.5125,-0.018326,0.013744,-0.0024435
-0.0023499,0.74531,1.1768,9.5321,-0.019548,0.013744,-0.0033598
-0.0079651,0.66685,1.1572,9.3752,-0.019548,0.014661,-0.0030543
-0.015259,0.66685,1.2553,9.4928,-0.01741,0.014661,-0.0030543
-0.0027161,0.74531,1.2553,9.5713,-0.018021,0.01405,-0.0027489
-0.002655,0.49033,1.2553,9.6301,-0.019548,0.014966,-0.0033598
-0.0057678,0.56879,1.1964,9.5125,-0.018631,0.014966,-0.0039706
-0.006958,0.60801,1.2553,9.4732,-0.018021,0.014661,-0.0024435
-0.0027771,0.80415,1.2945,9.5321,-0.018631,0.015882,-0.0018326
-9.1553e-05,0.41188,1.2945,9.5713,-0.01741,0.018326,-0.0042761
-0.0075684,0.54917,1.2553,9.5909,-0.018326,0.016188,-0.0027489
-0.0087891,0.56879,1.1572,9.5909,-0.018937,0.014355,-0.0030543
-0.010132,0.5884,1.1964,9.4928,-0.017715,0.014661,-0.0018326
-0.0091858,0.74531,1.0787,9.5125,-0.016799,0.014661,-0.0024435
-0.015991,0.66685,1.2356,9.5125,-0.019548,0.013439,-0.0033598
-0.0033264,0.56879,1.1768,9.434,-0.02138,0.014966,-0.0015272
-0.013306,0.74531,1.2945,9.5321,-0.018326,0.014966,-0.0009163
0.00021362,0.5884,1.1964,9.5125,-0.018937,0.010996,-0.0009163
0.0057068,0.54917,1.2553,9.5713,-0.018021,0.014661,-0.0036652
-0.0032043,0.66685,1.1376,9.5125,-0.018021,0.015272,-0.0027489
-0.010834,0.5884,1.2553,9.5125,-0.018937,0.013744,-0.0039706
-0.0056458,0.74531,1.1964,9.5713,-0.017715,0.014966,-0.0036652
-0.0047607,0.66685,1.2553,9.5125,-0.016799,0.015882,-0.0018326
-0.0079041,0.56879,1.1768,9.434,-0.016493,0.014661,-0.0012217
-0.020752,0.74531,1.2356,9.5125,-0.018937,0.01405,-0.0033598
-0.01178,0.56879,1.2553,9.4928,-0.018021,0.013439,-0.0027489
-0.0061951,0.74531,1.0395,9.5125,-0.016799,0.015882,-0.0027489
-0.015625,0.72569,1.2356,9.5125,-0.017715,0.014355,-0.0015272
-0.0048523,0.72569,1.2553,9.5125,-0.018937,0.014355,-0.002138
-0.011658,0.74531,1.2553,9.5321,-0.018326,0.015882,-0.0024435
-0.019104,0.56879,1.1768,9.5713,-0.017104,0.015272,-0.0018326
-0.013947,0.76492,1.1572,9.4928,-0.018937,0.01405,-0.002138
-0.010437,0.66685,1.1768,9.5125,-0.019242,0.014661,-0.0015272
-0.01355,0.50995,1.0787,9.6694,-0.018631,0.016493,-0.0030543
-0.013367,0.70608,1.2553,9.5125,-0.019548,0.015577,-0.0027489
-0.0079956,0.72569,1.2553,9.5125,-0.020769,0.013744,-0.0027489
-0.0032349,0.70608,1.1768,9.4732,-0.020464,0.014355,-0.0036652
-0.012482,0.54917,1.2356,9.5713,-0.019853,0.015272,-0.0030543
-0.0074768,0.54917,1.2356,9.5909,-0.019242,0.015272,-0.0030543
-0.0092468,0.66685,1.2356,9.5125,-0.018937,0.015577,-0.0033598
-0.0025635,0.70608,1.2356,9.4928,-0.018326,0.014355,-0.0042761
-0.0076904,0.76492,1.1572,9.5713,-0.018021,0.015577,-0.0039706
-0.012604,0.72569,1.1964,9.5125,-0.018021,0.015272,-0.0030543
-0.008728,0.74531,1.3337,9.5321,-0.018021,0.013439,-0.0018326
-0.0058594,0.70608,1.2553,9.5321,-0.017104,0.014355,-0.0027489
-0.0019226,0.66685,1.2945,9.5713,-0.017104,0.014355,-0.0033598
-0.0064087,0.49033,1.3141,9.5713,-0.016799,0.014966,-0.0048869
-0.0054932,0.56879,1.1572,9.6301,-0.01741,0.015882,-0.0054978
0.0070801,0.76492,1.1572,9.434,-0.020464,0.014355,-0.0033598
-0.0062866,0.66685,1.1964,9.5125,-0.019548,0.015882,-0.0039706
-0.013611,0.66685,1.2553,9.4732,-0.017715,0.014661,-0.0036652
-0.0048828,0.74531,1.2553,9.5713,-0.016493,0.013439,-0.002138
-0.0054016,0.5884,1.1572,9.5713,-0.018021,0.014355,-0.0027489
-0.00079346,0.56879,1.1964,9.4732,-0.018021,0.014355,-0.0036652
-0.0025635,0.66685,1.2945,9.5321,-0.018326,0.014661,-0.0024435
-0.0064392,0.74531,1.2553,9.5125,-0.018937,0.014661,-0.0024435
-0.010101,0.41188,1.2553,9.5909,-0.018937,0.013439,-0.0030543
-0.006958,0.64724,1.2553,9.5125,-0.018326,0.0094684,-0.0036652
-0.0067749,0.74531,1.1768,9.5125,-0.01741,0.011912,-0.0042761
-0.0075684,0.80415,1.1964,9.5713,-0.018631,0.014661,-0.0054978
-0.0049438,0.49033,1.2553,9.5713,-0.019242,0.014661,-0.0042761
-0.01123,0.80415,1.2356,9.5713,-0.019548,0.015272,-0.002138
-0.0070496,0.74531,1.2553,9.5125,-0.018937,0.016188,-0.002138
-0.01355,0.74531,1.1572,9.4732,-0.018631,0.015577,-0.0030543
-0.0036926,0.74531,1.1768,9.5321,-0.018937,0.014661,-0.0027489
-0.0097656,0.41188,1.1768,9.5713,-0.018021,0.018326,-0.0033598
-0.0065308,0.50995,1.2553,9.5713,-0.019242,0.016493,-0.0027489
-0.0072937,0.60801,1.1768,9.5125,-0.019548,0.016188,-0.0039706
-0.01181,0.72569,1.1768,9.5321,-0.018326,0.016188,-0.0039706
-0.014221,0.56879,1.1964,9.4732,-0.017104,0.014661,-0.0024435
-0.011566,0.74531,1.0787,9.5713,-0.018326,0.014661,-0.0024435
-0.015045,0.54917,1.2553,9.5713,-0.018937,0.015272,-0.002138
-0.0094299,0.56879,1.1964,9.4928,-0.017104,0.015272,-0.002138
-0.0071106,0.70608,1.2553,9.5125,-0.020159,0.018326,-0.0018326
-0.0084839,0.74531,1.0395,9.5321,-0.019853,0.016799,-0.0033598
-0.0023804,0.74531,1.1964,9.6301,-0.018021,0.015577,-0.0033598
-0.0086975,0.74531,1.2553,9.5125,-0.017715,0.014966,-0.0036652
0.00033569,0.60801,1.1572,9.5713,-0.017104,0.015272,-0.0024435
-0.010773,0.70608,1.2945,9.5125,-0.017104,0.015882,-0.0027489
-0.0066833,0.66685,1.2553,9.4928,-0.01741,0.014355,-0.0039706
-0.0052795,0.74531,1.2553,9.5713,-0.019548,0.013744,-0.0015272
-0.0082397,0.72569,1.1964,9.4732,-0.017715,0.012828,-0.0009163
-0.0054626,0.60801,1.2356,9.5321,-0.016188,0.01405,-0.0018326
-0.0037537,0.72569,1.2356,9.5321,-0.016799,0.014661,-0.002138
-0.0093079,0.66685,1.2553,9.5125,-0.018326,0.015577,-0.0033598
-0.008667,0.80415,1.2945,9.5125,-0.017715,0.015577,-0.0039706
-0.0074463,0.60801,1.1964,9.434,-0.018021,0.01405,-0.0036652
-0.010529,0.70608,1.1964,9.5125,-0.020769,0.01405,-0.0024435
-0.0096436,0.54917,1.2553,9.5909,-0.016188,0.014661,-0.0024435
-0.011139,0.74531,1.1572,9.5909,-0.017104,0.014355,-0.0036652
-0.0038147,0.74531,1.1768,9.5125,-0.017715,0.015577,-0.0015272
-0.012238,0.66685,1.1964,9.5321,-0.017715,0.016493,-0.0030543
-0.0091858,0.50995,1.1572,9.5713,-0.01741,0.015882,-0.0018326
-0.0073547,0.56879,1.2553,9.5713,-0.01741,0.015882,-0.002138
-0.0050659,0.56879,1.1964,9.5125,-0.017104,0.014966,-0.0045815
-0.0035095,0.74531,1.1768,9.5713,-0.016799,0.013134,-0.0027489
-0.0046997,0.50995,1.3141,9.5321,-0.019548,0.013439,-0.0030543
-0.0057983,0.66685,1.0787,9.6694,-0.018326,0.015577,-0.0030543
-0.0027466,0.66685,1.3141,9.5125,-0.018937,0.016799,-0.00061087
-0.0062866,0.49033,1.2553,9.5713,-0.018326,0.015882,-0.0024435
-0.0079651,0.60801,1.2553,9.5909,-0.019242,0.015882,-0.0048869
-0.011932,0.76492,1.2356,9.5125,-0.019242,0.015272,-0.0045815
-0.007843,0.56879,1.2945,9.5125,-0.019548,0.015577,-0.0033598
-0.0026855,0.60801,1.1964,9.5321,-0.019548,0.014355,-0.0024435
-0.0093384,0.74531,1.2553,9.5125,-0.019548,0.016799,-0.0030543
-0.0084839,0.74531,1.2356,9.5321,-0.018631,0.021075,-0.002138
0.0056763,0.76492,1.2553,9.5321,-0.01741,0.017715,-0.0042761
-0.0112,0.74531,1.1768,9.5321,-0.016799,0.014661,-0.0030543
-0.0075378,0.56879,1.2553,9.4928,-0.017104,0.015882,-0.0015272
-0.011414,0.74531,1.3337,9.5713,-0.017715,0.016188,-0.0015272
0.00042725,0.74531,1.1572,9.4928,-0.018631,0.015577,-0.0027489
-0.004425,0.74531,1.1572,9.5713,-0.018021,0.016493,-0.0024435
-0.014618,0.54917,1.1572,9.5713,-0.016799,0.014661,-0.0036652
-0.0087585,0.49033,1.2945,9.6301,-0.016493,0.010385,-0.0036652
-0.010681,0.66685,1.2945,9.5125,-0.017715,0.014355,-0.0033598
0.0056458,0.60801,1.1964,9.5321,-0.016799,0.016188,-0.0045815
-0.012665,0.56879,1.1572,9.5713,-0.015577,0.014661,-0.0042761
-0.0081177,0.56879,1.2553,9.5125,-0.01741,0.014661,-0.0042761
-0.0055237,0.41188,1.2356,9.5321,-0.018326,0.015882,-0.0027489
-0.0058899,0.56879,1.2553,9.4928,-0.017715,0.014355,-0.0027489
-0.0095825,0.66685,1.2553,9.5125,-0.016188,0.014966,-0.0009163
-0.019257,0.74531,1.0395,9.4928,-0.016799,0.019548,-0.0009163
-0.01059,0.41188,1.2945,9.6497,-0.018021,0.017715,-0.0024435
-0.007019,0.70608,1.2356,9.4928,-0.017715,0.015272,-0.0009163
-0.009491,0.74531,1.0787,9.5125,-0.015882,0.014355,-0.00030543
-0.0048218,0.56879,1.2356,9.434,-0.01741,0.013744,-0.0030543
-0.013611,0.66685,1.2356,9.5125,-0.018021,0.013439,-0.0030543
-0.0050964,0.74531,1.2553,9.5713,-0.01741,0.01405,-0.0024435
-0.0064697,0.76492,1.1768,9.5713,-0.018631,0.014355,-0.0033598
-0.0016174,0.54917,1.2553,9.5713,-0.017104,0.015882,-0.0033598
-0.0093079,0.54917,1.1768,9.5713,-0.017715,0.013439,-0.0036652
-0.0065613,0.5884,1.2553,9.4928,-0.020464,0.013744,-0.0058032
-0.0093384,0.74531,1.2553,9.5713,-0.019242,0.014966,-0.0039706
-0.010925,0.66685,1.2553,9.5713,-0.018021,0.016799,-0.0036652
-0.009552,0.56879,1.1964,9.434,-0.018937,0.015272,-0.0030543
-0.007019,0.72569,1.2553,9.5125,-0.018326,0.01405,-0.0033598
-0.0018311,0.41188,1.1768,9.6301,-0.018021,0.014355,-0.0036652
-0.0083923,0.74531,1.3141,9.5125,-0.017715,0.014966,-0.0033598
-0.011261,0.56879,1.2553,9.4928,-0.016493,0.015577,-0.0030543
-0.00024414,0.56879,1.2553,9.6301,-0.016188,0.01405,-0.0024435
0.00067139,0.54917,1.1572,9.5713,-0.01741,0.013439,-0.0027489
-0.0037537,0.72569,1.1572,9.4732,-0.018021,0.014966,-0.0051924
-0.0036926,0.74531,1.2553,9.5713,-0.01741,0.014966,-0.0033598
-0.00088501,0.72569,1.2553,9.5321,-0.018021,0.013744,-0.0024435
-0.0050659,0.76492,1.1964,9.5713,-0.018021,0.013439,-0.0015272
-0.00177,0.5884,1.1572,9.3752,-0.021075,0.012217,-0.0030543
-0.012451,0.56879,1.1768,9.4928,-0.019548,0.013744,-0.0033598
-0.0089111,0.49033,1.2553,9.5909,-0.017715,0.012523,-0.0027489
-0.0019836,0.74531,1.0199,9.5125,-0.018937,0.014355,-0.0036652
-0.0054321,0.74531,1.1572,9.4928,-0.019242,0.014661,-0.0036652
-0.012909,0.72569,1.2553,9.6301,-0.019548,0.015272,-0.0033598
-0.0083618,0.56879,1.1572,9.5713,-0.017715,0.015577,-0.0015272
-0.0015259,0.60801,1.1964,9.4732,-0.017715,0.014966,-0.0033598
-0.0012817,0.64724,1.1572,9.5321,-0.017715,0.016493,-0.0027489
-0.012726,0.54917,1.2553,9.5713,-0.018021,0.016493,-0.0036652
-0.0065002,0.41188,1.2553,9.5321,-0.018021,0.015272,-0.0033598
-0.0041199,0.70608,1.1964,9.5125,-0.018937,0.014966,-0.0027489
-0.0042419,0.74531,1.2945,9.5321,-0.020159,0.014355,-0.002138
-0.0088501,0.56879,1.1376,9.5713,-0.018631,0.014661,-0.0018326
-0.0044556,0.49033,1.2553,9.5909,-0.018937,0.013439,-0.0024435
-0.014313,0.66685,1.2553,9.4928,-0.018937,0.014661,-0.0036652
-0.0112,0.41188,1.0787,9.6497,-0.018937,0.018021,-0.0030543
-0.0023804,0.74531,1.2356,9.4928,-0.018326,0.016188,-0.002138
-0.010254,0.56879,1.1964,9.5713,-0.016799,0.015272,-0.0018326
-0.0089417,0.66685,1.1572,9.5125,-0.015577,0.015272,-0.0030543
-0.012085,0.72569,1.1572,9.4732,-0.017104,0.015272,-0.0027489
-0.0075073,0.72569,1.2356,9.5713,-0.016493,0.014966,-0.0009163
-0.014648,0.41188,1.2553,9.5713,-0.017104,0.015577,-0.002138
-0.01004,0.56879,1.2553,9.5125,-0.01741,0.014661,-0.0033598
-0.0045776,0.66685,1.2945,9.5321,-0.016799,0.010385,-0.002138
-0.0032349,0.56879,1.1964,9.4732,-0.018937,0.012217,-0.0039706
-0.013519,0.5884,1.1572,9.5713,-0.020159,0.014966,-0.0039706
-0.0075684,0.49033,1.2945,9.5321,-0.020769,0.015577,-0.0027489
-0.008606,0.56879,1.1572,9.5713,-0.018021,0.016493,-0.0024435
-0.011017,0.56879,1.1768,9.4732,-0.01741,0.015272,-0.0042761
-0.0098572,0.80415,1.2356,9.6301,-0.017104,0.01405,-0.0039706
0.0046082,0.41188,1.2356,9.6497,-0.017104,0.014355,-0.0024435
-0.0013733,0.66685,1.1964,9.5125,-0.01741,0.018021,-0.0027489
-0.00027466,0.56879,1.1572,9.5713,-0.018631,0.015882,-0.0030543
-0.0067749,0.74531,1.2553,9.5321,-0.019242,0.01405,-0.0042761
0.0007019,0.41188,1.2553,9.5713,-0.017104,0.015272,-0.0033598
-0.010284,0.64724,1.2553,9.5125,-0.017715,0.015577,-0.0039706
-0.0064697,0.56879,1.2553,9.5909,-0.018021,0.014966,-0.0033598
-0.0050354,0.64724,1.1768,9.5321,-0.016799,0.012828,-0.0030543
-0.0049438,0.76492,1.1964,9.5125,-0.01741,0.014966,-0.0039706
-0.0090942,0.72569,1.1572,9.5125,-0.015882,0.013744,-0.0033598
-0.010712,0.64724,1.3141,9.5321,-0.017104,0.012828,-0.0042761
-0.0061951,0.66685,1.2945,9.5125,-0.017715,0.014661,-0.0027489
-0.0039368,0.49033,1.2553,9.5321,-0.01741,0.016188,-0.002138
-0.0030212,0.41188,1.2553,9.6497,-0.018631,0.016188,-0.0033598
-0.0067749,0.74531,1.1572,9.4732,-0.019548,0.015272,-0.0042761
-0.014832,0.5884,1.1572,9.5321,-0.017715,0.01405,-0.0042761
-0.0041504,0.76492,1.1768,9.5125,-0.018631,0.014661,-0.0048869
-0.005127,0.66685,1.2553,9.4928,-0.018021,0.014966,-0.0042761
-0.004425,0.74531,1.1964,9.5125,-0.018937,0.015577,-0.0033598
-0.010101,0.56879,1.2553,9.4928,-0.018937,0.014966,-0.0030543
-0.0065613,0.72569,1.2356,9.5125,-0.016799,0.015272,-0.0024435
-0.011383,0.74531,1.2945,9.5125,-0.016799,0.015272,-0.0030543
-0.01062,0.41188,1.2553,9.5713,-0.018937,0.014966,-0.0033598
-0.0083008,0.56879,1.3141,9.6301,-0.019242,0.014355,-0.0051924
-0.0047302,0.56879,1.1572,9.5713,-0.019548,0.013744,-0.0033598
-0.013824,0.5884,1.2356,9.434,-0.018631,0.011606,-0.0033598
-0.015442,0.74531,1.1964,9.5321,-0.018631,0.012828,-0.0030543
-0.015472,0.66685,1.2356,9.5125,-0.01741,0.014966,-0.0027489
-0.0075073,0.56879,1.1964,9.4928,-0.017715,0.016799,-0.0039706
-0.0054626,0.49033,1.2945,9.5909,-0.019548,0.015577,-0.0030543
-0.0075989,0.60801,1.2553,9.5321,-0.016799,0.014661,-0.0030543
-0.012634,0.74531,1.1964,9.5125,-0.017104,0.014661,-0.0039706
-0.0081177,0.74531,1.1376,9.5321,-0.018937,0.014661,-0.0027489
-0.012207,0.64724,1.2553,9.5713,-0.018937,0.010996,-0.0036652
-0.0054321,0.66685,1.2553,9.5125,-0.018631,0.012523,-0.0045815
-0.016205,0.45111,1.2553,9.5713,-0.018021,0.014355,-0.0033598
-0.0061646,0.56879,1.1572,9.6497,-0.018021,0.014966,-0.0030543
-0.01532,0.72569,1.2553,9.5125,-0.017104,0.014661,-0.0030543
-0.012482,0.76492,1.0787,9.5125,-0.017715,0.014661,-0.0036652
-0.012726,0.41188,1.2553,9.5321,-0.019242,0.015577,-0.0027489
-0.011444,0.54917,1.2553,9.5909,-0.017715,0.014966,-0.0042761
-0.011292,0.74531,1.2356,9.5125,-0.016493,0.015577,-0.0033598
-0.016449,0.64724,1.1572,9.4732,-0.016188,0.017104,-0.0030543
-0.015381,0.54917,1.2553,9.5713,-0.018021,0.015272,-0.0042761
-0.0072327,0.74531,1.0395,9.5125,-0.018631,0.014355,-0.0045815
-0.01358,0.72569,1.2553,9.5713,-0.019548,0.014966,-0.0045815
-0.010803,0.54917,1.1964,9.434,-0.016799,0.015577,-0.0030543
-0.0020752,0.70608,1.1768,9.5321,-0.016188,0.014661,-0.0030543
-0.010193,0.70608,1.2553,9.4928,-0.016493,0.014966,-0.0027489
-0.00061035,0.49033,1.0787,9.6694,-0.016188,0.012523,-0.0027489
-0.0023193,0.74531,1.1964,9.5125,-0.01741,0.012217,-0.0048869
0.0011597,0.74531,1.2553,9.5713,-0.017715,0.015272,-0.0027489
-0.00067139,0.54917,1.2945,9.5713,-0.017104,0.015577,-0.0033598
-0.00021362,0.56879,1.1964,9.4928,-0.017715,0.015577,-0.0033598
-0.0073242,0.41188,1.2553,9.6301,-0.01741,0.016493,-0.0018326
-0.012573,0.74531,1.216,9.5321,-0.016799,0.016493,-0.0024435
-0.018768,0.70608,1.2553,9.5321,-0.016493,0.016493,-0.0030543
-0.0049133,0.41188,1.2945,9.5713,-0.017104,0.018021,-0.0024435
0.0060425,0.50995,1.2553,9.5713,-0.016493,0.018021,-0.0027489
-0.014282,0.60801,1.2356,9.4928,-0.015577,0.015272,-0.0036652
-0.01474,0.56879,1.1572,9.5125,-0.016799,0.015882,-0.0036652
-0.011383,0.66685,1.2553,9.5125,-0.017104,0.017104,-0.0039706
-0.0036621,0.76492,1.2553,9.5125,-0.017104,0.016799,-0.0027489
-0.0028687,0.60801,1.1964,9.4928,-0.017715,0.014355,-0.002138
-0.0071411,0.54917,1.2553,9.5909,-0.017715,0.016188,-0.0024435
-0.0024719,0.60801,1.1964,9.3555,-0.017715,0.014355,-0.0015272
-0.010529,0.72569,1.1768,9.5125,-0.018631,0.014355,-0.0048869
-0.02243,0.72569,1.1964,9.5125,-0.018631,0.014661,-0.0048869
-0.0087585,0.56879,1.1572,9.5125,-0.018937,0.015272,-0.0027489
-0.0012512,0.72569,1.2553,9.5125,-0.017715,0.015577,-0.0015272
-0.0035095,0.74531,1.2553,9.5321,-0.017715,0.014355,-0.0033598
0.00015259,0.56879,1.1768,9.5713,-0.016188,0.014355,-0.0036652
-0.0083923,0.66685,1.2553,9.434,-0.018021,0.015272,-0.0033598
-0.004425,0.66685,1.2553,9.5125,-0.018326,0.017104,-0.0042761
-0.0038147,0.74531,1.2553,9.5909,-0.017715,0.016188,-0.002138
-0.0083923,0.74531,1.2356,9.5321,-0.018326,0.014355,-0.0033598
-0.0028381,0.74531,1.2553,9.5321,-0.018021,0.015577,-0.0042761
-0.0066833,0.72569,1.2553,9.5321,-0.018021,0.015272,-0.0054978
-0.0048218,0.74531,1.1572,9.4732,-0.017715,0.01405,-0.0045815
-0.022186,0.74531,1.1768,9.5909,-0.017104,0.014966,-0.0033598
-0.026215,0.41188,1.2945,9.6301,-0.015272,0.015577,-0.0024435
-0.0039978,0.49033,1.2945,9.5321,-0.016493,0.014966,-0.002138
-0.0063171,0.56879,1.2553,9.5125,-0.014966,0.015272,-0.0012217
-0.01828,0.41188,1.2945,9.5909,-0.016188,0.014661,-0.0024435
-0.0040588,0.56879,1.2553,9.4732,-0.018631,0.016799,-0.0039706
-0.0048218,0.56879,1.1964,9.434,-0.018326,0.01741,-0.0039706
-0.019165,0.56879,1.1964,9.5713,-0.016188,0.016188,-0.0024435
-0.01062,0.76492,1.2553,9.5125,-0.013744,0.015272,-0.0024435
-0.0034485,0.60801,1.1572,9.3752,-0.015577,0.014355,-0.0027489
-0.010681,0.64724,1.1964,9.4732,-0.015882,0.011606,-0.0033598
-0.0079956,0.56879,1.2553,9.4928,-0.016493,0.012217,-0.0048869
-0.01474,0.56879,1.1768,9.3752,-0.017104,0.01405,-0.0051924
3.0518e-05,0.74531,1.1572,9.4928,-0.01741,0.014355,-0.0033598
-0.0030518,0.76492,1.0787,9.5125,-0.018631,0.014966,-0.0042761
-0.010925,0.66685,1.1964,9.5125,-0.017715,0.015272,-0.0036652
-0.016632,0.56879,1.2945,9.4928,-0.018326,0.015882,-0.0036652
-0.011688,0.54917,1.1572,9.5713,-0.018021,0.016493,-0.0030543
-0.0047302,0.56879,1.2553,9.4928,-0.017715,0.016799,-0.0036652
-0.0097046,0.80415,1.1768,9.6301,-0.017715,0.014355,-0.0030543
-0.0059509,0.66685,1.2553,9.5125,-0.01741,0.01405,-0.0024435
-0.0036926,0.56879,1.2553,9.4928,-0.01741,0.015882,-0.0042761
-0.0031738,0.70608,1.2945,9.5125,-0.018631,0.015577,-0.0033598
-0.004303,0.45111,1.2553,9.6301,-0.016799,0.014966,-0.002138
-0.012329,0.72569,1.2945,9.5125,-0.015577,0.014966,-0.0036652
-0.0036621,0.74531,1.2356,9.5321,-0.018021,0.014661,-0.00030543
-0.009491,0.66685,1.2553,9.5125,-0.016188,0.013439,-0.00061087
-0.014282,0.66685,1.2945,9.5125,-0.01741,0.014966,-0.0039706
-0.017883,0.49033,1.2553,9.6301,-0.018937,0.015577,-0.0033598
-0.012573,0.66685,1.1964,9.5125,-0.020159,0.014966,-0.0024435
-0.016541,0.74531,1.1964,9.4928,-0.018631,0.015272,-0.0030543
-0.008667,0.76492,1.0787,9.5125,-0.018326,0.015272,-0.0030543
0.00042725,0.66685,1.2553,9.5125,-0.019548,0.015577,-0.002138
-0.0020142,0.72569,1.1964,9.5125,-0.018631,0.014966,-0.0042761
-0.006897,0.43149,1.0983,9.5909,-0.018631,0.013744,-0.0039706
-0.0043335,0.56879,1.2553,9.4928,-0.018937,0.01405,-0.0030543
-0.0068054,0.76492,1.0199,9.5125,-0.018937,0.015272,-0.0024435
-0.0012817,0.74531,1.2356,9.5321,-0.018021,0.014355,-0.0039706
-0.005127,0.56879,1.2553,9.5125,-0.01741,0.014355,-0.0045815
-0.0067444,0.66685,1.2553,9.5321,-0.01741,0.013744,-0.0042761
-0.017303,0.56879,1.2553,9.5125,-0.017104,0.013439,-0.0042761
-0.018372,0.74531,1.1964,9.5125,-0.015577,0.013439,-0.0024435
-0.0028687,0.39227,1.1768,9.5713,-0.015272,0.012523,-0.0036652
-0.0049744,0.74531,1.2553,9.5125,-0.017104,0.014355,-0.0051924
-0.01651,0.56879,1.1768,9.6301,-0.01741,0.014966,-0.0048869
-0.0062561,0.56879,1.2553,9.4732,-0.01741,0.014661,-0.0042761
-0.0049438,0.74531,1.0199,9.5125,-0.017715,0.015272,-0.0042761
-0.0028381,0.70608,1.2356,9.4928,-0.017104,0.015577,-0.0033598
-0.0018921,0.66685,1.2945,9.4928,-0.017715,0.016188,-0.0033598
-0.0092163,0.5884,1.2553,9.5713,-0.018021,0.015577,-0.002138
-0.0044861,0.74531,1.2553,9.5321,-0.015577,0.016493,-0.0027489
-0.0084534,0.80415,1.1964,9.5713,-0.015882,0.017104,-0.0030543
-0.014282,0.5884,1.1572,9.5125,-0.019548,0.016188,-0.0027489
-0.0058594,0.56879,1.1768,9.4732,-0.018326,0.014966,-0.0045815
-0.0048828,0.64724,1.2356,9.4928,-0.01741,0.014966,-0.0042761
-0.010071,0.56879,1.1572,9.434,-0.018631,0.015272,-0.0030543
-0.012726,0.72569,1.2553,9.5125,-0.018937,0.015882,-0.0024435
-0.0048828,0.56879,1.2553,9.5125,-0.016493,0.014966,-0.0036652
-0.0049744,0.66685,1.2553,9.5125,-0.016493,0.0094684,-0.0027489
-0.013,0.56879,1.1768,9.434,-0.016799,0.011301,-0.0018326
-0.0097351,0.66685,1.1768,9.4928,-0.016799,0.015272,-0.0036652
-0.0038147,0.74531,1.0395,9.5125,-0.017715,0.015882,-0.0045815
-0.0022583,0.5884,1.2553,9.434,-0.018326,0.016799,-0.0033598
-0.0072327,0.74531,1.2553,9.5321,-0.017104,0.01741,-0.0033598
-0.011017,0.74531,1.2553,9.5713,-0.018631,0.016188,-0.0048869
-0.0071716,0.54917,1.2553,9.5713,-0.015882,0.014966,-0.0036652
-0.0048523,0.56879,1.1572,9.5713,-0.017104,0.011301,-0.0033598
-0.0090332,0.56879,1.1768,9.434,-0.017715,0.01405,-0.0048869
-0.010437,0.74531,1.0983,9.5125,-0.016799,0.014661,-0.0036652
-0.0018921,0.41188,1.2945,9.6301,-0.016799,0.01405,-0.0015272
-0.011444,0.70608,1.2945,9.5321,-0.017104,0.014966,-0.0009163
-0.018372,0.56879,1.1964,9.5125,-0.016188,0.016188,-0.0009163
-0.0088501,0.72569,1.2553,9.5321,-0.014966,0.015272,-0.0024435
0.00354,0.60801,1.2356,9.5125,-0.018021,0.015272,-0.0036652
-0.015747,0.41188,1.2356,9.5713,-0.019242,0.017104,-0.0030543
-0.025269,0.74531,1.1768,9.4928,-0.017715,0.016188,-0.0033598
-0.018188,0.56879,1.1572,9.4732,-0.017715,0.014966,-0.0018326
-0.0071716,0.72569,1.2553,9.4928,-0.018326,0.01405,-0.0024435
-0.010681,0.74531,1.2553,9.5713,-0.01741,0.012828,-0.0030543
-0.0044556,0.74531,1.2553,9.5713,-0.017104,0.012828,-0.002138
-0.0040283,0.70608,1.1964,9.5713,-0.017715,0.013744,-0.0033598
-0.003418,0.49033,1.3141,9.5713,-0.017104,0.013134,-0.002138
-0.0087891,0.56879,1.1376,9.6301,-0.017715,0.012828,-0.0039706
-0.022095,0.5884,1.2553,9.4732,-0.018021,0.014661,-0.0030543
-0.0057678,0.74531,1.2553,9.5321,-0.01741,0.014661,-0.002138
0.00012207,0.56879,1.1572,9.5713,-0.018937,0.014355,-0.002138
-0.013062,0.72569,1.1572,9.4732,-0.017104,0.014355,-0.0036652
-0.00354,0.74531,1.1572,9.5125,-0.018021,0.015882,-0.0042761
-0.0091858,0.74531,1.2356,9.5125,-0.018937,0.015272,-0.0036652
-0.003418,0.54917,1.2553,9.5909,-0.016493,0.014661,-0.0036652
-0.0094299,0.74531,1.2553,9.5125,-0.018326,0.013134,-0.0036652
0.0014343,0.66685,1.1964,9.4928,-0.017715,0.013134,-0.0042761
-0.0047913,0.72569,1.3337,9.5125,-0.017104,0.013439,-0.0036652
-0.016052,0.43149,1.1964,9.6301,-0.016799,0.01405,-0.0042761
-0.0069885,0.74531,1.1768,9.5321,-0.016799,0.015577,-0.0033598
0.00027466,0.76492,1.1964,9.5713,-0.018326,0.016188,-0.0027489
-0.0053711,0.56879,1.1964,9.3555,-0.017104,0.015577,-0.0030543
-0.0064392,0.66685,1.1768,9.4928,-0.014355,0.015882,-0.0027489
-0.01059,0.60801,1.0395,9.6497,-0.014966,0.012217,-0.0042761
0.0057068,0.70608,1.2553,9.5125,-0.017104,0.014355,-0.0033598
-0.0027466,0.41188,1.2553,9.6497,-0.017104,0.014966,-0.0039706
-0.0029907,0.66685,1.2945,9.434,-0.015577,0.014355,-0.0042761
-0.0057068,0.74531,1.2553,9.5321,-0.016188,0.015882,-0.0030543
0.0013428,0.70608,1.2553,9.5125,-0.01741,0.015882,-0.0018326
-0.0010986,0.80415,1.2553,9.5321,-0.018326,0.016188,-0.0009163
0.0018921,0.60801,1.2356,9.3752,-0.018937,0.016188,-0.0042761
-0.0079041,0.74531,1.1572,9.4928,-0.018021,0.018021,-0.0039706
-0.0064087,0.56879,1.1964,9.4732,-0.018021,0.015272,-0.0030543
-0.0079956,0.74531,1.0395,9.5713,-0.018631,0.01405,-0.0024435
-0.0092773,0.74531,1.1572,9.5125,-0.018326,0.014966,-0.0027489
-0.0031738,0.74531,1.1768,9.5321,-0.017715,0.014966,-0.0027489
-0.0062256,0.5884,1.1964,9.4928,-0.018021,0.014966,-0.0024435
-0.017517,0.72569,1.2553,9.5321,-0.01741,0.014661,-0.0030543
-0.01123,0.74531,1.1768,9.5321,-0.016188,0.014661,-0.0024435
-0.0048828,0.72569,1.2553,9.5125,-0.016493,0.01069,-0.0024435
0.0078735,0.74531,1.2553,9.5321,-0.017715,0.012523,-0.0033598
-0.0079956,0.74531,1.1768,9.4732,-0.01741,0.014355,-0.0036652
0.0033569,0.74531,1.1572,9.5321,-0.016799,0.01405,-0.0036652
-0.0066833,0.56879,1.1572,9.5713,-0.017104,0.01405,-0.0036652
-0.0027161,0.74531,1.2945,9.5321,-0.017715,0.014355,-0.002138
-0.0087891,0.66685,1.2553,9.5321,-0.018326,0.014966,-0.0027489
-0.0094299,0.49033,1.2553,9.5909,-0.019548,0.015882,-0.0030543
-0.0099792,0.64724,1.1964,9.5125,-0.019548,0.013744,-0.0024435
-0.010834,0.74531,1.1768,9.5713,-0.018021,0.014355,-0.0048869
-0.013214,0.70608,1.2945,9.5125,-0.019242,0.015272,-0.0054978
-0.0093994,0.74531,1.0787,9.5125,-0.018021,0.014661,-0.0048869
0.00015259,0.70608,1.2553,9.5125,-0.016493,0.015272,-0.0039706
-0.0048828,0.56879,1.1768,9.4732,-0.016493,0.016188,-0.0033598
-0.013184,0.74531,1.1964,9.5125,-0.015577,0.016799,-0.0024435
-0.007782,0.56879,1.1964,9.4928,-0.017104,0.015272,-0.0015272
-0.00033569,0.68647,1.2553,9.5125,-0.016799,0.017104,-0.0015272
-0.0041504,0.74531,1.0395,9.4928,-0.01741,0.015882,-0.0027489
-0.0038147,0.70608,1.2553,9.5125,-0.017715,0.014355,-0.002138
0.0047302,0.5884,1.2356,9.4928,-0.017104,0.014966,-0.0027489
0.0015259,0.54917,1.1572,9.5713,-0.016493,0.015882,-0.0048869
-0.0028076,0.56879,1.2356,9.4732,-0.017715,0.015272,-0.0030543
0.0007019,0.76492,1.1964,9.5321,-0.017104,0.014661,-0.002138
-0.0053101,0.60801,1.2356,9.5713,-0.018937,0.014355,-0.0018326
-0.0050049,0.56879,1.2356,9.5125,-0.018326,0.012523,-0.0039706
-0.013855,0.66685,1.3141,9.5321,-0.017715,0.012828,-0.0036652
-0.0068359,0.66685,1.2553,9.5321,-0.019242,0.013439,-0.0042761
-0.0030212,0.74531,1.1964,9.5321,-0.018631,0.01405,-0.0045815
-0.0033569,0.74531,1.2945,9.5909,-0.018326,0.014355,-0.0039706
-0.00088501,0.74531,1.1964,9.5713,-0.016188,0.013744,-0.0027489
0.00018311,0.74531,1.2553,9.5713,-0.018631,0.014661,-0.0024435
-0.0072327,0.5884,1.1572,9.4732,-0.01741,0.016799,-0.0027489
-0.0058289,0.74531,1.0199,9.5125,-0.017104,0.018937,-0.0027489
-0.0075989,0.72569,1.2553,9.5125,-0.017715,0.018326,-0.0018326
-0.0089111,0.74531,1.2553,9.5713,-0.017104,0.015272,-0.0015272
-0.011841,0.72569,1.1572,9.5125,-0.016799,0.014355,-0.0015272
-0.027557,0.72569,1.1572,9.5125,-0.01741,0.014355,-0.0033598
-0.015381,0.5884,1.2356,9.4732,-0.017104,0.014661,-0.0030543
-0.00061035,0.74531,1.0199,9.4732,-0.017104,0.014661,-0.0030543
-0.0065002,0.74531,1.1572,9.4928,-0.01741,0.013439,-0.0042761
-0.0092468,0.56879,1.1572,9.434,-0.017715,0.0088575,-0.0030543
-0.0027161,0.74531,1.1376,9.5125,-0.017715,0.012523,-0.002138
-0.0097351,0.56879,1.1964,9.5125,-0.019548,0.014661,-0.0012217
-0.010162,0.56879,1.1572,9.5909,-0.01741,0.014661,-0.0024435
-0.0062866,0.56879,1.2553,9.5125,-0.016188,0.015272,-0.0027489
-0.0018616,0.76492,1.0787,9.4928,-0.018326,0.016188,-0.0027489
-0.012207,0.45111,1.3141,9.6301,-0.016799,0.015577,-0.0039706
-0.0081482,0.70608,1.2553,9.5125,-0.018326,0.014661,-0.0030543
-0.00064087,0.5884,1.0787,9.689,-0.017715,0.018631,-0.0048869
0.011658,0.80415,1.2356,9.5125,-0.016799,0.01741,-0.0048869
-0.004425,0.74531,1.1768,9.5713,-0.01741,0.015272,-0.0042761
0.0038452,0.56879,1.2553,9.4732,-0.01741,0.015272,-0.0030543
-0.0015869,0.66685,1.1964,9.5321,-0.017715,0.014355,-0.0039706
-0.006134,0.74531,1.1964,9.5321,-0.018937,0.014355,-0.0033598
-0.007782,0.74531,1.1572,9.5321,-0.020464,0.014966,-0.0030543
-0.013733,0.60801,1.1964,9.3555,-0.016799,0.016188,-0.0042761
-0.0048218,0.72569,1.2945,9.5125,-0.016799,0.018631,-0.0033598
-0.010803,0.49033,1.2945,9.5321,-0.019548,0.016493,-0.0042761
-0.0090027,0.56879,1.1572,9.6301,-0.019548,0.013439,-0.0024435
0.0010071,0.56879,1.1964,9.4928,-0.017715,0.013439,-0.0015272
-0.016205,0.54917,1.1964,9.434,-0.016799,0.014966,-0.0027489
-0.0097961,0.72569,1.1964,9.4732,-0.01741,0.015577,-0.002138
-0.0019836,0.74531,1.2553,9.5125,-0.017104,0.015882,-0.0036652
-0.0038757,0.72569,1.2945,9.5125,-0.018021,0.015272,-0.0036652
-0.0039368,0.50995,1.2553,9.5713,-0.019548,0.01405,-0.0024435
-0.0082092,0.74531,1.1572,9.4928,-0.018326,0.014355,-0.002138
-0.0021057,0.74531,1.1768,9.5713,-0.019242,0.014355,-0.0027489
-0.0063171,0.56879,1.2553,9.6301,-0.019242,0.015882,-0.0030543
-0.017578,0.66685,1.0395,9.5125,-0.018631,0.016493,-0.0018326
-0.0064087,0.60801,1.2553,9.4732,-0.017715,0.01405,-0.002138
0.00094604,0.49033,1.2945,9.5713,-0.015882,0.013134,-0.0027489
-0.0015259,0.76492,1.2356,9.5713,-0.014966,0.013134,-0.0033598
-0.0097046,0.56879,1.1768,9.434,-0.018021,0.012828,-0.0045815
-0.0012207,0.56879,1.2553,9.4732,-0.019853,0.015272,-0.0012217
-0.0053711,0.70608,1.0199,9.5125,-0.020769,0.014661,-0.002138
-0.0079956,0.56879,1.2553,9.5125,-0.020159,0.015577,-0.0033598
-0.0057983,0.74531,1.2945,9.5125,-0.018021,0.016188,-0.0024435
-9.1553e-05,0.66685,1.1964,9.5125,-0.01741,0.015882,-0.0012217
-0.007843,0.49033,1.2553,9.5713,-0.01741,0.015272,-0.0030543
-0.011261,0.74531,1.2356,9.5125,-0.015882,0.012828,-0.0030543
-0.0056458,0.66685,1.2945,9.5125,-0.018021,0.012523,-0.0027489
0.0014038,0.5884,1.1572,9.434,-0.019548,0.014355,-0.0039706
-0.0075378,0.74531,1.1964,9.4732,-0.016493,0.01405,-0.0030543
-0.0065613,0.74531,1.2553,9.5713,-0.016188,0.014661,-0.0030543
-0.0062256,0.5884,1.1572,9.6301,-0.016799,0.015272,-0.0024435
-0.0089111,0.50995,1.2553,9.5909,-0.018021,0.016188,-0.0027489
-0.0067444,0.74531,1.2553,9.5125,-0.018326,0.015577,-0.0027489
-0.0066528,0.41188,1.2945,9.5713,-0.019242,0.016188,-0.0018326
0.0012512,0.54917,1.2553,9.5125,-0.018937,0.019853,-0.0039706
-0.0071106,0.76492,1.2553,9.5713,-0.018326,0.018021,-0.0024435
-0.01474,0.74531,1.1572,9.5125,-0.016188,0.015882,-0.0024435
0.002655,0.80415,1.2945,9.5713,-0.01741,0.015882,-0.0033598
-0.0023804,0.76492,1.1964,9.5713,-0.018021,0.014966,-0.0039706
-0.0033264,0.5884,1.1768,9.434,-0.01741,0.013744,-0.002138
-0.0038757,0.66685,1.1964,9.5125,-0.020464,0.014355,-0.0012217
-0.0071411,0.74531,1.1964,9.5125,-0.018021,0.014661,-0.002138
-0.0052795,0.70608,1.1572,9.5321,-0.018021,0.012217,-0.0030543
-0.0044556,0.5884,1.2553,9.5321,-0.018326,0.013744,-0.0039706
-0.0010071,0.54917,1.2553,9.4928,-0.017715,0.014355,-0.0039706
-0.00018311,0.60801,1.2945,9.5125,-0.016493,0.014966,-0.0054978
-0.004364,0.74531,1.0003,9.5125,-0.016799,0.015272,-0.0048869
-0.016602,0.60801,1.1572,9.5713,-0.017715,0.01405,-0.0027489
-0.0086975,0.56879,1.2356,9.5125,-0.016493,0.013744,-0.0027489
-0.0044861,0.66685,1.2553,9.5125,-0.017104,0.014966,-0.0015272
-0.0099792,0.74531,1.0787,9.5125,-0.018326,0.016493,-0.002138
-0.0024109,0.72569,1.2553,9.5125,-0.018631,0.016493,-0.0018326
0.00048828,0.74531,1.1964,9.5713,-0.01741,0.017104,-0.0015272
-0.0076904,0.74531,1.2356,9.5125,-0.016493,0.015577,-0.0027489
-0.006958,0.54917,1.2553,9.5713,-0.017715,0.014355,-0.0033598
-0.0052185,0.74531,1.1768,9.5713,-0.015577,0.01405,-0.0024435
-0.0040894,0.45111,1.2553,9.6694,-0.016493,0.014661,-0.0036652
-0.010895,0.74531,1.1964,9.5125,-0.017104,0.014661,-0.0012217
-0.0054932,0.5884,1.1376,9.6694,-0.016188,0.018021,-0.0018326
-0.014191,0.74531,1.2553,9.5125,-0.018021,0.014966,-0.0033598
-0.0074463,0.43149,1.2945,9.5713,-0.020159,0.01405,-0.0036652
-0.0021057,0.74531,1.1572,9.5321,-0.017104,0.01405,-0.0030543
-0.0070801,0.74531,1.1964,9.5125,-0.017715,0.014661,-0.0027489
-0.0075073,0.74531,1.1768,9.5713,-0.018631,0.014966,-0.002138
0.00018311,0.49033,1.2553,9.5713,-0.018021,0.014355,-0.002138
-0.0075684,0.5884,1.2553,9.4732,-0.019242,0.01405,-0.0015272
-0.00042725,0.72569,1.1964,9.5713,-0.019853,0.01405,-0.0033598
0.0021667,0.74531,1.1376,9.4732,-0.019548,0.014661,-0.0027489
-0.00021362,0.76492,1.0199,9.5321,-0.018937,0.016188,-0.0027489
-0.008728,0.64724,1.2356,9.4928,-0.018021,0.015577,-0.0027489
-0.012329,0.76492,1.1964,9.5321,-0.018021,0.014661,-0.0030543
-0.0074768,0.60801,1.1964,9.3752,-0.016799,0.01405,-0.0030543
-0.0033569,0.74531,1.1572,9.5125,-0.017715,0.012828,-0.002138
-0.0096741,0.72569,1.2553,9.5125,-0.016493,0.013134,-0.0042761
0.012299,0.74531,1.1572,9.5125,-0.018021,0.013744,-0.0033598
0.012848,0.54917,1.1964,9.6301,-0.019242,0.014661,-0.0042761
-0.0049438,0.64724,1.1768,9.5713,-0.019242,0.015882,-0.0036652
-0.0055237,0.66685,1.2553,9.4732,-0.019548,0.014661,-0.0027489
-0.0092773,0.74531,1.2553,9.6301,-0.018326,0.014355,-0.0027489
-0.0022278,0.70608,1.2945,9.5125,-0.018021,0.014966,-0.0033598
-0.0082397,0.49033,1.2553,9.5713,-0.018021,0.01405,-0.0036652
-0.005188,0.74531,1.1964,9.5713,-0.019242,0.014661,-0.0036652
-0.010284,0.41188,1.2356,9.5713,-0.020159,0.017715,-0.0030543
-0.0049133,0.74531,1.1768,9.5125,-0.018937,0.015577,-0.0033598
-0.0022583,0.50995,1.2553,9.5713,-0.018631,0.015577,-0.0036652
-0.010162,0.45111,1.2553,9.6497,-0.01741,0.014661,-0.0024435
-0.0032043,0.74531,1.2356,9.5125,-0.014966,0.01405,-0.0036652
-0.0097351,0.45111,1.2553,9.5713,-0.017715,0.01405,-0.0045815
-0.006012,0.56879,1.2553,9.5713,-0.017104,0.014966,-0.0033598
-0.010834,0.74531,1.2553,9.5321,-0.01741,0.014661,-0.0030543
-0.0015564,0.56879,1.2356,9.4732,-0.01741,0.01741,-0.0036652
-0.007019,0.74531,1.1572,9.5125,-0.016493,0.016188,-0.002138
-0.014404,0.70608,1.2553,9.5713,-0.016493,0.015577,-0.0024435
-0.001709,0.70608,1.2553,9.5713,-0.016799,0.015272,-0.0018326
-0.013702,0.74531,1.0003,9.5125,-0.01741,0.014661,-0.0024435
-0.013092,0.76492,1.1572,9.4732,-0.018937,0.014966,-0.0033598
-0.0057983,0.74531,1.2945,9.5321,-0.018021,0.015577,-0.0015272
-0.0045776,0.66685,1.1768,9.434,-0.017715,0.014355,-0.0045815
-0.013,0.72569,1.2553,9.5125,-0.016799,0.010996,-0.0045815
-0.0042114,0.39227,1.1964,9.5909,-0.016188,0.012217,-0.0033598
-0.0031738,0.56879,1.1768,9.5125,-0.016799,0.014355,-0.0045815
-0.010406,0.54917,1.2356,9.434,-0.015882,0.014966,-0.0051924
-0.0076904,0.80415,1.1572,9.4732,-0.016493,0.014355,-0.0042761
9.1553e-05,0.74531,1.3141,9.5713,-0.01741,0.015272,-0.0036652
-9.1553e-05,0.74531,1.1768,9.5321,-0.015882,0.016493,-0.0039706
-0.00085449,0.70608,1.2553,9.5125,-0.016188,0.016188,-0.0036652
-0.0061646,0.72569,1.2356,9.5321,-0.018326,0.01741,-0.0039706
-0.0058289,0.74531,1.2553,9.5125,-0.018937,0.016799,-0.0042761
-0.0097046,0.56879,1.2553,9.5125,-0.018631,0.014661,-0.0042761
-0.0047302,0.74531,1.2553,9.5321,-0.01741,0.015272,-0.0039706
-0.010376,0.66685,1.2356,9.4928,-0.016493,0.014966,-0.0045815
-0.0069885,0.72569,1.2945,9.5125,-0.01741,0.014966,-0.0039706
-0.0026245,0.64724,1.1964,9.5321,-0.016799,0.015577,-0.0030543
-0.0063477,0.76492,1.2553,9.5125,-0.016799,0.013744,-0.0036652
0.0011902,0.72569,1.1572,9.5713,-0.015577,0.013134,-0.0027489
0.0014954,0.5884,1.2356,9.434,-0.017104,0.01405,-0.0030543
-0.0036926,0.70608,1.2945,9.5125,-0.018326,0.016493,-0.0042761
-0.0072632,0.70608,1.3141,9.5321,-0.01741,0.018021,-0.0033598
-0.0007019,0.56879,1.1572,9.5713,-0.016799,0.016188,-0.0033598
-0.0028992,0.66685,1.2553,9.5125,-0.01741,0.014966,-0.0030543
-0.013336,0.66685,1.2553,9.5713,-0.018326,0.014661,-0.0030543
-0.0070496,0.74531,1.1768,9.5125,-0.018326,0.014355,-0.0027489
-0.0026855,0.56879,1.0983,9.6694,-0.018021,0.015272,-0.0027489
0.0032349,0.72569,1.2553,9.5321,-0.016799,0.015882,-0.0018326
-0.0014038,0.72569,1.1572,9.5125,-0.015882,0.015272,-0.0009163
-0.00097656,0.66685,1.2553,9.4732,-0.015882,0.013744,-0.002138
0.0053711,0.5884,1.1964,9.5125,-0.017715,0.014355,-0.0015272
-0.0056763,0.60801,1.1572,9.3555,-0.01741,0.015272,-0.0024435
-0.010223,0.74531,1.2553,9.5713,-0.016188,0.013439,-0.0036652
-0.014221,0.74531,1.2553,9.5125,-0.015882,0.013439,-0.0030543
-0.00057983,0.74531,1.2945,9.4928,-0.016493,0.012523,-0.0036652
-0.0091248,0.56879,1.2356,9.4732,-0.017104,0.014355,-0.002138
-0.0046082,0.74531,1.1964,9.5321,-0.01741,0.01405,-0.0036652
-0.0090332,0.74531,1.2553,9.5321,-0.019242,0.01405,-0.0042761
0.0027466,0.74531,1.1572,9.5125,-0.017715,0.014661,-0.0033598
-0.0047607,0.41188,1.2553,9.5713,-0.017104,0.015577,-0.0039706
-0.0056763,0.74531,1.2945,9.5125,-0.018326,0.016799,-0.0039706
-0.00088501,0.56879,1.2553,9.5125,-0.018937,0.016493,-0.0039706
-0.0062256,0.56879,1.1572,9.5713,-0.018326,0.018326,-0.0015272
-0.0027466,0.49033,1.2553,9.5321,-0.017715,0.017104,-0.0027489
0.00042725,0.60801,1.2553,9.5125,-0.018631,0.015577,-0.0033598
-0.0061035,0.76492,1.2356,9.5321,-0.018631,0.014966,-0.002138
-0.00039673,0.5884,1.2553,9.5125,-0.018937,0.01405,-0.0018326
-0.021667,0.41188,1.2553,9.5713,-0.018937,0.01405,-0.0036652
-0.0036011,0.5884,1.2553,9.5125,-0.017104,0.01405,-0.0045815
-0.0039978,0.56879,1.1964,9.4928,-0.019242,0.015882,-0.0039706
-0.012604,0.74531,1.0787,9.5125,-0.017104,0.017715,-0.0042761
-0.010498,0.41188,1.2553,9.5713,-0.017715,0.016799,-0.002138
-6.1035e-05,0.54917,1.2945,9.5713,-0.018326,0.016799,-0.0039706
-0.0021362,0.56879,1.1572,9.6301,-0.016799,0.016188,-0.0024435
-0.0045471,0.60801,1.2945,9.5125,-0.018631,0.01405,-0.0018326
-0.0011902,0.74531,1.2553,9.5125,-0.018937,0.013439,-0.0015272
-0.00177,0.41188,1.2553,9.5713,-0.017104,0.014355,-0.002138
-0.0072021,0.70608,1.2553,9.5125,-0.017104,0.015577,-0.0030543
-0.0068054,0.74531,1.0395,9.5125,-0.017715,0.011912,-0.002138
-0.0030823,0.56879,1.1964,9.4732,-0.016188,0.013439,-0.0036652
-0.011627,0.54917,1.2553,9.5125,-0.01741,0.015882,-0.0042761
-0.0043945,0.74531,1.2553,9.5713,-0.01741,0.016188,-0.0033598
-0.00073242,0.72569,1.2553,9.5125,-0.017715,0.014966,-0.0033598
-0.0085144,0.72569,1.1964,9.5321,-0.015577,0.015577,-0.0042761
-0.0069275,0.74531,1.1768,9.5125,-0.015577,0.015272,-0.0036652
-0.0061646,0.74531,1.1964,9.6497,-0.018021,0.015272,-0.0030543
-0.0069275,0.74531,1.1964,9.5713,-0.016799,0.01741,-0.0030543
-0.0047607,0.64724,1.1964,9.4928,-0.018326,0.015577,-0.0015272
-0.016876,0.66685,1.2553,9.5321,-0.018937,0.014355,-0.0012217
-0.0088501,0.41188,1.1964,9.6301,-0.018631,0.014661,-0.0024435
-0.00094604,0.74531,1.1768,9.5125,-0.018021,0.015272,-0.0036652
-0.017456,0.74531,1.2356,9.5713,-0.018326,0.016188,-0.0033598
-0.010742,0.56879,1.1572,9.5713,-0.019242,0.016188,-0.0033598
0.00076294,0.70608,1.3141,9.4928,-0.015577,0.016188,-0.0030543
-0.0093384,0.72569,1.1768,9.5321,-0.019548,0.014966,-0.0036652
0.0017395,0.66685,1.1572,9.5321,-0.018937,0.015577,-0.0042761
-0.00097656,0.70608,1.2356,9.5125,-0.016799,0.015272,-0.0054978
-0.0011292,0.74531,1.2553,9.5125,-0.015577,0.015882,-0.0036652
-0.017792,0.56879,1.1572,9.5713,-0.01741,0.016188,-0.0027489
0.0032654,0.72569,1.1572,9.434,-0.014355,0.015577,-0.0033598
0.0025024,0.74531,1.1768,9.5125,-0.013744,0.014966,-0.0030543
-0.0012817,0.74531,1.1964,9.5125,-0.016799,0.01405,-0.0033598
-0.0091553,0.49033,1.2553,9.5713,-0.016799,0.017104,-0.0036652
-0.0031738,0.49033,1.2945,9.5713,-0.016799,0.01741,-0.002138
-0.0085449,0.43149,1.2553,9.5713,-0.017715,0.016188,-0.0033598
-0.0082397,0.74531,1.1572,9.4732,-0.017715,0.016188,-0.0030543
-0.006073,0.74531,1.0983,9.5125,-0.015577,0.01405,-0.0024435
-0.0074158,0.74531,1.2553,9.5125,-0.018326,0.013439,-0.0036652
-0.0021667,0.74531,1.1572,9.5125,-0.018326,0.016188,-0.0027489
-0.0098267,0.66685,1.1768,9.434,-0.01741,0.015272,-0.0027489
-0.0016785,0.35304,1.0983,9.7478,-0.017715,0.012217,-0.0036652
-0.0027771,0.49033,1.2553,9.5713,-0.016493,0.013134,-0.002138
-0.010803,0.66685,1.2553,9.4928,-0.015882,0.015577,-0.002138
-0.0081482,0.60801,1.2356,9.5125,-0.01741,0.014661,-0.0036652
-0.0029297,0.74531,1.2553,9.5321,-0.019853,0.01405,-0.0036652
-0.00015259,0.5884,1.2553,9.5125,-0.018937,0.014661,-0.0027489
-0.010986,0.74531,1.0787,9.4732,-0.016493,0.014355,-0.002138
-0.0022888,0.56879,1.1964,9.4732,-0.016493,0.01405,-0.0030543
-0.002655,0.66685,1.2553,9.4928,-0.016799,0.01069,-0.0030543
0.0021057,0.39227,1.2553,9.6301,-0.01741,0.013744,-0.0039706
-0.0028076,0.74531,1.1572,9.5125,-0.016799,0.016188,-0.0048869
-0.0031738,0.74531,1.0787,9.5125,-0.017715,0.015882,-0.0030543
-0.0010376,0.76492,1.1572,9.5125,-0.018326,0.014661,-0.0018326
-0.013336,0.74531,1.0395,9.5125,-0.015577,0.014355,-0.002138
0.0010071,0.76492,1.2553,9.5125,-0.015577,0.015577,-0.0027489
-0.00036621,0.60801,1.1964,9.434,-0.019242,0.016188,-0.0015272
-0.0055847,0.66685,1.1572,9.5125,-0.018021,0.016493,-0.0027489
-0.0040588,0.60801,1.2553,9.4928,-0.015882,0.015882,-0.0030543
-0.00027466,0.80415,1.2945,9.5125,-0.015882,0.015577,-0.002138
-0.0090637,0.64724,1.1964,9.5713,-0.016493,0.015577,-0.002138
-0.0016174,0.56879,1.2945,9.4732,-0.018021,0.014966,-0.0012217
-0.0068054,0.66685,1.3141,9.5125,-0.018631,0.014661,-0.0024435
-0.010681,0.41188,1.1768,9.5909,-0.018326,0.01405,-0.0015272
-0.012817,0.74531,1.1964,9.5321,-0.018937,0.014966,-0.0030543
-0.0090942,0.74531,1.1768,9.5713,-0.018937,0.015577,-0.0033598
-0.0010986,0.5884,1.2356,9.3359,-0.018021,0.014966,-0.0024435
-0.003479,0.70608,1.2553,9.5321,-0.016188,0.014661,-0.0018326
-0.010254,0.43149,1.2945,9.5713,-0.015272,0.015882,-0.0015272
-0.0057983,0.41188,1.2553,9.5713,-0.016493,0.015577,-0.002138
-0.0083313,0.49033,1.2553,9.6497,-0.017715,0.014355,-0.002138
-0.0044861,0.66685,1.1572,9.5713,-0.019242,0.016188,-0.0030543
-0.0032654,0.66685,1.2553,9.4928,-0.016799,0.015577,-0.0030543
0.0024414,0.72569,1.2553,9.5713,-0.018631,0.016188,-0.0033598
-0.0088806,0.60801,1.1964,9.5909,-0.017715,0.015272,-0.0030543
-0.0059814,0.49033,1.2553,9.6301,-0.017104,0.015272,-0.0024435
0.0011902,0.80415,1.2356,9.5713,-0.016493,0.015272,-0.0015272
-0.0057373,0.41188,1.2553,9.5909,-0.015577,0.016188,-0.002138
0.00018311,0.56879,1.2356,9.5713,-0.016188,0.015577,-0.0036652
-0.010071,0.76492,1.0395,9.5125,-0.018326,0.014661,-0.0030543
-0.013123,0.66685,1.2945,9.5321,-0.016188,0.012828,-0.0036652
-0.013489,0.49033,1.2945,9.6301,-0.016799,0.012828,-0.0036652
-0.004364,0.66685,1.2553,9.5125,-0.017104,0.014355,-0.002138
0.0063171,0.5884,1.1964,9.434,-0.017104,0.014966,-0.0018326
-0.0043945,0.41188,1.2553,9.5909,-0.017715,0.013439,-0.0018326
-0.01062,0.54917,1.1768,9.5713,-0.018021,0.014661,-0.0012217
-0.012512,0.49033,1.3141,9.5125,-0.017104,0.015882,-0.002138
0.0035095,0.64724,1.2553,9.5125,-0.014661,0.014966,-0.0027489
-0.016998,0.56879,1.2553,9.5125,-0.017715,0.014966,-0.0039706
-0.0059509,0.72569,1.2945,9.5125,-0.01741,0.018937,-0.002138
-0.01001,0.76492,1.2356,9.5321,-0.01741,0.017104,-0.0030543
-0.011871,0.66685,1.1964,9.5125,-0.018021,0.014661,-0.002138
-0.016663,0.74531,1.2553,9.5713,-0.017715,0.016188,-0.002138
-0.0058899,0.74531,1.1964,9.5713,-0.015882,0.018021,-0.0024435
-0.007843,0.43149,1.2553,9.5713,-0.018021,0.018326,-0.0024435
-0.0095825,0.60801,1.2553,9.5125,-0.017715,0.016493,-0.0042761
-0.0080872,0.74531,1.0787,9.5125,-0.014966,0.014355,-0.0018326
-0.0027466,0.66685,1.1964,9.4928,-0.015272,0.010079,-0.0024435
-0.0039063,0.74531,1.2553,9.5125,-0.016493,0.012523,-0.0024435
-0.0014038,0.5884,1.1572,9.5713,-0.018021,0.015272,-0.0024435
-0.0064697,0.56879,1.2553,9.4928,-0.018021,0.015272,-0.0036652
-0.0045166,0.74531,1.1964,9.5125,-0.01741,0.015577,-0.0033598
-0.0029907,0.74531,1.2356,9.5321,-0.013744,0.013744,-0.002138
-0.011993,0.49033,1.2553,9.5713,-0.014355,0.013744,-0.00061087
-0.00094604,0.56879,1.2553,9.5321,-0.015577,0.01405,-0.0033598
-0.0043945,0.41188,1.1376,9.5125,-0.016799,0.011606,-0.0042761
0.0086365,0.74531,1.2553,9.5321,-0.019548,0.013134,-0.0033598
0.00064087,0.74531,1.2356,9.5321,-0.020159,0.013744,-0.0051924
0.0024414,0.72569,1.2553,9.5125,-0.018021,0.014966,-0.0054978
0.0034485,0.72569,1.1964,9.4928,-0.018631,0.015882,-0.0048869
-0.0099792,0.74531,1.2553,9.5125,-0.019242,0.015272,-0.0036652
-0.0021973,0.43149,1.1572,9.5713,-0.018937,0.014966,-0.0033598
-0.0018311,0.49033,1.2553,9.5713,-0.018326,0.015577,-0.0036652
-0.0047913,0.76492,1.2553,9.5713,-0.01741,0.016799,-0.0027489
-0.0005188,0.74531,1.1572,9.6301,-0.016188,0.01405,-0.0036652
-0.0046387,0.72569,1.1572,9.4928,-0.016188,0.013439,-0.0030543
0.00057983,0.80415,1.0395,9.5125,-0.017104,0.015577,-0.0033598
-0.0042725,0.56879,1.1964,9.5713,-0.017104,0.016188,-0.0027489
-0.01474,0.49033,1.2553,9.5713,-0.016188,0.015577,-0.0030543
-0.0038452,0.5884,1.1572,9.434,-0.016799,0.013439,-0.0042761
-0.018616,0.74531,1.1572,9.5125,-0.020769,0.01405,-0.0030543
-0.0096741,0.56879,1.2553,9.4732,-0.020159,0.013744,-0.0018326
-0.0064392,0.72569,1.2553,9.5713,-0.017104,0.014355,-0.0033598
-0.0071106,0.41188,1.2553,9.5713,-0.016799,0.014355,-0.0036652
-0.008728,0.56879,1.1768,9.5125,-0.016799,0.014661,-0.0024435
-0.0079956,0.5884,1.2356,9.4928,-0.016493,0.015272,-0.0024435
-0.0045776,0.56879,1.2356,9.5125,-0.016493,0.014355,-0.0033598
-0.0078735,0.76492,1.2356,9.5125,-0.017715,0.014966,-0.0039706
-0.012207,0.56879,1.1572,9.5713,-0.01741,0.014966,-0.0039706
-0.011688,0.66685,1.3141,9.5125,-0.016799,0.013439,-0.002138
-0.0036621,0.74531,1.0787,9.5125,-0.016188,0.01405,-0.0012217
-0.0042419,0.66685,1.2356,9.5125,-0.018021,0.013744,-0.0027489
-0.013123,0.49033,1.3141,9.6301,-0.017715,0.014355,-0.0039706
-0.0039368,0.76492,1.2356,9.5713,-0.017104,0.014966,-0.0036652
-0.0057983,0.39227,1.2553,9.5713,-0.016799,0.013439,-0.0024435
-0.0077209,0.56879,1.2553,9.4928,-0.018631,0.013439,-0.0027489
-0.0073242,0.49033,1.2553,9.5713,-0.015882,0.015882,-0.0033598
-0.00067139,0.72569,1.2356,9.5125,-0.018021,0.01405,-0.0045815
-0.017181,0.60801,1.2553,9.5125,-0.016188,0.01405,-0.0039706
-0.012756,0.60801,1.1572,9.5909,-0.017104,0.013744,-0.002138
-0.0049744,0.74531,1.1964,9.5125,-0.017715,0.014966,-0.002138
-0.00064087,0.60801,1.2553,9.4928,-0.017104,0.015272,-0.0042761
0.0032959,0.60801,1.1964,9.5125,-0.018937,0.015882,-0.0054978
-0.0016785,0.74531,1.2553,9.5125,-0.015882,0.015882,-0.0039706
-0.0053101,0.74531,1.1572,9.5125,-0.019548,0.016188,-0.0030543
0.0026245,0.74531,1.1572,9.5125,-0.018326,0.018631,-0.0033598
-0.0074158,0.66685,1.2553,9.5125,-0.017715,0.017715,-0.0042761
-0.00048828,0.74531,1.0199,9.5125,-0.018021,0.015882,-0.0018326
-0.010132,0.72569,1.2553,9.5125,-0.018631,0.015882,-0.002138
-0.020325,0.56879,1.2553,9.4732,-0.018326,0.01741,-0.002138
-0.014374,0.76492,1.2553,9.5713,-0.01741,0.016799,-0.0018326
-0.0013428,0.5884,1.1572,9.434,-0.019242,0.015272,-0.0024435
-0.0079346,0.66685,1.1768,9.5125,-0.016799,0.01405,-0.0048869
-0.01001,0.5884,1.2553,9.5125,-0.01741,0.010996,-0.0030543
0.0015869,0.74531,1.2553,9.5125,-0.017715,0.014355,-0.0033598
-0.0065308,0.54917,1.2945,9.5713,-0.016493,0.014966,-0.0018326
-0.013947,0.74531,1.2356,9.5713,-0.017104,0.015272,-0.0018326
-0.0089417,0.64724,1.1964,9.5125,-0.018021,0.015272,-0.0036652
-0.0057373,0.60801,1.2356,9.5321,-0.017715,0.015272,-0.002138
-0.0023499,0.74531,1.1768,9.5125,-0.017104,0.016188,-0.0027489
-0.0086975,0.74531,1.1572,9.5125,-0.017104,0.014661,-0.0018326
0.0023804,0.64724,1.1572,9.3752,-0.018631,0.013744,-0.0024435
-0.01236,0.56879,1.2553,9.434,-0.018631,0.013744,-0.0027489
-0.003479,0.72569,1.2945,9.5321,-0.017104,0.014661,-0.0030543
0.003418,0.56879,1.1572,9.5713,-0.017104,0.01405,-0.0036652
0.0010376,0.54917,1.2553,9.5713,-0.019548,0.01405,-0.0033598
-0.01001,0.66685,1.1572,9.5125,-0.016799,0.014355,-0.0027489
0.0037842,0.70608,1.1964,9.4928,-0.01741,0.015577,-0.002138
0.006897,0.74531,1.2553,9.5321,-0.018326,0.015882,-0.0024435
-0.0025635,0.5884,0.86299,9.6497,-0.017715,0.018021,-0.0036652
-0.0032043,0.66685,1.3141,9.5125,-0.016799,0.01741,-0.0036652
0.001709,0.60801,1.1964,9.4732,-0.018631,0.015882,-0.0030543
-0.0036926,0.50995,1.2553,9.6497,-0.019853,0.014661,-0.0042761
-0.0057068,0.41188,1.2553,9.6497,-0.018937,0.014355,-0.0033598
-0.0067749,0.70608,1.3141,9.5321,-0.017715,0.015577,-0.002138
-0.00085449,0.74531,1.0395,9.5125,-0.01741,0.016188,-0.0018326
-0.0020752,0.74531,1.2945,9.5125,-0.016799,0.015882,-0.0027489
-0.0096741,0.56879,1.2553,9.434,-0.01741,0.015272,-0.0030543
-0.016602,0.72569,1.1572,9.5713,-0.018326,0.016188,-0.002138
-0.010925,0.74531,1.1964,9.5321,-0.020159,0.016188,-0.00030543
0.0028076,0.56879,1.2553,9.4732,-0.018631,0.014966,-0.0018326
-0.0074768,0.72569,1.3141,9.5125,-0.015577,0.015882,-0.0024435
0.0035095,0.76492,1.2356,9.5713,-0.016799,0.015272,-0.0024435
-0.0088501,0.56879,1.1572,9.4928,-0.017715,0.014355,-0.0027489
-0.0043945,0.74531,1.1768,9.5713,-0.020159,0.015882,-0.0030543
0.0016479,0.41188,1.2356,9.5713,-0.019548,0.018937,-0.0042761
9.1553e-05,0.49033,1.2553,9.5713,-0.016799,0.016188,-0.002138
0.0030212,0.56879,1.2553,9.5321,-0.016799,0.013744,-0.0024435
-0.0086975,0.56879,1.1572,9.6301,-0.017715,0.01405,-0.0024435
-0.0016479,0.66685,1.1964,9.4928,-0.017715,0.01405,-0.0024435
-0.0059509,0.74531,1.2553,9.5321,-0.017104,0.01405,-0.0027489
-0.0059814,0.5884,1.1768,9.5909,-0.015577,0.014966,-0.0027489
-0.01004,0.72569,1.2553,9.5321,-0.016799,0.014355,-0.00030543
-0.010986,0.72569,1.1572,9.5125,-0.01741,0.0097738,-0.002138
-0.008667,0.66685,1.2553,9.5125,-0.018021,0.012217,-0.0042761
-0.010742,0.56879,1.2553,9.4732,-0.015882,0.01405,-0.0033598
-0.0078125,0.74531,1.0199,9.5125,-0.015882,0.014966,-0.0033598
-0.01358,0.74531,1.1572,9.5125,-0.01741,0.01741,-0.0024435
0.00012207,0.74531,1.0787,9.5125,-0.01741,0.015882,-0.0012217
-0.0094299,0.74531,1.2356,9.5125,-0.018021,0.015272,-0.0012217
-0.0048218,0.56879,1.2945,9.5713,-0.019853,0.014661,-0.0042761
-0.0082397,0.49033,1.2553,9.6301,-0.018937,0.019242,-0.0036652
-0.0040283,0.74531,1.2553,9.5125,-0.017715,0.018021,-0.0027489
-0.0086975,0.66685,1.2945,9.5125,-0.016493,0.015272,-0.0030543
0.009552,0.5884,1.2553,9.5125,-0.016799,0.015272,-0.0030543
-0.0015869,0.45111,1.2553,9.6301,-0.016799,0.014661,-0.0027489
-0.0038147,0.60801,1.1768,9.4928,-0.019548,0.014355,-0.0027489
-0.010223,0.74531,1.3141,9.5321,-0.020464,0.014355,-0.0027489
-0.015259,0.5884,1.1572,9.6301,-0.01741,0.016188,-0.0036652
-0.0021973,0.56879,1.2553,9.5125,-0.01741,0.019853,-0.0027489
-0.0081482,0.66685,1.2553,9.5321,-0.018021,0.01741,-0.0042761
-0.0065002,0.64724,1.1964,9.5713,-0.020159,0.015272,-0.0030543
-0.0014954,0.72569,1.1964,9.5321,-0.017715,0.015272,-0.0033598
-0.0068054,0.74531,1.2553,9.5713,-0.016188,0.016188,-0.0039706
-0.009552,0.41188,1.2553,9.6497,-0.016799,0.015577,-0.0027489
-0.004303,0.56879,1.2356,9.5125,-0.016493,0.014966,-0.0042761
0.0014343,0.66685,1.2945,9.5125,-0.015577,0.013439,-0.0027489
-0.01535,0.74531,1.0199,9.5125,-0.014966,0.01405,-0.0030543
-0.011078,0.74531,1.2553,9.5321,-0.016493,0.015577,-0.002138
0.0043335,0.5884,1.2553,9.5125,-0.017104,0.014355,-0.0015272
-0.010925,0.74531,1.2356,9.5125,-0.017715,0.013439,-0.0036652
-0.0022278,0.70608,1.1964,9.4928,-0.018631,0.014661,-0.0036652
-0.0041199,0.56879,1.2553,9.4732,-0.017104,0.014661,-0.0027489
-0.0015869,0.74531,1.0787,9.4928,-0.017715,0.014966,-0.0033598
-0.0060425,0.74531,1.2553,9.5321,-0.017715,0.015577,-0.0027489
-0.011139,0.5884,1.2553,9.4928,-0.017104,0.015272,-0.0027489
-0.0073547,0.72569,1.0787,9.5125,-0.016799,0.015882,-0.0036652
-0.0057983,0.60801,1.2553,9.5125,-0.016799,0.015882,-0.0045815
-0.014709,0.74531,1.0787,9.5125,-0.017715,0.015577,-0.0039706
-0.0043945,0.66685,1.2553,9.5125,-0.017715,0.01741,-0.0033598
-0.011627,0.66685,1.2945,9.5321,-0.018021,0.015272,-0.0030543
-0.0053406,0.74531,1.0787,9.5125,-0.015882,0.013439,-0.0030543
-0.0007019,0.56879,1.1964,9.5321,-0.01741,0.016188,-0.00030543
-0.0020142,0.5884,1.1572,9.6497,-0.01741,0.013439,-0.0009163
0.00094604,0.41188,1.2945,9.5909,-0.016799,0.01405,-0.0024435
-0.0057068,0.56879,1.2553,9.5125,-0.017715,0.01405,-0.0009163
-0.0079651,0.56879,1.2553,9.4928,-0.018326,0.014966,-0.0027489
-0.0036011,0.56879,1.1572,9.5909,-0.018021,0.015577,-0.0042761
0.0025635,0.74531,1.1572,9.4928,-0.01741,0.014661,-0.0030543
-0.0013428,0.74531,1.0199,9.4928,-0.01741,0.014661,-0.0018326
-0.0014954,0.56879,1.1572,9.5321,-0.018021,0.014661,-0.002138
-0.0043945,0.80415,1.2945,9.5713,-0.01741,0.018326,-0.0027489
-0.00097656,0.5884,1.1964,9.3555,-0.017104,0.017104,-0.0027489
-0.013214,0.60801,1.1964,9.5125,-0.017104,0.014355,-0.002138
-0.0016174,0.56879,1.2553,9.5321,-0.016188,0.014966,-0.0033598
0.00076294,0.74531,1.2553,9.5125,-0.016188,0.015272,-0.0042761
0.014984,0.56879,1.2553,9.5713,-0.016188,0.015272,-0.0042761
-0.0012512,0.60801,1.1964,9.434,-0.018326,0.013439,-0.0039706
-0.0045471,0.56879,1.1964,9.4732,-0.015882,0.013744,-0.0030543
-0.0071716,0.74531,1.2553,9.5125,-0.015577,0.011301,-0.0033598
-0.00057983,0.74531,1.2553,9.5321,-0.018021,0.012828,-0.0036652
-0.00079346,0.60801,1.2356,9.5125,-0.01741,0.014661,-0.0036652
-0.0037842,0.70608,1.2553,9.5125,-0.016493,0.014661,-0.0027489
-0.006897,0.66685,1.1964,9.5125,-0.017104,0.015577,-0.0027489
-0.0067749,0.66685,1.1964,9.5713,-0.016799,0.014355,-0.0027489
-0.0028992,0.70608,1.2553,9.5125,-0.016188,0.01405,-0.0024435
-0.012177,0.56879,1.2356,9.5125,-0.016799,0.015882,-0.0024435
-0.0036316,0.60801,1.1964,9.5125,-0.017104,0.019548,-0.0036652
-0.00048828,0.72569,1.2553,9.5125,-0.016493,0.018021,-0.002138
-0.0057373,0.50995,1.2356,9.5125,-0.01741,0.015577,-0.0024435
-0.0030212,0.41188,1.2553,9.6497,-0.016188,0.01405,-0.0030543
-0.0016174,0.74531,1.1964,9.5125,-0.018021,0.015882,-0.0042761
-0.005249,0.74531,1.0787,9.5321,-0.018937,0.015882,-0.0033598
-0.0042419,0.5884,1.1572,9.5321,-0.017715,0.016799,-0.002138
0.0019226,0.66685,1.2945,9.5713,-0.018326,0.016493,-0.0042761
-0.0026245,0.72569,1.0787,9.5125,-0.014966,0.021075,-0.0042761
-0.0087891,0.66685,1.2553,9.5713,-0.013134,0.018021,-0.0033598
-0.0005188,0.74531,1.1572,9.5125,-0.014966,0.016799,-0.0030543
-0.012146,0.41188,1.2945,9.6301,-0.017715,0.016493,-0.0012217
-0.0016174,0.49033,1.2553,9.5125,-0.017104,0.015882,-0.0030543
-0.0074158,0.56879,1.2356,9.5125,-0.015577,0.014966,-0.0033598
-0.00030518,0.43149,1.2553,9.6301,-0.015577,0.015577,-0.0033598
-0.0037231,0.74531,1.2553,9.5125,-0.017715,0.015577,-0.0015272
0.0015869,0.5884,1.2356,9.4732,-0.01741,0.014661,-0.0015272
-0.0070801,0.74531,1.2553,9.5713,-0.01741,0.015882,-0.0039706
-0.0049133,0.74531,1.2945,9.5713,-0.016799,0.016799,-0.0033598
-0.0089417,0.74531,1.1572,9.5125,-0.018326,0.015577,-0.0027489
-0.00354,0.74531,1.0395,9.5125,-0.017104,0.015577,-0.0024435
0.0033875,0.74531,1.2553,9.5321,-0.016188,0.015272,-0.0012217
0.00030518,0.74531,1.2553,9.5713,-0.018326,0.015882,-0.0009163
0.0007019,0.74531,1.2356,9.5125,-0.016188,0.014355,-0.0030543
-0.0040588,0.74531,1.1572,9.4732,-0.018326,0.011301,-0.002138
-0.014343,0.74531,1.2553,9.5125,-0.017104,0.013134,-0.0024435
-0.0074158,0.70608,1.2553,9.5125,-0.01741,0.014661,-0.0024435
-0.00085449,0.56879,1.2553,9.4928,-0.018021,0.014661,-0.0033598
-0.0020142,0.41188,1.2553,9.5909,-0.018326,0.014355,-0.002138
-0.0060425,0.66685,1.2553,9.4928,-0.01741,0.014355,-0.0027489
-0.0064392,0.56879,1.1964,9.3752,-0.015577,0.014355,-0.0042761
-0.0088501,0.74531,1.1768,9.5125,-0.016799,0.015272,-0.002138
0.0021362,0.74531,1.2553,9.5713,-0.01741,0.018326,-0.0036652
-0.0066833,0.72569,1.1768,9.4928,-0.017715,0.016799,-0.0015272
-0.00054932,0.56879,1.2553,9.434,-0.015882,0.014966,-0.0015272
-0.0093079,0.72569,1.1964,9.5125,-0.015882,0.015272,-0.0030543
-0.010254,0.74531,1.2553,9.5125,-0.01741,0.014661,-0.0036652
-0.0078735,0.49033,1.2553,9.5321,-0.018326,0.013439,-0.0027489
-0.0082092,0.5884,1.2553,9.5125,-0.017715,0.014966,-0.0015272
0.00082397,0.41188,1.2553,9.6301,-0.017715,0.016188,-0.0027489
0.0016785,0.27459,1.1376,9.7478,-0.018021,0.018326,-0.0039706
-0.0053711,0.74531,1.1964,9.5125,-0.01741,0.017104,-0.0030543
-0.0022888,0.56879,1.1964,9.5713,-0.017715,0.01405,-0.0027489
-0.0042725,0.56879,1.2553,9.4928,-0.016493,0.015577,-0.0045815
-0.0042725,0.66685,1.2553,9.5125,-0.016493,0.016188,-0.0045815
-0.0043335,0.66685,1.2945,9.5125,-0.016799,0.015272,-0.0036652
-0.0067444,0.41188,1.2553,9.6497,-0.016188,0.015272,-0.0036652
-0.013458,0.5884,1.1572,9.5713,-0.017715,0.012828,-0.0042761
-0.0050964,0.49033,1.1964,9.5713,-0.017104,0.010079,-0.0030543
-0.0067444,0.54917,1.2356,9.6301,-0.016493,0.013744,-0.0051924
-0.0050049,0.5884,1.1572,9.5713,-0.016188,0.015882,-0.0036652
-0.011292,0.70608,1.2356,9.4928,-0.016799,0.015272,-0.0018326
0.0032654,0.70608,1.2356,9.5125,-0.018937,0.01405,-0.0039706
0.0023499,0.74531,1.0395,9.4732,-0.020159,0.015577,-0.0027489
-0.0018921,0.70608,1.2553,9.5125,-0.017715,0.016799,-0.002138
-0.0112,0.56879,1.2553,9.4928,-0.015577,0.016493,-0.0033598
-0.007843,0.64724,1.1964,9.5125,-0.01741,0.017715,-0.0027489
-0.0062561,0.66685,1.1768,9.4928,-0.018326,0.015272,-0.0015272
0.0041504,0.80415,1.2945,9.5125,-0.017715,0.015577,-0.00030543
-0,0.74531,1.1964,9.5125,-0.018631,0.016188,-0.0015272
-0.0046082,0.56879,1.2553,9.5125,-0.018631,0.015272,-0.0030543
-0.010956,0.74531,1.2553,9.6301,-0.018631,0.015272,-0.0030543
-0.0049438,0.74531,1.1768,9.5321,-0.017715,0.016493,-0.0033598
-0.026794,0.66685,1.2945,9.5125,-0.016493,0.015272,-0.0045815
-0.051727,0.74531,1.2553,9.5125,-0.014661,0.012217,-0.0042761
-0.0032654,0.74531,1.2553,9.5713,-0.015577,0.013744,-0.002138
-0.0024109,0.56879,1.2553,9.4928,-0.01741,0.015577,-0.002138
-0.012054,0.72569,1.1768,9.6301,-0.018326,0.016188,-0.0030543
-0.0023193,0.70608,1.2945,9.5125,-0.018937,0.015272,-0.0030543
-0.0019226,0.60801,1.2553,9.5713,-0.017715,0.015272,-0.0027489
-0.0093994,0.74531,1.1572,9.5321,-0.018021,0.016188,-0.0039706
-0.008667,0.72569,1.2553,9.5321,-0.018326,0.01741,-0.0030543
-0.0056763,0.41188,1.2945,9.6497,-0.016493,0.016188,-0.002138
-0.0054626,0.5884,1.2356,9.4928,-0.015577,0.014661,-0.0036652
-0.0019531,0.41188,1.2553,9.6301,-0.016799,0.01405,-0.0036652
-0.0085754,0.54917,1.2553,9.4928,-0.016799,0.014355,-0.0027489
-0.0014954,0.70608,1.2553,9.5125,-0.015272,0.013744,-0.0027489
-0.0033569,0.74531,1.0199,9.5125,-0.01741,0.014966,-0.0018326
-0.00354,0.74531,1.1964,9.5321,-0.019853,0.015882,-0.0030543
-0.00054932,0.5884,1.3141,9.5125,-0.015577,0.013439,-0.0036652
-0.0020142,0.74531,1.2553,9.4928,-0.016188,0.013134,-0.0036652
-0.0040894,0.66685,1.1964,9.4732,-0.017715,0.014355,-0.0033598
-0.020691,0.56879,1.2553,9.6497,-0.017715,0.014355,-0.0042761
-0.012024,0.74531,1.0199,9.5125,-0.016188,0.015272,-0.0036652
-0.016144,0.74531,1.1964,9.5125,-0.014966,0.015882,-0.0018326
0.0022888,0.56879,1.1964,9.4732,-0.017104,0.015577,-0.002138
-0.0031738,0.74531,1.1376,9.5713,-0.016188,0.016188,-0.0027489
0.0013733,0.72569,1.2553,9.5321,-0.016188,0.016188,-0.0033598
0.003479,0.60801,1.2356,9.4732,-0.014355,0.017715,-0.0027489
-0.0031128,0.74531,1.2945,9.5321,-0.016188,0.017104,-0.0033598
-0.0047913,0.74531,1.2945,9.5125,-0.015577,0.016188,-0.0039706
-0.0059509,0.56879,1.2553,9.5125,-0.016493,0.015577,-0.0039706
-0.0039673,0.74531,1.2356,9.5125,-0.016493,0.014966,-0.0036652
-0.0064087,0.41188,1.1964,9.5909,-0.016188,0.015272,-0.0018326
-0.00085449,0.49033,1.2553,9.5713,-0.015577,0.015272,-0.0015272
0.010895,0.56879,1.1768,9.5125,-0.014355,0.016493,-0.0039706
-0.01059,0.41188,1.1964,9.5713,-0.015577,0.017715,-0.0048869
-0.0043945,0.56879,1.2553,9.4928,-0.01741,0.016188,-0.0033598
-0.0075684,0.56879,1.1768,9.434,-0.017715,0.014355,-0.0027489
-0.010345,0.72569,1.2553,9.5321,-0.016493,0.015577,-0.0030543
-0.0057373,0.74531,1.2553,9.5125,-0.014966,0.01405,-0.0030543
-0.0076904,0.74531,1.1964,9.5713,-0.015882,0.01405,-0.0036652
-0.0067749,0.60801,1.2356,9.5125,-0.01405,0.016188,-0.0027489
-0.0068054,0.74531,1.1964,9.4928,-0.014966,0.015882,-0.0051924
-0.012299,0.43149,1.0787,9.6301,-0.015272,0.012828,-0.0048869
-0.0093384,0.41188,1.2356,9.6497,-0.017104,0.013744,-0.0027489
-0.017487,0.66685,1.2945,9.5125,-0.016493,0.015577,-0.0045815
-0.0023804,0.56879,1.0787,9.5713,-0.016799,0.016493,-0.0036652
-0.010956,0.5884,1.1964,9.434,-0.019242,0.015882,-0.0024435
-0.0054932,0.74531,1.0199,9.5125,-0.018326,0.014661,-0.002138
-0.0076904,0.66685,1.1964,9.4732,-0.015272,0.015577,-0.0039706
-0.0013428,0.54917,1.2553,9.5713,-0.015272,0.016188,-0.0033598
-0.016998,0.43149,1.2553,9.6497,-0.014966,0.018326,-0.0027489
-0.014618,0.74531,1.2356,9.5713,-0.015577,0.017715,-0.0030543
-0.0047607,0.70608,1.2945,9.5125,-0.015272,0.015882,-0.0033598
-0.0098877,0.56879,1.2553,9.5125,-0.016493,0.016188,-0.0027489
-0.0030212,0.74531,1.2553,9.5713,-0.018326,0.016188,-0.0027489
-0.00033569,0.64724,1.1768,9.5125,-0.018021,0.014661,-0.0030543
-0.0050049,0.66685,1.2553,9.5321,-0.01741,0.013439,-0.0036652
-0.0068359,0.76492,1.1768,9.5125,-0.015577,0.014355,-0.0027489
-0.0075378,0.72569,1.2553,9.5321,-0.015272,0.013439,-0.0027489
-0.0022888,0.60801,1.1572,9.3752,-0.014661,0.014661,-0.0030543
-0.0049133,0.74531,1.1572,9.5125,-0.015577,0.016188,-0.0027489
-0.0076904,0.70608,1.1768,9.5909,-0.014966,0.016188,-0.002138
-0.0097046,0.66685,1.2356,9.5125,-0.015577,0.016799,-0.0012217
-0.0068665,0.56879,1.2356,9.4928,-0.017104,0.016493,-0.0024435
-0.0073547,0.66685,1.1572,9.5321,-0.016493,0.015272,-0.0027489
0.00057983,0.72569,1.2356,9.4732,-0.018326,0.016188,-0.0048869
-0.0077209,0.74531,1.2553,9.5713,-0.019548,0.018021,-0.0033598
-0.014038,0.70608,1.2945,9.5125,-0.018021,0.016799,-0.0024435
-0.0018005,0.66685,1.2553,9.5125,-0.016799,0.015272,-0.0042761
0.0032349,0.66685,1.2945,9.5125,-0.017104,0.01405,-0.0033598
-0.0053406,0.74531,1.2553,9.5713,-0.017104,0.013134,-0.0033598
-0.010895,0.60801,1.1768,9.5713,-0.017715,0.013744,-0.0033598
-0.00024414,0.66685,1.2553,9.5125,-0.015577,0.014966,-0.0042761
-0.011536,0.56879,1.1964,9.6497,-0.014966,0.01405,-0.0039706
-0.0052795,0.76492,1.0003,9.4928,-0.014966,0.014661,-0.0048869
-0.00012207,0.74531,1.1572,9.4732,-0.016799,0.015577,-0.0015272
-0.0046997,0.5884,1.2553,9.5125,-0.018326,0.016799,-0.00030543
-6.1035e-05,0.43149,1.2945,9.6301,-0.018326,0.015577,-0.0012217
-0.0046082,0.74531,1.1768,9.434,-0.018021,0.014661,-0.0018326
-0.0098267,0.74531,1.0787,9.5125,-0.017715,0.015272,-0.0024435
-0.0064087,0.56879,1.2553,9.434,-0.015882,0.014355,-0.0027489
-0.008728,0.74531,1.2553,9.5713,-0.015272,0.014661,-0.0036652
0.0039368,0.74531,1.1768,9.5321,-0.015882,0.010996,-0.0024435
-0.0058289,0.74531,1.1572,9.5125,-0.016188,0.013744,-0.0045815
-0.0023499,0.76492,1.2553,9.5125,-0.014966,0.015577,-0.0048869
-0.0047302,0.66685,1.2553,9.5125,-0.016493,0.015882,-0.0036652
-0.0057373,0.56879,1.2945,9.5125,-0.015882,0.015882,-0.0042761
-0.011017,0.41188,1.2553,9.5713,-0.017104,0.014661,-0.0039706
-0.010437,0.66685,1.2945,9.5125,-0.016799,0.014966,-0.0033598
-0.0035095,0.56879,1.1572,9.5909,-0.014661,0.016188,-0.002138
-0.0085754,0.49033,1.2945,9.5909,-0.016188,0.018326,-0.002138
0.0042419,0.74531,1.0199,9.5125,-0.01741,0.016493,-0.0018326
0.0058594,0.74531,1.1768,9.5321,-0.018021,0.016493,-0.0027489
-0.0079956,0.5884,1.1964,9.4928,-0.018326,0.016188,-0.002138
-0.0048828,0.70608,1.2553,9.5321,-0.017715,0.014966,-0.0036652
-0.0049744,0.74531,1.1376,9.4732,-0.016188,0.014661,-0.0030543
-0.0048218,0.76492,1.2553,9.5909,-0.014661,0.014661,-0.0030543
-0.0053101,0.5884,1.1572,9.3752,-0.019853,0.016188,-0.0018326
-0.0037537,0.66685,1.2356,9.4928,-0.018937,0.016799,-0.0036652
0.0014954,0.74531,1.2553,9.5909,-0.016493,0.016188,-0.0036652
-0.00073242,0.56879,1.1768,9.5125,-0.016188,0.015882,-0.0036652
0.0036621,0.64724,1.2945,9.5125,-0.016188,0.016493,-0.0036652
0.0022583,0.60801,1.1768,9.5321,-0.016188,0.016188,-0.0027489
-0.0024719,0.70608,1.2553,9.5909,-0.018631,0.015577,-0.0033598
-0.0016174,0.74531,1.2553,9.5713,-0.020464,0.015577,-0.0024435
-0.0068054,0.43149,1.2553,9.6301,-0.019548,0.014661,-0.002138
0.0082092,0.5884,1.0787,9.7282,-0.018937,0.01405,-0.0018326
-0.0089417,0.72569,1.2553,9.5125,-0.015577,0.016188,-0.0039706
0.00057983,0.76492,1.0787,9.4928,-0.014966,0.016799,-0.0027489
-0.004425,0.60801,1.2553,9.5125,-0.015577,0.015577,-0.0030543
-0.012329,0.49033,1.2945,9.5321,-0.015882,0.014661,-0.0036652
0.0039368,0.60801,1.1768,9.5321,-0.016493,0.015272,-0.0036652
-0.010223,0.70608,1.1964,9.4732,-0.016799,0.014966,-0.0027489
-0.0073853,0.74531,1.2945,9.5321,-0.017715,0.013744,-0.0036652
-0.0030518,0.56879,1.1572,9.5321,-0.016799,0.013134,-0.0033598
-0.0030212,0.54917,1.1768,9.3752,-0.016799,0.014661,-0.0018326
-0.0007019,0.66685,1.2553,9.5713,-0.015272,0.015882,-0.0024435
0.010406,0.74531,1.2945,9.5321,-0.016493,0.016188,-0.0015272
-0.0077209,0.56879,1.1572,9.5713,-0.017104,0.016188,-0.0015272
