-0.46323,3.0793,-3.8834,8.0807,0.018021,-0.35827,0.026878
-0.35086,2.8635,-3.0989,8.2572,0.049786,-0.25443,0.03207
-0.26709,2.334,-2.1575,8.4141,0.00061087,-0.17898,0.26878
-0.20175,2.4909,-2.2555,8.5514,-0.098349,-0.13806,0.23763
-0.17691,2.4713,-2.687,8.7083,-0.20067,-0.13714,0.18357
-0.18362,2.2948,-2.2751,9.3359,-0.28436,-0.14569,0.13958
-0.202,2.1771,-2.1575,9.434,-0.30024,-0.13408,0.087354
-0.22473,2.3732,-2.2948,9.0613,-0.26512,-0.12645,0.025656
-0.2663,2.1378,-2.8832,8.1591,-0.23335,-0.10751,0.061087
-0.30783,2.1182,-3.3539,7.3746,-0.18723,-0.057727,0.040317
-0.33203,2.8047,-3.9423,7.4531,-0.1573,-0.016799,0.016799
-0.33395,2.8439,-4.2561,7.2177,-0.20067,-0.0015272,0.036041
-0.33807,3.3931,-4.0207,6.747,-0.24984,0.018326,0.064141
-0.33752,3.4323,-3.6677,6.6489,-0.32009,0.033598,0.065668
-0.3465,4.0207,-3.4127,7.3354,-0.40592,0.048564,0.066279
-0.33698,4.2561,-4.0796,8.2376,-0.48045,0.047953,0.069333
-0.32547,4.3149,-3.8834,8.4926,-0.52504,0.065057,-0.12981
-0.30786,4.06,-4.0207,7.963,-0.51007,0.086743,-0.15241
-0.28183,3.2754,-3.6873,7.7865,-0.41905,0.13317,0.0094684
-0.27768,3.0793,-3.3931,7.4923,-0.28986,0.19028,-0.016188
-0.28152,2.942,-3.55,7.3746,-0.14813,0.24709,-0.029627
-0.30472,2.8635,-4.0992,7.3158,-0.03146,0.30329,-0.050702
-0.31125,3.1185,-4.6091,7.2961,0.059254,0.32926,-0.072693
-0.33841,3.5696,-4.9426,7.4923,0.15088,0.35675,-0.09499
-0.36005,3.55,-4.5503,7.4923,0.23305,0.3766,-0.1124
-0.38177,3.5696,-4.158,7.4531,0.29108,0.39126,-0.10049
-0.41385,3.2558,-3.8638,7.5315,0.31276,0.39004,-0.16982
-0.46289,3.1774,-3.6873,7.8061,0.30238,0.37202,-0.18326
-0.51251,3.0204,-3.5304,8.0611,0.27794,0.34819,-0.18418
-0.57217,2.7851,-3.2362,8.8456,0.23182,0.30329,-0.1799
-0.61575,2.6086,-3.4127,8.316,0.12309,0.2416,-0.16707
-0.6665,3.0597,-3.7658,7.7669,-0.024435,0.15272,-0.14172
-0.71451,3.0597,-4.0011,7.3746,-0.023213,0.065057,0.0073304
-0.71921,3.2166,-4.3345,7.4923,-0.028711,0.063835,0.016188
-0.72156,3.0989,-4.5503,7.6884,-0.02138,0.050702,-0.032376
-0.71042,3.3146,-4.158,7.7865,-0.0027489,0.036041,-0.033598
-0.69629,3.0597,-3.8638,7.8649,0.013134,0.024435,-0.033292
-0.69464,2.8635,-3.6088,7.61,0.00061087,0.01069,-0.03207
-0.69025,2.9616,-3.7854,7.61,0.0082467,0.0033598,-0.023824
-0.67834,2.8635,-4.0207,7.6884,-0.0082467,-0.0067195,-0.009163
-0.66864,2.8635,-4.0796,7.6492,-0.14447,-0.032987,0.083078
-0.65225,2.9028,-4.0403,7.5511,-0.15119,-0.059865,0.076358
-0.63748,2.942,-3.9423,7.4531,-0.1295,-0.077885,0.018631
-0.62155,3.0008,-3.9815,7.5511,-0.1014,-0.090103,0.019548
-0.61209,3.0989,-4.3149,7.5511,-0.091935,-0.094684,0.029322
-0.59338,3.2558,-4.3149,7.4531,-0.10537,-0.089797,0.042761
-0.57147,3.2362,-4.3149,7.61,-0.047647,-0.087659,0.054672
-0.5499,3.1774,-4.158,7.4727,-0.10171,-0.090103,0.07422
-0.54657,2.9616,-4.158,7.61,-0.17104,-0.096822,-0.0033598
-0.54041,3.0793,-4.158,7.5511,-0.17257,-0.097128,-0.011301
-0.53619,2.8635,-4.158,7.6296,-0.16646,-0.081245,0.067195
-0.54291,2.9028,-4.1972,7.6492,-0.15608,-0.06017,0.057727
-0.55087,2.9224,-4.0207,7.7473,-0.13561,-0.041844,0.045509
-0.54968,2.7851,-3.9815,7.61,-0.095295,-0.022907,0.036041
-0.55804,3.1185,-4.2365,7.5511,-0.13042,-0.0067195,0.026267
-0.56949,3.0008,-4.1776,7.4923,-0.15638,0.0097738,0.011606
-0.57962,3.0989,-4.3345,7.4531,-0.16371,0.0079412,-0.033903
-0.59229,3.1774,-4.3149,7.4334,-0.17165,0.0067195,-0.032987
-0.6008,3.0204,-4.3345,7.3746,-0.16616,0.013439,0.0015272
-0.60126,3.1185,-4.3542,7.3354,-0.13103,0.025351,-0.014355
-0.61099,3.0008,-4.3934,7.4923,-0.069944,0.044288,-0.034208
-0.60458,3.0989,-4.4522,7.5511,-0.015882,0.059865,-0.036041
-0.60379,3.2166,-4.2561,7.4923,0.0067195,0.07025,-0.030543
-0.60294,3.1185,-4.0403,7.5511,0.010385,0.067806,-0.03146
-0.59528,3.0793,-4.0992,7.5511,0.34606,0.13073,0.10537
-0.55478,2.8635,-4.5503,7.61,0.31918,0.1295,0.085521
-0.53101,3.0597,-4.1972,7.5315,0.27122,0.13561,0.027794
-0.50946,3.1774,-4.5699,7.3746,0.17715,0.13531,0.033292
-0.48309,3.0597,-4.3149,7.3354,0.030238,0.11148,0.066279
-0.44672,3.0793,-4.2953,7.3158,-0.13836,0.066584,0.098349
-0.41177,2.9028,-4.3542,7.4923,-0.27336,0.015882,0.1069
-0.3461,2.942,-4.413,7.2373,-0.34453,-0.029322,0.10904
-0.27567,3.0793,-4.3542,7.4531,-0.38057,-0.043066,0.051924
-0.20593,2.8635,-4.3149,7.5903,-0.39248,-0.044288,0.062614
-0.12347,2.8635,-4.3934,7.61,-0.38882,-0.043982,0.069639
-0.067047,2.9616,-4.8249,7.3158,-0.39126,-0.04215,0.06353
-0.081665,3.2166,-5.1191,7.0019,-0.37568,-0.04948,0.051618
-0.16071,3.4127,-4.0796,7.6884,-0.33353,-0.048564,0.038179
-0.27899,2.8635,-3.2362,7.9238,-0.30085,-0.033903,0.034819
-0.4057,2.6086,-3.6088,8.0022,-0.30024,-0.017715,0.038485
-0.52008,3.0597,-4.5503,7.61,0.13073,-0.015882,0.024435
-0.62729,3.4912,-4.4718,7.3158,-0.30879,-0.023213,0.020769
-0.69586,3.0204,-3.6088,7.8649,-0.32742,-0.025351,0.057116
-0.7421,2.6086,-3.3146,7.4531,-0.31582,-0.021075,0.041539
-0.73676,2.9224,-3.0597,7.61,-0.24374,0,0.025656
-0.68649,2.6086,-3.197,8.0022,-0.13408,0.028711,0.012217
-0.5889,2.5301,-3.3931,8.2768,-0.022297,0.050091,0.014966
-0.48532,2.8635,-3.9227,8.0022,0.067806,0.064446,0.025962
-0.37772,2.8635,-4.1776,7.9434,0.40806,0.146,0
-0.28448,3.0008,-4.0403,7.9042,0.24832,0.065057,0.030543
-0.19678,3.0204,-3.9815,7.8453,0.15913,-0.0076358,0.029627
-0.10608,2.8047,-3.9423,7.5511,0.16127,-0.026878,-0.0024435
-0.01178,2.8635,-4.0403,7.4334,0.22785,0.0024435,-0.050702
0.099487,2.9028,-4.4914,7.3942,0.33048,0.053145,-0.057727
0.19067,3.0204,-4.7268,7.6296,0.40348,0.11087,-0.039401
0.29965,3.1577,-4.4914,7.5511,0.40653,0.13836,-0.030849
0.40079,2.9224,-4.158,7.61,1.281,0.33201,-0.60445
0.50491,2.9028,-3.9423,7.5903,1.3576,0.37813,-0.6692
0.59372,2.8635,-3.9227,7.6296,1.42,0.41783,-0.4102
0.65848,2.9028,-3.9815,7.6884,1.4649,0.45907,-0.44257
0.72482,2.7851,-4.0207,7.7473,1.4197,0.49816,-0.48411
0.76242,2.8439,-3.8442,8.0807,1.2651,0.53909,-0.50274
0.84152,2.7066,-3.8246,8.1787,0.9954,0.55528,-0.52473
0.92575,2.6282,-3.8442,7.9042,1.157,0.52595,-0.55925
0.99057,3.0008,-4.0992,7.6296,-0.25168,0.45907,-1.774
1,2.8047,-4.0207,7.7865,-1.3531,0.36438,-1.8512
1,2.6478,-4.2561,7.8649,-1.9914,0.14478,-0.7422
1,2.5301,-4.4522,7.61,-2.2269,-0.23335,-0.83689
1,2.6086,-3.8834,7.5511,-2.2214,-0.4441,-1.0486
1,2.687,-3.5108,7.8453,-2.0165,-0.43768,-1.3247
1,3.0597,-3.4519,7.9434,1.0321,-0.3485,-1.5324
1,2.687,-3.9423,7.7669,0.62339,-0.16738,-1.6744
1,2.9028,-4.6484,7.4923,0.35827,0.016188,-0.12737
1,3.4127,-4.7072,7.2373,0.28069,0.0088575,-0.13042
1,3.2362,-4.2365,7.6884,0.13683,-0.018326,0.13928
1,2.9224,-4.158,8.0022,-0.029322,-0.060476,0.1069
1,2.8635,-4.4522,7.7865,-0.14752,-0.097433,0.063835
1,3.2558,-5.021,7.1196,-0.16829,-0.10782,0.0027489
1,3.2754,-4.8837,7.5315,-0.093768,-0.064446,-0.059254
1,2.7851,-5.021,7.708,0.025045,0.018937,-0.10446
1,3.1185,-4.7856,7.3746,0.33567,0.089797,-0.36224
1,3.2558,-4.0207,7.61,0.36927,0.12675,-0.39767
1,2.9616,-3.3539,8.5514,0.39523,0.14875,-0.14447
1,2.942,-2.687,9.0417,0.46242,0.15547,-0.17471
1,3.7265,-3.3539,7.7865,0.61667,0.14966,-0.19426
1,5.0995,-5.0995,6.5116,0.81825,0.14539,-0.20556
1,6.0801,-6.1782,5.9624,0.14844,0.17807,-0.23793
1,6.4135,-5.7467,5.6682,0.25931,0.25381,-0.29841
1,5.7271,-4.1776,5.9821,3.0989,1.0562,-0.23885
1,5.1387,-3.197,6.8254,2.653,0.99724,-0.31582
1,5.276,-2.0006,7.6296,2.2633,0.78588,0.17562
1,4.9426,-1.6671,7.4923,1.9624,0.53848,0.14478
1,5.1975,-2.0594,6.6489,1.7126,0.38607,0.040317
1,5.5898,-2.6086,5.8055,1.4294,0.36652,-0.092852
1,5.6879,-2.7655,5.4329,1.0427,0.39737,-0.17807
1,5.1191,-3.0989,4.9818,0.58338,0.37354,-0.21228
1,4.413,-3.8638,4.158,-5.7305,0.94318,0.27
1,4.5111,-5.6486,2.5301,-5.3038,0.92638,0.35675
1,4.3738,-8.0611,0.8826,-4.8762,0.88362,-0.14722
1,4.0403,-9.5909,-0.078453,-4.2883,0.85521,-0.05681
1,3.4127,-9.5125,-0.39227,-3.5088,0.82345,0.025656
1,2.4713,-8.5514,-1.1768,-2.4566,0.83566,0.073609
1,2.3732,-10.356,-2.1771,-1.2489,0.95326,0.099266
1,2.942,-12.023,-2.2555,-0.13531,1.0589,0.17165
1,2.5497,-9.8066,-1.2945,0.79168,1.1429,0.75961
1,1.9613,-6.845,-0.2942,1.438,1.1839,0.72754
1,2.1378,-5.5898,0.41188,1.8586,1.1664,0.42852
1,2.0006,-6.6881,0.74531,2.1469,1.1206,0.48167
1,2.7655,-8.2768,1.0983,2.3552,1.065,0.54245
1,2.7066,-8.3749,1.5887,2.5369,1.0201,0.64568
1,2.4517,-9.8066,2.2555,2.6438,0.99632,0.75198
1,3.8442,-11.395,1.8437,2.6154,0.9838,0.78954
1,4.3345,-9.8066,2.2163,2.3396,0.96914,0.10568
1,3.8834,-7.4727,4.0011,2.1255,0.93126,0.14997
1,2.9028,-5.5898,5.4525,2.0278,0.8094,0.7141
1,3.55,-6.0409,5.0406,2.1279,0.60476,0.6744
1,4.5111,-6.8647,4.668,2.4294,0.48839,0.55558
1,4.5699,-8.0218,5.0798,2.8613,0.56902,0.32834
1,4.3542,-8.1003,4.9426,3.2477,0.74556,0.1179
1,4.8053,-7.1589,4.9818,3.3564,0.94073,0.065973
1,4.5111,-5.9624,5.0406,-2.2544,-0.53665,-0.29658
1,4.5895,-5.3544,4.3345,-2.4642,-0.61148,-0.15913
0.8432,4.6287,-4.5503,3.6873,-2.8228,-0.70799,0.25045
0.54269,4.3345,-4.158,3.295,-3.2132,-0.81612,0.23671
0.1991,4.1972,-4.3345,3.0793,-3.2342,-0.8262,0.12737
-0.19989,4.1188,-5.2564,2.2948,-2.6136,-0.68264,-0.057727
-0.58459,4.5307,-7.0608,2.0594,-1.4496,-0.40623,-0.2248
-0.90601,4.413,-7.4334,2.5301,-0.23824,-0.092241,-0.32376
-0.99997,3.5696,-6.5312,3.0793,0.4893,0.13989,0.09896
-0.99997,3.6481,-5.9232,3.2166,0.59773,0.24343,0.1741
-0.99997,4.3149,-6.1978,3.1381,0.2306,0.25015,-0.026573
-0.99997,4.9818,-6.139,2.6086,-0.36163,0.18631,0.025656
-0.99997,4.6876,-8.316,0.86299,-0.88942,0.093462,0.042761
-0.99997,5.1191,-12.043,-2.2555,-1.1814,-0.0024435,0.058338
-0.99997,6.3155,-12.101,-3.0401,-1.1982,-0.089492,0.060781
-0.99997,6.139,-6.9823,-1.1572,-0.97158,-0.15119,0.065057
-0.99997,4.7856,-3.7658,-0.078453,-0.67134,-0.20831,0.045509
-0.99997,3.7461,-3.9815,0.37265,-1.0828,-0.29505,0.04612
-0.99997,3.4323,-5.8644,0.5884,-1.7779,-0.40134,0.27458
-0.99997,3.0008,-6.8647,0.47072,-2.4887,-0.49938,0.37354
-0.99997,2.7851,-5.7467,0.64724,-2.7935,-0.61117,0.41508
-0.99997,3.8442,-4.3542,0.019613,-2.5589,-0.62736,0.38851
-0.99997,3.8442,-5.4133,-2.7655,-0.66584,-0.43616,0.26023
-0.99997,4.5111,-6.8254,-7.3746,-0.52473,-0.089797,0.11332
-0.99997,5.9428,-8.1591,-9.3163,0.15821,0.31124,-1.3225
-0.99997,5.5898,-10.434,-7.0019,1.2028,0.76205,-0.60445
-0.99997,3.9423,-11.69,3.0597,1.507,1.0916,0.13378
-0.99997,-1.3141,-9.787,1.8437,-0.64049,1.2272,0.21686
-0.99997,1.3729,-11.729,-1.1376,-1.7718,1.1942,0.16829
-0.95581,6.7077,-8.7868,-1.3925,0.12462,0.47189,0.16218
-0.99997,3.2558,-3.7854,2.7655,-1.8402,-0.46762,0.0085521
-0.99997,2.5497,-2.2751,3.0597,-0.86285,-0.39767,-0.99754
-0.99997,2.4909,-2.687,-0.098066,0.37202,-0.88637,0.049175
-0.99997,3.4323,-7.3942,-4.9033,0.66401,-0.82284,0.087354
-0.99997,5.4329,-9.5321,-4.6484,1.0357,-0.77122,-0.3937
-0.99997,3.2754,-8.2376,-2.6674,1.3729,-0.74495,-0.40042
-0.99997,3.0008,-8.1003,-2.9812,1.3961,-0.81337,-0.39156
-0.99997,4.3149,-6.845,-1.8633,1.1527,-0.89064,-0.27428
-0.99997,4.413,-5.5113,-1.2356,0.76969,-0.92729,-0.11576
-0.99997,4.2561,-5.2564,-0.78453,0.20922,-0.95753,-0.024129
-0.99997,3.7461,-5.7075,0.8826,-0.32345,-0.94348,0.11026
-0.99997,4.0011,-7.0019,-0.098066,-0.74251,-0.90378,0.090713
-0.99997,5.8448,-7.4531,-2.079,-0.99876,-0.85094,0.083078
-0.99997,6.5508,-8.1003,-2.589,-1.1148,-0.78741,0.080329
-0.99997,5.9232,-7.3354,-2.4909,-1.1848,-0.72601,0.11698
-0.84488,5.374,-7.1589,-2.5497,-1.2581,-0.66126,0.17562
-0.41916,5.8252,-7.2177,-2.589,-1.3604,-0.60812,0.19181
-0.019684,6.0017,-6.1193,-2.079,-1.438,-0.54062,0.15088
0.3403,5.531,-4.2365,0.37265,-1.631,-0.47403,0.040317
0.67444,4.9622,-2.4713,-1.0003,-1.6536,-0.4047,0.043371
0.94373,4.8837,-3.5696,-2.0986,-1.5559,-0.29841,0.064446
1,5.2956,-5.021,-2.2555,-1.332,-0.18631,0.053756
1,5.8252,-5.6486,-2.9616,-1.0589,-0.081856,0.064141
1,6.6293,-6.0409,-2.8047,-0.82039,0.0048869,0.070555
1,6.7666,-5.6486,-2.8243,-0.66401,0.068111,0.06017
1,6.0605,-5.7075,-2.8832,-0.60415,0.10049,0.043677
1,5.9036,-6.6685,-3.2166,-0.62156,0.10934,-0.1408
1,6.2174,-7.4531,-3.4912,-0.64721,0.11912,-0.14936
1,6.1978,-6.6489,-2.6086,-0.56444,0.13683,0.054672
1,5.8252,-5.7075,-1.8633,-0.28222,0.17501,0.059559
1,5.7663,-5.8252,-2.0202,0.14539,0.21594,0.05284
1,6.0605,-7.61,-2.7066,0.6918,0.24251,0.037874
1,5.8252,-8.4141,-3.5108,1.3399,0.31398,0.0067195
1,5.6094,-7.5315,-2.589,1.7055,0.39218,-0.067501
1,4.9818,-4.6287,-1.824,0.18448,1.4337,-0.53176
1,5.0406,-4.4914,-1.7652,0.18204,1.2462,-0.49786
1,5.6879,-6.1782,-2.6478,0.14936,1.0595,-0.14691
1,6.3155,-7.5903,-3.3735,0.12309,0.87445,-0.24832
1,6.6293,-6.5116,-3.0401,0.26176,0.72052,-0.37629
1,6.139,-4.6484,-2.2359,0.64385,0.63041,-0.48747
1,6.0997,-4.7072,-2.079,1.1362,0.5846,-0.53084
1,6.845,-5.5113,-2.3536,1.6612,0.52687,-0.53481
1,7.0216,-5.1975,-2.6674,2.5388,0.41569,0.05681
1,6.9431,-5.3348,-2.4909,2.3909,0.28191,0.14508
1,6.5508,-4.6484,-1.3337,2.1451,0.11484,-0.42822
1,5.4329,-3.8638,-0.52956,1.8952,-0.088575,-0.3427
1,4.9622,-3.6873,-0.31381,1.6722,-0.29902,-0.24771
1,5.0995,-4.8837,0.098066,1.4905,-0.5006,-0.15485
1,4.8053,-6.8254,0.8826,2.1359,-0.66493,-0.076969
1,4.6484,-9.0025,1.9417,2.456,-0.78007,-0.012217
0.9693,4.4718,-9.8066,2.589,1.6197,-0.8546,0.75259
0.85498,4.3345,-9.5909,3.6677,1.7926,-0.89156,0.76664
0.64688,3.4912,-9.5321,4.2953,1.9383,-0.8769,0.2306
0.32913,3.3146,-9.8459,3.5304,2.0299,-0.78771,0.28711
-0.055145,3.5892,-9.3752,2.432,2.0345,-0.64141,0.33781
-0.4501,2.7459,-7.8649,3.8442,1.9758,-0.49236,0.42516
-0.79825,2.0006,-6.9039,5.8252,1.408,-0.39431,0.55558
-0.99805,1.6475,-6.1978,7.0019,1.4658,-0.37782,0.67959
-0.99997,2.079,-5.7467,6.6489,-0.14661,1.8479,-0.055589
-0.99997,2.6086,-5.4525,5.8055,-0.56413,1.8048,-0.086743
-0.99997,3.2558,-5.6486,4.3149,-0.73823,1.8213,-0.13195
-0.99997,3.805,-6.4528,3.197,-0.72693,1.8277,-0.15821
-0.99997,4.1972,-6.492,2.8439,-0.59498,1.7685,-0.13256
-0.99997,4.1188,-5.9624,3.3735,-0.38698,1.6897,-0.11087
-0.99997,3.805,-6.0213,3.6873,-0.18173,1.6185,-0.10232
-0.99997,4.1972,-6.6685,3.1577,0.029016,1.5482,-0.07025
-0.99997,4.4718,-6.6685,3.1577,0.10751,0.45387,-0.11851
-0.89807,4.1972,-6.845,3.1381,-0.090408,0.38149,-0.053756
-0.74673,4.3542,-6.2174,2.942,-0.3204,0.23793,0.34117
-0.60992,4.9818,-6.1978,2.7851,-0.49938,0.032376,0.29016
-0.50266,5.2171,-6.237,2.589,-0.54703,-0.16677,0.19792
-0.3981,5.4329,-6.0409,2.9224,-0.39767,-0.28283,0.077885
-0.30038,4.7856,-5.9624,3.5108,-0.084299,-0.26053,-0.053451
-0.19464,4.9426,-5.7467,4.5699,0.23732,-0.13347,-0.12981
-0.093689,4.9033,-5.5898,5.276,0.41875,-0.018326,-0.069944
-0.017181,5.1975,-5.2564,5.7663,0.45418,0.012217,-0.047647
0.041077,4.8445,-4.5699,6.237,0.39218,-0.014661,-0.028405
0.094818,4.8837,-3.8442,6.5116,0.2865,-0.056505,-0.076053
0.12946,4.6876,-4.2953,6.6489,0.17929,-0.091935,-0.11668
0.16418,5.0602,-4.7072,6.4332,0.076053,-0.11545,-0.1069
0.20493,4.7268,-4.4718,6.845,-0.041844,-0.13195,-0.089797
0.25458,4.3149,-4.1972,7.4334,-0.20892,-0.135,-0.083383
0.28726,3.6873,-4.0207,7.8649,0.56627,0.77702,0.38759
0.31152,3.4323,-4.4718,7.6884,0.43127,0.69272,0.36835
0.32474,3.2558,-4.4914,7.7865,0.37721,0.62766,0.31612
0.35172,3.0793,-4.7856,7.8061,0.42364,0.62889,0.26848
0.37595,2.6086,-4.4522,8.0022,0.53023,0.6915,0.22602
0.40323,1.9613,-4.9622,9.0221,0.64141,0.7648,0.23885
0.40512,2.2163,-6.5312,9.787,0.69028,0.80146,0.30879
0.43652,3.3146,-7.2961,8.218,0.64843,0.79382,0.37415
0.47101,3.8638,-5.9624,6.8254,0.53848,0.74862,0.30146
0.48535,3.0008,-5.0406,7.3158,0.40256,0.67562,0.33139
0.48779,2.8047,-4.4914,7.3158,0.28405,0.6072,0.34941
0.47928,3.1774,-4.4914,7.1785,0.22235,0.55161,0.33445
0.45001,3.5304,-4.4914,7.1785,0.22327,0.50671,0.32529
0.3978,3.5696,-4.5699,7.4334,0.25259,0.48533,0.31673
0.32599,3.7069,-4.8837,7.3746,0.26756,0.48258,0.31521
0.23535,3.805,-5.4525,7.2373,0.25473,0.48136,0.30604
0.14218,3.9423,-5.1975,7.1589,1.7058,-1.1179,-0.4215
0.081818,3.5304,-4.668,7.4531,2.1829,-1.087,-0.31093
0.019928,3.4127,-4.0207,7.708,2.9041,-1.0388,-0.84269
-0.022949,2.9224,-2.942,7.3158,3.904,-0.9331,-0.79351
-0.082153,2.2359,-2.9224,6.3351,5.1151,-0.78496,-0.76297
-0.13998,2.6086,-4.3345,4.8837,6.4217,-0.62064,-0.70708
-0.20352,3.3735,-5.1779,2.9028,1.1197,-0.43402,-0.60812
-0.30301,3.4127,-6.8058,0.47072,1.4224,-0.22633,-0.50977
-0.41418,4.5111,-11.788,-2.0986,8.068,0.041233,0.68264
-0.55191,5.1975,-13.435,-2.8047,8.0375,0.34392,0.73395
-0.67975,4.1188,-11.14,-0.54917,9.0002,0.61881,-0.13714
-0.78912,3.3146,-7.6492,1.824,9.6263,0.78527,0.0956
-0.83798,2.8635,-5.7663,3.2558,9.9412,0.84819,0.33445
-0.85944,2.6086,-5.3348,3.4127,9.9669,0.95845,0.49847
-0.85532,2.7066,-5.2956,2.9028,9.666,1.1368,0.55833
-0.84305,2.7655,-5.2368,2.3536,9.002,1.2645,0.59834
-0.81104,3.0989,-6.1782,1.4906,-1.9297,-0.51435,-0.78221
-0.79153,3.5304,-7.7669,0.23536,-2.6035,-0.69455,-0.82039
-0.75702,3.8638,-8.5514,-1.0395,-3.1829,-0.87323,-0.53787
-0.72107,4.0403,-8.2572,-1.7848,-3.5934,-1.029,-0.57635
-0.69205,4.1776,-7.5511,-2.6674,-3.8188,-1.1481,-0.61453
-0.6322,4.2561,-7.7669,-2.9028,-3.8649,-1.2449,-0.65118
-0.58087,4.2561,-7.1785,-2.7655,-3.678,-1.3109,-0.69455
-0.53717,4.06,-6.5901,-2.432,-3.3234,-1.3479,-0.7419
-0.47729,4.5111,-6.492,-3.2166,-2.905,-1.3815,-0.94837
-0.43622,5.1975,-7.0216,-4.5503,-2.4511,-1.3888,-0.90011
-0.40408,5.6879,-8.9633,-5.3937,-1.9878,-1.3702,-0.86437
-0.36548,5.9232,-9.3752,-5.4917,-1.4789,-1.3292,-0.90194
-0.30826,5.9232,-6.8647,-4.6287,-0.93371,-1.2746,-0.93187
-0.32681,6.0605,-3.8638,-3.0401,-0.36744,-1.2269,-0.96059
-0.33777,6.0605,-2.7459,-0.86299,0.21411,-1.1762,-0.98105
-0.34631,6.4528,-1.8437,1.5102,0.72449,-1.1393,-0.97861
-0.36206,6.0017,-1.824,3.5304,-0.61453,-0.040012,-0.135
-0.38541,5.374,-1.8829,4.5503,-0.6466,-0.053451,-0.12248
-0.42587,5.276,-2.5693,5.021,-0.61239,-0.052534,-0.10018
-0.46216,5.0995,-4.1384,5.1779,-0.54031,-0.023824,-0.1124
-0.45978,4.668,-5.0798,5.7467,-0.44715,0.0009163,-0.12248
-0.41699,4.5699,-5.1975,6.3351,-0.36591,0.043677,-0.13164
-0.33322,4.4718,-4.6484,6.5312,-0.30024,0.069333,-0.13744
-0.24545,4.3345,-3.7854,7.0608,-0.25748,0.087354,-0.13622
-0.17361,3.6285,-3.3146,8.0611,0.86163,1.0479,0.10537
-0.13937,3.2362,-2.9028,8.6887,0.74526,0.95051,0.09499
-0.15872,2.9224,-2.4517,8.6887,0.57482,0.82039,0.24618
-0.20493,3.0793,-2.2555,8.7279,0.33964,0.64874,0.24648
-0.3118,2.9224,-1.824,9.2575,0.093157,0.46762,0.21594
-0.47885,2.4517,-1.9613,9.8851,-0.10904,0.32162,0.16982
-0.68924,2.0594,-2.2948,10.748,-0.2474,0.22358,0.13622
-0.92203,1.8633,-2.7459,11.101,-0.31887,0.17837,0.11729
-0.99997,1.8633,-2.8832,10.003,-0.33964,0.16982,0.025045
-0.99997,2.1575,-2.8832,8.8848,-0.32529,0.18784,-0.0030543
-0.99997,2.2359,-2.9028,8.1199,-0.29963,0.21166,0.087965
-0.99997,2.1771,-2.8243,8.0807,-0.27794,0.22907,0.086132
-0.99997,1.9613,-2.8243,8.1787,-0.2584,0.24496,0.080023
-0.99997,2.1575,-2.8243,8.3749,-0.25351,0.2584,0.071166
-0.99997,1.824,-2.7459,8.4729,-0.2868,0.25565,0.065057
-0.99997,1.8633,-2.942,8.8456,-0.33506,0.23182,0.050091
-0.99997,1.9809,-2.9812,9.0221,-0.3821,0.19303,-0.092546
-0.99997,1.9613,-2.8243,8.7475,-0.38637,0.15149,-0.096517
-0.99997,2.0006,-2.7459,8.316,-0.38118,0.11484,-0.032681
-0.99997,2.0594,-3.0989,8.1787,-0.37629,0.082772,-0.053451
-0.99997,2.1378,-3.5304,8.1003,-0.37049,0.044899,-0.065363
-0.99997,2.0594,-3.6873,8.2572,-0.38943,0.016493,-0.072693
-0.99997,1.9809,-3.5304,8.4337,-0.45235,-0.0048869,-0.07758
-0.99997,1.6475,-3.3735,8.5514,-0.53451,-0.026573,-0.083383
-0.99997,1.6671,-3.55,8.4141,-0.055589,0.10751,0.045509
-0.99997,1.6867,-3.6285,8.2768,-0.051924,0.099571,0.055589
-0.99997,1.9613,-3.55,8.1003,-0.049175,0.090103,-0.022297
-0.99997,2.0006,-3.6285,8.0807,-0.045509,0.079107,-0.01069
-0.99997,2.0202,-3.7265,8.1787,-0.040928,0.069944,0.0024435
-0.99997,2.0006,-3.7658,8.2376,-0.036652,0.059254,0.015272
-0.99997,1.9025,-3.5696,8.316,-0.031765,0.047037,0.025962
-0.99997,2.0006,-3.6873,8.1787,-0.030238,0.034514,0.035736
-0.99997,2.0594,-3.8638,8.0807,-0.030238,0.023518,0.09499
-0.99997,2.0006,-3.6873,8.1003,-0.032376,0.014661,0.098044
-0.99997,1.9221,-3.7265,8.0807,-0.034819,0.0018326,0.06353
-0.99997,1.9809,-3.6873,8.0807,-0.031154,-0.009163,0.069333
-0.99997,1.9221,-3.7854,8.1591,-0.02474,-0.013744,0.072998
-0.99997,1.7456,-3.6873,8.1199,-0.016799,-0.018021,0.08094
-0.99997,1.824,-3.6873,8.0611,-0.010385,-0.021991,0.086132
-0.99997,1.9221,-3.9423,8.0022,-0.009163,-0.024435,0.089797
-0.99997,1.9613,-3.7658,8.0611,-0.051618,-0.028711,0.071471
-0.99997,1.8044,-3.6873,7.963,-0.059254,-0.034514,0.054367
-0.99997,1.7064,-3.8246,8.1003,-0.061697,-0.041233,0.10171
-0.99997,1.9221,-3.7265,8.0807,-0.061087,-0.045204,0.10385
-0.99997,1.9809,-3.6873,8.0807,-0.053451,-0.047037,0.10446
-0.95538,1.6867,-3.6285,8.2572,-0.034514,-0.053756,0.10354
-0.88718,1.8633,-3.7069,8.1787,-0.017715,-0.062614,0.098655
-0.8252,1.9025,-3.8638,8.218,-0.037568,-0.068111,0.087048
-0.78232,1.6867,-3.8834,8.4926,-0.032376,-0.074526,-0.24648
-0.71262,1.9613,-4.0207,8.7083,-0.12614,-0.087354,-0.31857
-0.65894,2.1575,-3.8246,8.9437,-0.20678,-0.10446,0.025962
-0.57596,2.4713,-3.7265,9.3359,-0.22541,-0.15913,-0.0082467
-0.44537,2.4517,-4.4522,9.5909,-0.22052,-0.25015,-0.040623
-0.27344,2.432,-5.1191,9.3359,-0.15333,-0.35064,-0.081856
-0.043701,2.7851,-4.0207,8.2768,-0.017715,-0.44654,-0.11668
0.16376,2.4909,-2.2948,7.7865,-0.009163,-0.51129,-0.17074
0.31512,2.0202,-1.9613,8.0218,0.091324,0.16524,0.045815
0.42752,2.6282,-3.3931,7.0608,0.10965,0.197,0.085216
0.51923,3.2362,-4.3345,6.3547,0.12675,0.20556,-0.19426
0.56689,3.7069,-4.4914,6.6097,0.13134,0.19914,-0.14539
0.59808,3.5304,-4.0403,7.4334,0.12645,0.19487,-0.10537
0.60822,3.3146,-4.0207,8.0807,0.10782,0.18845,-0.071777
0.6087,3.3146,-4.0011,8.2572,0.057727,0.1854,-0.029016
0.59238,3.3146,-3.6873,8.1003,-0.0076358,0.19578,0.01405
0.58374,3.3931,-3.4716,7.9238,-0.13836,0.21686,0.3375
0.5668,3.5696,-3.4519,7.4531,-0.23518,0.24923,0.27611
0.55048,3.7069,-3.3931,7.0019,-0.34208,0.28741,0.13347
0.53571,3.6873,-3.0008,6.6489,-0.42333,0.31979,0.17868
0.51596,2.9616,-2.9028,7.2961,-0.4218,0.34239,0.22113
0.50198,2.3732,-3.4519,7.6884,-0.35583,0.36224,0.26756
0.46506,2.2948,-3.8638,7.61,-0.31826,0.36591,0.31062
0.40851,2.1575,-3.6873,7.0608,-0.28344,0.32284,0.34239
0.35263,1.7456,-3.4519,7.3158,-0.10018,0.25748,0.085827
0.28235,1.4318,-3.5108,7.6296,0.26481,0.23702,0.053451
0.22128,1.5887,-3.7069,7.9042,0.65821,0.30299,0.22113
0.16263,1.7456,-3.3735,7.4727,0.8656,0.39523,0.22999
0.10654,1.824,-2.8243,7.0608,0.82894,0.42302,0.25381
0.049713,1.7456,-2.5105,6.9627,0.55405,0.37782,0.23488
-0.0018616,1.9025,-2.8243,7.2373,0.17074,0.2529,0.1912
-0.049713,1.8437,-4.5699,9.2183,-0.14508,0.1124,0.14478
-0.079163,3.4127,-6.1978,10.062,0.23121,-0.098655,-0.26909
-0.116,4.1972,-5.7271,9.1594,0.30727,0,-0.2416
-0.19327,3.6285,-3.6285,8.5514,0.34758,0.079412,-0.4215
-0.28253,2.6282,-1.8829,8.6299,0.32101,0.11332,-0.35644
-0.3739,2.4713,-1.824,8.316,0.23366,0.11087,-0.30513
-0.44534,2.5497,-2.9028,8.1787,0.15485,0.099876,-0.29993
-0.5127,2.687,-4.1972,8.316,0.10446,0.10263,-0.30665
-0.58133,2.4909,-3.9423,8.2768,0.083689,0.12828,-0.28772
-0.64737,2.2359,-3.5304,8.0807,-0.1518,-0.058948,0.026878
-0.74686,2.1378,-3.197,8.3749,-0.13134,-0.062614,0.026267
-0.80634,2.1575,-3.197,8.4337,-0.095295,-0.060781,0.030543
-0.8855,2.1575,-3.5304,8.4141,-0.055283,-0.054367,0.029322
-0.97479,2.5497,-3.6873,8.0807,-0.024129,-0.042761,0.0281
-0.99997,2.6086,-3.5696,8.0611,-0.0064141,-0.029627,0.028405
-0.99997,2.6478,-3.5304,8.1787,-0.16768,-0.019853,0.030238
-0.99997,2.5497,-3.6088,8.0807,-0.16218,-0.013134,0.029932
-0.99997,2.6086,-3.6285,8.0807,-0.021075,-0.010996,0.018021
-0.99997,2.4517,-3.6088,8.1003,-0.025351,-0.013439,0.015882
-0.99997,2.6086,-3.7854,7.9434,-0.024129,-0.013744,0.025962
-0.99997,2.2948,-3.6285,8.0807,-0.015882,-0.011301,0.025351
-0.99997,2.6282,-3.55,8.0022,-0.009163,-0.0094684,0.024435
-0.99997,2.3928,-3.5304,8.0611,-0.0082467,-0.0067195,0.021991
-0.99997,2.4517,-3.6873,7.9434,-0.0048869,-0.0012217,0.019548
-0.99997,2.5301,-3.8638,7.9434,-0.014661,0.0051924,0.018631
-0.99997,2.4517,-3.8638,7.7865,-0.024435,0.0076358,0.0030543
-0.99997,2.5497,-3.8834,7.9042,-0.029322,0.0058032,0.0033598
-0.99997,2.4713,-3.8246,7.8649,-0.027184,0.0054978,0.012828
-0.99997,2.7459,-4.0207,7.7669,-0.021686,0.0079412,0.0085521
-0.99997,2.432,-4.0011,7.8061,-0.016799,0.011912,0.0076358
-0.99997,2.7459,-3.9815,7.7865,-0.012217,0.015577,0.007025
-0.99997,2.7066,-3.9227,7.7865,-0.01069,0.019242,0.0048869
-0.99997,2.687,-3.9423,7.8649,-0.015577,0.023824,0.0030543
-0.99997,2.6478,-3.9423,7.9238,-0.21289,-0.043677,0.02474
-0.99997,2.4713,-3.9227,7.7865,-0.21808,-0.052534,0.029016
-0.99997,2.6478,-3.9423,7.8649,-0.20892,-0.053145,-0.0012217
-0.99997,2.6478,-3.9423,7.9042,-0.19761,-0.0562,-0.00030543
-0.99997,2.5497,-3.9815,7.9434,-0.18784,-0.055283,0.01069
-0.99997,2.5497,-4.0011,7.7669,-0.1744,-0.053451,0.013439
-0.99997,2.687,-3.8442,7.9042,-0.16677,-0.052534,0.017715
-0.99997,2.6086,-3.8638,7.8649,-0.16799,-0.054978,0.021991
-0.99997,2.6086,-3.9423,7.8649,-0.0033598,0.030849,-0.013134
-0.99997,2.4517,-4.2561,7.8649,-0.0088575,0.023824,-0.016188
-0.99997,2.6282,-3.8638,7.8649,-0.015577,0.024435,-0.0054978
-0.99997,2.3928,-3.8638,7.9042,-0.019548,0.025045,-0.0064141
-0.99997,2.5497,-3.8638,7.7865,-0.023824,0.023518,-0.0082467
-0.99997,2.687,-4.0796,7.8061,-0.027794,0.019242,-0.010996
-0.99997,2.4909,-3.9423,7.708,-0.02474,0.01405,-0.01405
-0.99997,2.4713,-3.8246,7.8061,-0.01741,0.011606,-0.012828
-0.99997,2.3928,-3.8638,7.9042,-0.015272,0.013744,0.0054978
-0.99997,2.432,-3.8834,7.9434,-0.02138,0.016799,0.0097738
-0.99997,2.6478,-3.8638,7.8649,-0.035125,0.013744,-0.017715
-0.98849,2.4909,-3.8442,7.8649,-0.047342,0.009163,-0.016493
-0.97708,2.6086,-3.8638,7.9042,-0.057116,0.0067195,-0.012828
-0.96823,2.3732,-3.9423,8.0022,-0.062919,0.010079,-0.0076358
-0.9487,2.687,-3.7658,7.9238,-0.064141,0.014355,-0.0015272
-0.91412,2.3732,-3.9227,7.9434,-0.055894,0.014966,0.0012217
-0.88171,2.4909,-4.0207,7.9042,-0.03207,0.011912,0.0079412
-0.86374,2.6086,-3.9423,7.8453,-0.044899,0.007025,0.0033598
-0.83673,2.7459,-3.8638,7.7865,-0.080634,-0.010996,0.015882
-0.80511,2.4909,-3.8834,7.8061,-0.071471,-0.0036652,0.012217
-0.7674,2.6086,-3.9423,7.8453,-0.040928,0.010996,0.0064141
-0.73486,2.4517,-3.8834,7.9042,-0.033903,0.011301,0.012523
-0.6951,2.6282,-4.0403,7.8453,-0.032681,0.012523,0.007025
-0.65268,2.5497,-3.8638,7.8649,-0.0281,0.017104,0.0061087
-0.62503,2.4909,-3.8442,7.8649,-0.026267,0.02138,-0.0085521
-0.58459,2.5301,-3.9423,7.8453,-0.023824,0.025656,-0.0079412
-0.55624,2.5497,-3.9423,7.9434,-0.01741,0.030238,-0.00030543
-0.52124,2.589,-3.7658,7.9042,-0.0076358,0.035736,-0.0024435
-0.49957,2.6478,-3.9423,7.9238,0.0024435,0.039095,-0.0054978
-0.46808,2.4909,-3.8834,7.8453,0.010385,0.039095,-0.0085521
-0.44809,2.6478,-4.0207,7.7473,0.0079412,0.037874,-0.010079
-0.4248,2.334,-3.9423,7.8649,0.0009163,0.035736,-0.0088575
-0.40079,2.6478,-3.8638,7.8649,0.416,-0.57879,-0.45601
-0.37616,2.6086,-3.7658,8.0022,0.63897,-0.40623,-0.48228
-0.33844,2.432,-3.7658,7.8649,0.5904,-0.25595,-0.70311
-0.29791,2.4517,-3.8834,7.9042,0.29963,-0.16982,-0.67165
-0.2699,2.6086,-3.9423,7.8061,-0.10996,-0.16585,-0.63072
-0.23978,2.5497,-3.9423,7.7473,-0.52534,-0.25015,-0.58124
-0.21689,2.4517,-4.0207,7.61,-0.51771,-0.42028,-0.52901
-0.17999,2.687,-4.0207,7.6884,-0.011606,-0.62919,-0.47892
-0.16187,2.5497,-4.0011,7.8649,-0.028405,-0.0045815,-0.12981
-0.15729,2.8047,-4.0796,7.8061,0.00061087,0.00061087,-0.1799
-0.15564,2.687,-4.0011,7.7865,0.0281,0.013439,-0.072388
-0.15735,2.7459,-3.9423,7.7473,0.047342,0.027794,-0.082161
-0.16446,2.6086,-4.0011,7.7669,0.056505,0.038179,-0.091324
-0.19907,2.4517,-4.0011,7.8649,0.058948,0.042455,-0.094684
-0.21225,2.687,-4.0796,7.8061,0.064141,0.025656,-0.099571
-0.24219,2.7655,-4.1384,8.2572,0.073304,-0.022602,-0.10904
-0.26685,2.7851,-4.5111,8.316,0.14203,-0.073609,-0.41844
-0.26712,2.9616,-5.1779,8.6887,0.30391,-0.10354,-0.38271
-0.21771,3.7069,-4.9426,8.3945,0.51618,-0.12553,-0.23457
-0.094543,4.3542,-3.6873,8.218,0.73976,-0.12584,-0.30604
0.085663,3.8834,-2.5497,8.8652,0.91874,-0.091019,-0.40409
0.23724,3.1774,-1.9809,8.5514,0.99235,-0.026573,-0.48228
0.37891,4.4326,-1.9417,8.7475,0.93065,0.022297,-0.50305
0.51102,4.8053,-4.0207,8.316,0.75136,0.026878,-0.47342
0.65225,5.4133,-5.276,7.4531,-0.13347,-0.027489,-0.7419
0.82666,5.8252,-5.1191,7.0216,-0.63561,-0.11606,-0.72571
0.9751,5.2564,-3.6285,7.5315,-1.0867,-0.1909,-0.39065
1,4.6876,-1.8829,8.4337,-1.2853,-0.36682,-0.42608
1,4.3345,-0.94144,8.9437,-1.2517,-0.61148,-0.48991
1,4.6287,-1.5298,8.4926,-0.96731,-0.74953,-0.57727
1,5.0406,-2.6086,7.6884,0.49663,-0.79474,-0.6576
1,5.5898,-2.6086,7.4334,0.21502,-0.72418,-0.7254
1,5.2956,-1.118,7.7669,-0.30482,0.11301,0.019242
1,4.3149,-0.41188,8.0022,-0.24771,0.034208,-0.018326
1,4.6876,-2.1967,7.0019,-0.3094,-0.041844,0.018021
1,5.1583,-4.4914,5.6682,-0.37874,-0.11393,0.030849
1,5.4329,-6.6881,4.0403,-0.43982,-0.17379,0.044593
1,5.6879,-6.7077,2.8832,-0.46334,-0.17776,0.048869
1,5.2956,-5.1975,3.1381,-0.43035,-0.14233,0.036346
1,3.7069,-4.0011,5.4917,-0.37782,-0.11148,0.029627
1,1.6671,-3.8638,7.963,0.43982,0.0030543,0.36713
1,1.0591,-3.5304,8.4141,0.41875,-0.027184,0.40684
1,0.98067,-2.6282,8.7475,0.36744,-0.065668,0.32406
0.87112,0.17652,-2.7655,9.2575,0.23366,-0.13836,0.3427
0.39526,0.27459,-3.9423,8.9437,0.01405,-0.26084,0.37263
-0.061584,0.80415,-4.1776,8.5514,-0.2193,-0.37324,0.39279
-0.44971,1.3533,-3.4519,8.3357,-0.41814,-0.43035,0.38026
-0.74158,1.5495,-2.6674,8.0611,-0.5568,-0.44685,0.35888
-0.94614,2.0594,-2.0986,8.2572,-0.65515,-0.42791,0.40592
-0.99997,2.4517,-2.3732,8.1787,-0.67837,-0.3934,0.32895
-0.99997,3.0989,-2.7262,7.8453,-0.69089,-0.3598,0.44838
-0.99997,3.3931,-3.1381,7.7473,-0.69333,-0.32223,0.47678
-0.99997,3.7069,-3.5108,7.7865,-0.68845,-0.27214,0.489
-0.99997,3.6285,-3.6873,7.6492,-0.68447,-0.2251,0.48442
-0.94412,3.7461,-4.0992,7.6884,-0.6411,-0.1857,0.48075
-0.85822,3.3735,-4.7072,7.9434,-0.5455,-0.14233,0.45876
-0.77228,3.8638,-4.9818,7.963,-0.405,-0.094379,0.047037
-0.70569,3.5696,-4.7072,7.8649,-0.25962,-0.010079,0.019242
-0.67041,3.3735,-3.7854,8.0022,-0.14691,0.080329,0.24557
-0.66998,3.4323,-3.0401,8.1787,-0.090713,0.16432,0.1912
-0.70856,3.3735,-2.8243,8.5318,-0.084299,0.22724,0.14447
-0.76233,3.3931,-3.2558,8.7083,-0.1014,0.25137,0.10537
-0.83136,3.55,-4.0796,7.9238,-0.14905,0.22938,0.078496
-0.86304,3.4912,-3.9815,7.4334,-0.21533,0.17685,0.066584
-0.87811,3.0793,-4.1972,7.3158,-0.1518,-0.007025,-0.0097738
-0.83612,3.1774,-4.0403,7.3942,-0.18418,-0.065668,0.024129
-0.75363,3.0793,-4.1384,7.8649,-0.20464,-0.096517,-0.27061
-0.65286,3.3735,-4.158,8.0022,-0.22602,-0.12278,-0.20769
-0.54883,3.3343,-4.158,7.5903,-0.25534,-0.15577,-0.15241
-0.45325,3.9423,-4.2561,6.9039,-0.28924,-0.18173,-0.12309
-0.34946,4.0403,-4.0011,6.4332,-0.3204,-0.19456,-0.098655
-0.26816,3.6481,-4.2953,6.4528,-0.33659,-0.20525,-0.062919
-0.19748,3.6285,-4.158,7.0019,-0.27153,-0.23152,0.028711
-0.11401,3.55,-3.8442,7.4531,-0.219,-0.26206,0.0079412
-0.068237,3.7069,-3.0989,8.0022,-0.16799,-0.26909,0.029016
-0.014526,3.55,-2.7459,8.6299,-0.12095,-0.25565,0.024435
0.014923,3.4323,-2.8243,9.1202,-0.075136,-0.23885,0.025656
-0.0075989,3.5892,-2.9028,8.7083,-0.05284,-0.23396,0.033598
-0.095062,3.903,-2.6086,8.4141,-0.33964,-0.23335,0.046731
-0.22571,3.4912,-2.7459,7.9434,-0.31887,-0.23488,0.046731
-0.36667,3.3735,-2.7459,7.9042,0.0024435,-0.23976,-0.054672
-0.52161,3.6285,-2.8832,7.9238,0.079107,-0.24007,-0.027794
-0.65506,3.3146,-3.295,7.8649,0.16096,-0.21564,0.0018326
-0.77246,3.5696,-3.7658,7.6884,0.22633,-0.16677,-0.011301
-0.84683,3.8442,-3.8834,7.5903,0.27184,-0.11026,-0.023518
-0.9097,3.3931,-3.9815,7.5903,0.30604,-0.057727,-0.031765
-0.94772,4.1972,-4.0011,7.6296,-0.056505,-0.015882,-0.053145
-0.96292,4.0403,-4.1776,7.1589,-0.045815,0.019548,-0.07025
-0.96744,4.1188,-4.0796,7.0019,0.31796,0.046731,0.019548
-0.96942,4.2169,-3.8442,7.1589,0.30055,0.064446,0.039095
-0.95471,4.4326,-3.3735,7.2373,0.27611,0.072998,-0.016493
-0.92548,4.1972,-3.2558,7.1392,0.25748,0.07086,-0.0042761
-0.9071,4.4326,-3.2558,7.4334,0.26237,0.064752,0.0012217
-0.87897,4.1188,-3.3146,7.61,0.28314,0.058948,0.0076358
-0.85229,4.3345,-3.6285,7.5903,0.32773,0.071777,0.014355
-0.81857,3.9423,-3.3931,7.7865,0.32956,0.0956,0.012217
-0.79871,3.8834,-3.4519,7.7865,0.087354,0.075136,0.098044
-0.75949,3.5892,-3.6285,7.963,0.068417,0.065973,0.10293
-0.72025,3.6873,-3.2362,7.7865,0.058032,0.059254,0.02474
-0.69089,3.903,-3.1381,7.9238,0.062003,0.063835,0.033903
-0.66647,3.6285,-3.0793,7.8649,0.072388,0.067501,0.047342
-0.6467,3.805,-3.0401,7.9434,0.073915,0.059254,0.067806
-0.63275,3.805,-3.0597,7.963,0.064141,0.046426,0.087965
-0.61414,3.7069,-3.1381,8.1787,0.052534,0.034819,0.096822
-0.60056,3.805,-3.0597,8.0611,0.032987,0.02474,0.12828
-0.5903,3.7461,-3.2362,7.7865,0.026267,0.010079,0.13225
-0.58313,4.0403,-3.3539,7.6884,0.023518,-0.00061087,0.11301
-0.56186,4.0207,-3.2558,7.7473,0.014355,-0.011606,0.11606
-0.52957,3.9423,-3.295,7.6884,0.0024435,-0.023213,0.11698
-0.49753,3.8638,-3.2362,7.7865,-0.0061087,-0.029627,0.11454
-0.46542,3.5892,-3.0401,7.9434,-0.016799,-0.036346,0.11026
-0.44556,3.8442,-2.942,8.0022,-0.022907,-0.045204,0.11606
-0.42206,3.6873,-2.9028,8.0022,-0.020464,-0.04948,0.019548
-0.40778,3.6481,-2.8243,7.9238,-0.01405,-0.045815,-0.0085521
-0.38452,3.805,-2.9028,7.963,-0.017104,-0.041844,0.12859
-0.35873,3.5892,-2.9224,8.1787,-0.029016,-0.04612,0.13225
-0.33777,3.8638,-2.8243,8.1787,-0.044899,-0.055589,0.13378
-0.31116,3.8442,-2.9028,8.2572,-0.058948,-0.065973,0.10934
-0.29529,3.4716,-2.9028,8.2572,-0.064141,-0.067806,0.067501
-0.27209,3.6481,-3.0008,8.1199,-0.045204,-0.060781,0.040623
-0.27307,3.8638,-2.8439,8.0807,0.096517,0.042761,0.013439
-0.26785,3.5892,-2.942,7.9238,0.11698,0.057116,0.018937
-0.26926,3.55,-2.9224,7.9434,0.13347,0.074831,0.007025
-0.26318,3.4912,-3.3146,7.9434,0.14783,0.088575,0
-0.26242,3.55,-3.3539,8.0807,0.15149,0.095906,0.0012217
-0.26196,3.8442,-3.6873,7.9434,0.14172,0.09896,-0.00030543
-0.2641,3.7265,-3.6088,7.8649,0.12553,0.093768,-0.0009163
-0.27325,3.8638,-3.1381,7.8649,0.10721,0.083994,0.0058032
-0.28571,3.8638,-2.942,8.0022,0.0030543,-0.0076358,0.023518
-0.29831,3.9423,-2.8832,8.0022,0.0045815,-0.0097738,0.021075
-0.30231,3.8638,-2.8635,7.8649,0.0033598,-0.014661,-0.020159
-0.30438,3.8834,-3.0793,7.7865,0.0009163,-0.018631,-0.0094684
-0.31381,3.6285,-2.8243,7.9238,-0.0079412,-0.015577,-0.0045815
-0.32117,3.5892,-2.7851,7.9434,-0.022602,-0.013134,-0.0054978
-0.3342,3.7461,-2.9028,7.9434,0.0051924,-0.01405,0.0048869
-0.34982,3.8638,-2.7655,7.8649,-0.00061087,-0.017104,0.018631
-0.33832,3.9619,-2.9812,7.8649,-0.053451,-0.02474,0.009163
-0.35599,4.06,-3.2362,7.7865,-0.037263,-0.027184,0.0027489
-0.3627,4.0207,-3.2362,7.8453,-0.012217,-0.018631,0.016493
-0.38281,3.7265,-3.2362,7.8649,0.016188,-0.0030543,0.014661
-0.3959,3.6873,-3.0008,8.1199,0.04612,0.013439,0.019242
-0.40695,3.55,-2.9224,8.218,0.064446,0.027184,0.020464
-0.40604,3.3146,-2.8832,8.3945,-0.042455,0.041233,0.012523
-0.39691,3.55,-2.9028,8.3749,-0.05284,0.053451,0.0067195
-0.37897,3.3931,-2.9028,8.3945,0.022297,0.14813,-0.045815
-0.37112,3.5696,-2.8439,8.1787,0.05284,0.16829,-0.051007
-0.35498,3.5696,-2.7655,8.1787,0.062919,0.17654,-0.0067195
-0.3418,3.6285,-2.7459,8.2376,0.05681,0.16921,-0.015882
-0.34454,3.4912,-2.7459,8.1003,0.048564,0.15424,-0.020464
-0.32938,3.5696,-2.9028,8.0611,0.036346,0.13592,-0.018021
-0.31503,3.5696,-2.8832,8.1787,0.022297,0.11515,-0.021991
-0.30948,3.7069,-3.0008,8.0807,0.011606,0.097738,-0.034208
-0.30286,3.6481,-2.9028,8.0611,0.0067195,0.080023,-0.031765
-0.29105,3.8638,-2.9028,7.9238,0.0045815,0.055894,-0.025656
-0.25525,3.8638,-3.0401,7.9238,0.002138,0.041233,-0.055894
-0.23615,3.5696,-3.0793,8.1003,0.0015272,0.030849,-0.065363
-0.20468,3.805,-3.1381,8.0022,0.0024435,0.02138,-0.064141
-0.18222,3.5696,-3.0401,8.0022,0.0030543,0.012828,-0.054367
-0.16144,3.7461,-3.0597,7.9434,0.0064141,0.0045815,-0.047342
-0.14108,3.5696,-2.9224,7.9434,0.0094684,-0.0027489,-0.040623
-0.12833,3.5696,-2.8832,8.218,-0.0030543,0.062308,-0.069028
-0.088135,3.6285,-3.0989,8.4337,-0.032376,0.047953,-0.04215
-0.050385,3.6285,-2.687,8.1199,-0.018326,0.048564,-0.010079
-0.033508,3.4127,-2.6086,8.218,0.03146,0.07422,-0.026878
-0.024841,3.5696,-2.4517,8.2572,0.089492,0.11973,-0.043982
-0.021271,3.5304,-2.7459,8.1787,0.15027,0.17349,-0.058643
-0.016144,3.805,-2.942,7.963,0.21502,0.22449,-0.058948
-0.016571,3.6481,-2.9028,8.1591,0.27245,0.26786,-0.064446
-0.015991,3.8638,-2.589,8.0022,0.30391,0.31429,-0.15302
-0.021851,4.0207,-2.5105,7.963,0.24221,0.35797,-0.11332
-0.025818,3.9423,-2.7459,7.8453,0.095906,0.36285,0.002138
-0.023621,3.6285,-2.942,8.2572,-0.058643,0.3204,0.019853
-0.02298,3.0597,-3.2558,8.4729,-0.10629,0.25381,-0.00030543
-0.013947,2.9224,-3.0008,8.4141,-0.010079,0.21838,-0.026878
-0.02121,2.6086,-2.2751,8.9044,0.14142,0.21014,-0.048258
-0.027313,2.8635,-1.9613,9.0417,0.30604,0.16371,-0.090103
-0.047516,2.9224,-2.0594,8.8652,0.25595,0.21502,-0.012523
-0.064484,3.3735,-2.432,8.3749,0.22724,0.16188,-0.013439
-0.073425,3.4912,-2.432,8.2572,0.1463,0.082161,0.014966
-0.069305,3.5304,-2.9028,7.8453,0.051618,0.0033598,0.018631
-0.057129,3.7854,-3.0008,7.963,-0.01741,-0.04612,0.010385
-0.029205,4.06,-2.6086,8.316,-0.053145,-0.061697,-0.00061087
-0.0056763,3.5696,-2.4124,8.4926,-0.07758,-0.064752,-0.0054978
0.017303,3.3931,-2.4713,8.1591,-0.12004,-0.069944,-0.0082467
0.037842,3.4127,-2.8832,7.6296,-0.17776,-0.079718,0.036652
0.078674,3.7069,-3.0793,7.61,-0.14386,-0.082772,0.016188
0.14532,3.6285,-3.197,7.7865,-0.065057,-0.059254,-0.010996
0.21457,3.5696,-2.6086,8.5514,0.015272,-0.0097738,-0.0079412
0.28198,3.6481,-2.2751,8.4337,0.069639,0.040012,0.0094684
0.33029,3.3735,-2.1575,8.6887,0.097738,0.071777,0.033292
0.36078,2.2948,-3.197,8.6299,0.086437,0.08827,0.039095
0.40378,2.0006,-3.6873,9.6694,0.041233,0.081856,0.03543
0.4379,1.5887,-2.6674,10.062,0.29902,0.146,-0.15577
0.44394,1.3337,-1.3533,9.0613,0.33934,0.19426,-0.14478
0.41397,1.1964,-2.3144,7.7473,0.25962,0.24038,-0.13408
0.33914,3.3343,-3.0008,8.316,0.10996,0.24587,-0.10751
0.2822,4.668,-2.2555,9.179,-0.030238,0.19853,-0.078802
0.23972,4.5307,-1.0199,9.1594,-0.096211,0.11301,-0.065973
0.20795,4.8837,-0.098066,6.8254,0.052534,0.033903,-0.088881
0.13034,4.5111,-1.2553,5.7663,0.17929,0.0015272,-0.13164
0.078644,3.0989,-4.3149,8.9437,-0.43433,-0.33903,-0.045204
0.068115,3.1774,-4.413,10.375,-0.3375,-0.2361,-0.062919
0.12347,3.2558,-2.2555,9.9636,-0.14691,-0.082772,-0.071166
0.18707,2.3732,-0.94144,8.9437,0.044593,0.066584,-0.076969
0.22437,2.6478,-1.726,7.5903,0.16982,0.15577,-0.025045
0.28433,3.5304,-3.2362,7.2961,0.2193,0.1857,0.014355
0.3558,4.0011,-3.55,7.4531,0.19761,0.18051,0.0088575
0.45508,4.0403,-3.0989,8.2376,0.13286,0.15913,-0.013134
0.52948,3.7461,-2.5105,8.7083,-0.062919,0.14111,0.10721
0.53931,3.805,-2.0594,8.4141,-0.10171,0.13317,0.10568
0.5181,3.4127,-1.4318,8.1787,-0.14019,0.12706,-0.04612
0.46219,3.5304,-1.3729,8.0807,-0.20892,0.12553,-0.010079
0.40408,3.3146,-1.8437,8.2572,-0.26878,0.13897,0.029627
0.35593,3.1185,-2.5693,8.2572,-0.29199,0.14172,0.064752
0.32401,3.4127,-2.9812,8.5318,0.064141,0.12889,0.096517
0.3092,3.7265,-3.2362,8.6299,-0.0024435,0.12278,0.10782
0.31058,3.8638,-3.0793,8.5514,-0.17043,0.12309,-0.095295
0.32761,3.5304,-2.9028,8.4337,-0.080023,0.11881,-0.13408
0.32285,3.2362,-2.7262,8.0022,-0.0024435,0.1179,0.10629
0.31641,3.0008,-2.3536,8.5318,0.026573,0.12889,0.089797
0.29617,2.7851,-1.9417,9.1202,0.0088575,0.14416,0.054062
0.28238,2.8635,-2.0594,8.8652,-0.0067195,0.15547,0.023518
0.26413,3.2558,-2.1967,8.3945,-0.27703,0.14752,-0.0061087
0.25748,3.1774,-2.0006,8.0022,-0.23732,0.12889,-0.050091
0.2558,3.0989,-2.2751,8.2572,-0.37263,-0.21747,0.069333
0.2749,2.7459,-3.0989,8.9437,-0.3262,-0.13744,-0.043371
0.31384,2.5497,-3.0989,8.4926,-0.053451,0.062614,0.037568
0.34595,2.1575,-2.8243,8.316,0.32284,0.3094,0.046731
0.41226,2.2751,-2.0006,9.1202,0.46914,0.37018,0.11301
0.48978,2.4909,-1.4318,9.7478,0.49236,0.27,0.18998
0.60068,2.6086,-1.3533,9.2771,0.42944,0.10324,0.19273
0.71613,2.942,-1.824,8.5514,0.26725,-0.054062,0.15363
0.79474,3.1774,-2.2555,8.4337,0.13714,-0.13653,0.14386
0.8829,3.3735,-2.6086,8.5514,0.097738,-0.11423,0.10232
0.92697,3.5892,-2.687,8.2572,0.094073,-0.039706,-0.084299
0.92532,4.5111,-2.9028,7.0608,0.032376,0.015882,-0.043677
0.83536,4.9622,-3.3931,6.0801,-0.13225,0.018631,0.011301
0.66858,4.5699,-3.0008,7.2765,-0.36438,-0.044288,0.055894
0.47113,3.0793,-2.4713,9.8066,-0.55405,-0.13073,0.11973
0.26489,3.2362,-2.1967,10.415,-0.59804,-0.14722,0.16493
0.08844,3.805,-1.471,8.4141,-0.31337,-0.073915,-0.0097738
-0.046509,3.3931,-1.3533,7.3746,-0.046426,0.054672,-0.054978
-0.13257,2.9028,-1.118,7.5511,0.20159,0.18051,0.092546
-0.18231,2.8047,-2.2751,7.8649,0.34544,0.27855,0.10385
-0.16312,4.06,-3.5304,7.6884,0.35888,0.3146,0.10201
-0.08667,3.9423,-4.158,7.7865,0.28527,0.28466,0.10354
0.034668,3.3146,-3.5696,8.4926,0.17104,0.21716,0.096211
0.16028,2.8635,-2.6086,8.8652,0.058948,0.13775,0.05284
0.26474,2.8635,-1.9809,9.2183,-0.028405,0.067806,-0.012523
0.36292,2.7459,-1.9809,8.9633,-0.089492,0.017104,0.015577
0.43341,2.9224,-2.2751,8.6299,-0.12523,-0.024435,-0.077274
0.49335,3.0008,-2.4517,8.1787,-0.13195,-0.049786,-0.089492
0.54797,3.1774,-2.4517,8.2572,-0.10904,-0.053451,-0.090103
0.58481,3.0597,-2.4124,8.4141,-0.069944,-0.044593,-0.080634
0.59598,3.3146,-2.432,8.6299,-0.028405,-0.032987,-0.065363
0.60172,3.3146,-2.3732,8.2572,-0.0061087,-0.02138,-0.040623
0.58734,3.4912,-2.432,8.0022,-0.21136,-0.09896,-0.14386
0.57852,3.6873,-2.4124,8.3945,0.19487,0.099571,-0.12462
0.59238,3.6285,-2.6086,8.5514,0.46273,0.24465,-0.03879
0.5946,3.55,-2.687,8.4141,0.52382,0.30879,-0.019242
0.58905,3.5696,-2.432,8.0611,0.43341,0.32712,-0.018326
0.58295,3.2166,-2.3732,8.4141,0.19487,0.26634,-0.044593
0.58087,3.5696,-2.1967,8.9044,-0.040928,0.19975,-0.079412
0.54333,3.3931,-2.5301,8.1003,-0.12675,0.19273,-0.11454
0.47034,2.8047,-3.0793,9.0417,0.11851,0.24099,0.01741
0.39182,2.8439,-2.6086,9.5321,0.10201,0.3094,0.027184
0.30853,3.5304,-1.5691,9.3163,0.029016,0.36102,-0.08491
0.2222,3.5696,-0.70608,7.7865,-0.068111,0.36896,-0.05681
0.16473,2.5497,-1.118,7.4923,-0.096822,0.33872,-0.020464
0.12476,3.5892,-2.2948,7.6884,0.026878,0.28436,0.0051924
0.12799,4.7464,-4.0403,8.0807,-0.063835,0.24282,0.015882
0.17712,5.1583,-3.8638,7.6884,0.054062,0.27184,0.016493
0.26376,4.4326,-2.942,7.9434,0.26114,0.3317,-0.033598
0.37616,3.6873,-1.726,8.0218,0.13836,0.33384,0.011606
0.47971,3.7265,-1.9025,7.963,0.058643,0.22877,0.056505
0.57623,3.2754,-2.5105,7.8061,0.045815,0.06017,0.062919
0.67978,2.9028,-2.6086,8.1003,0.093768,-0.059865,0.038485
0.76788,2.4517,-2.3144,8.4141,0.10049,-0.093462,-0.0015272
0.8132,2.432,-2.687,8.8652,0.21747,-0.049175,-0.047342
0.82034,2.6086,-2.8243,8.0022,0.31307,0.019853,-0.063835
0.79062,1.824,-2.4124,9.6694,-0.021075,0.051007,0.044288
0.72324,1.4906,-2.1378,10.434,-0.22785,0.029932,0.092241
0.63647,2.8635,-1.6475,9.0221,-0.405,-0.016493,0.12034
0.5426,3.0793,-1.118,7.8453,-0.50855,-0.074831,0.096822
0.44409,3.0793,-1.0003,8.2572,-0.44502,-0.10049,0.11698
0.36105,2.3928,-1.9417,8.8064,-0.32926,-0.14813,0.098044
0.30292,2.7851,-3.0008,8.8064,-0.19181,-0.13928,0.074526
0.31863,2.942,-3.4519,9.179,-0.13683,-0.12278,0.094073
0.38135,3.2558,-2.2751,9.0417,-0.0097738,0.10263,-0.13683
0.51843,2.589,-2.1967,8.2572,0.14661,0.21289,-0.10324
0.64935,2.687,-2.432,7.5315,0.12553,0.28924,0.038485
0.73306,2.589,-3.0401,7.7865,-0.053451,0.2584,0.11851
0.80151,3.2754,-3.2362,8.4141,-0.10232,0.12828,0.097738
0.87103,3.7461,-3.0989,8.5514,-0.07086,0.02138,0.0033598
0.92786,4.0403,-3.0793,8.1199,-0.040317,0.0094684,-0.040012
0.9642,3.9423,-2.589,8.7475,-0.062614,0.068111,-0.081245
0.97772,3.8638,-2.1378,9.4144,-0.13103,0.12339,-0.1463
0.97073,3.7461,-1.6475,9.3163,-0.21411,0.12767,-0.1741
0.92203,3.6873,-1.5887,8.6887,-0.28711,0.1066,-0.032681
0.81412,3.8638,-1.6475,4.9426,-0.29871,0.022297,0.0051924
0.63663,2.1378,-3.5108,9.9636,-0.20311,-0.016799,0.038485
0.4866,3.0793,-4.0011,9.5713,-0.05284,0.033598,-0.024435
0.3826,3.5696,-2.1575,8.2572,0.1292,0.12462,-0.10934
0.3381,2.4517,-1.4318,7.4531,0.27245,0.23732,-0.13225
0.34131,3.3931,-2.2948,8.5318,0.37629,0.31246,-0.17837
0.40436,4.5699,-3.3931,8.4141,0.45662,0.34667,-0.19273
0.47888,4.3149,-2.8243,6.6489,0.51832,0.35308,-0.20281
0.52438,3.1774,-2.4124,8.2376,0.55436,0.35308,-0.22419
0.53098,2.2359,-2.7655,9.5125,0.56139,0.34483,-0.22571
0.5166,3.3735,-2.2751,8.7868,0.51862,0.32467,-0.19639
0.53995,3.7265,-1.0395,7.4334,0.41508,0.30391,-0.16066
0.57715,2.6478,-1.118,7.7865,0.28558,0.31887,-0.15272
0.61823,2.6086,-3.0989,8.1003,0.033903,-0.069944,-0.084605
0.69443,3.8834,-4.3149,8.2572,0.11729,-0.015272,-0.029016
0.81,4.0403,-4.6091,8.0807,0.047647,0.00061087,0.054978
0.95648,3.5696,-3.6677,8.1787,-0.10751,-0.076358,0.011912
1,3.0793,-2.432,8.4926,-0.20556,-0.16829,-0.0033598
1,2.6086,-1.6867,8.7475,-0.19823,-0.17196,-0.058643
1,2.7851,-1.5298,8.5514,-0.13561,-0.092852,-0.14416
1,3.4912,-1.6867,7.8061,-0.1179,-0.011606,-0.14966
1,2.9616,-2.2751,8.4141,0.060781,-0.021991,0.045204
1,3.0793,-2.4124,9.2575,-0.0018326,-0.0015272,0.055589
1,3.0793,-2.589,9.3752,-0.067806,-0.0076358,0.018021
1,2.9616,-2.1967,7.9434,-0.11423,-0.032987,0.021991
1,1.2945,-1.5691,10.944,-0.14447,-0.071471,0.034208
0.89258,0.098066,-1.824,11.552,-0.15913,-0.10263,0.046731
0.74338,2.7851,-1.6475,8.0022,0.054367,-0.1237,0.044899
0.6337,2.7851,-2.0006,5.9036,0.082161,-0.13592,0.03879
0.57614,2.4713,-1.4318,6.8647,-0.11606,-0.13378,0.021075
0.57077,2.1378,-1.3729,9.2575,-0.11393,-0.12278,0.012523
0.61908,2.4909,-2.7262,10.258,-0.1182,-0.10568,0.060781
0.72678,3.2362,-3.0793,9.179,-0.11851,-0.091935,0.064446
0.87347,3.0793,-2.589,8.6299,-0.11729,-0.089492,0.065668
0.99179,2.9224,-2.3732,8.7083,-0.12034,-0.092241,0.061087
1,3.1577,-2.5105,8.6495,-0.15577,-0.093462,0.046426
1,3.2558,-2.3732,8.2572,-0.13256,-0.092852,0.030849
1,3.2558,-2.432,8.0218,-0.039706,-0.15211,0.040012
1,3.3735,-2.4713,7.7865,-0.010385,-0.15577,0.037874
1,3.0597,-2.5693,7.9434,-0.021075,-0.17746,0.091935
0.94461,2.6478,-2.9028,8.9633,-0.055894,-0.20495,0.070555
0.84201,3.2558,-3.0793,8.7475,-0.094073,-0.20983,0.064141
0.74652,3.3931,-2.6086,8.8064,-0.12278,-0.18998,0.059254
0.66214,2.9224,-1.9417,8.4926,-0.13683,-0.16371,0.057727
0.57724,2.6086,-1.8829,8.4141,-0.11942,-0.12431,0.052229
0.52615,2.7459,-2.1967,8.6299,-0.079718,-0.064446,0.018631
0.48596,2.8635,-2.8243,8.7083,-0.039706,0.0012217,0.01741
0.46667,3.0793,-3.0793,8.4141,-0.032376,0.053145,0.061697
0.44019,3.0793,-2.6282,8.3749,-0.060476,0.059254,0.090713
0.4162,2.9616,-2.687,8.2376,-0.1011,0.020464,0.099266
0.38947,2.9616,-2.687,8.3357,-0.14203,-0.042455,0.089492
0.35394,3.3735,-2.7262,8.2768,-0.11668,-0.068417,0.066584
0.31171,3.2754,-2.8243,8.1003,-0.030543,-0.054978,0.032376
0.29208,3.4912,-3.0793,8.1591,0.016493,0.087048,-0.0027489
0.26135,3.2558,-3.0989,8.218,0.0039706,0.08827,0.007025
0.26559,3.0793,-2.6086,8.2572,-0.0088575,0.08491,-0.013439
0.25391,3.1774,-2.432,8.3749,-0.011606,0.071471,-0.0045815
0.24771,2.9224,-2.3732,8.6299,0,0.054062,-0.0051924
0.2251,3.1774,-2.6086,8.4141,0.018937,0.045509,-0.0058032
0.19244,3.1185,-2.7459,8.4926,0.033292,0.044593,-0.0061087
0.18481,3.0989,-2.6282,8.3945,0.027184,0.043982,-0.0054978
0.16888,2.9224,-2.5105,8.2768,0.053451,0.044899,0.021686
0.16776,2.9224,-2.6674,8.316,0.044593,0.018326,0.018631
0.16559,2.942,-2.6086,8.5514,0.0061087,-0.015882,0.034208
0.16718,2.8635,-2.3732,8.7868,-0.051007,-0.050396,0.044288
0.18683,2.687,-2.2751,8.8456,-0.1066,-0.076664,0.030849
0.18677,2.7655,-2.432,8.5514,-0.14508,-0.086437,0.012828
0.18842,3.0008,-2.687,8.2768,-0.16432,-0.084299,0.013439
0.19516,3.0204,-2.8243,8.2572,-0.1686,-0.078802,0.020769
0.19522,3.3146,-3.0401,8.2572,-0.14203,-0.069944,-0.010996
0.16516,3.0793,-2.8243,8.4926,-0.082772,-0.048564,-0.019853
0.15945,3.0793,-2.6282,8.2376,-0.020464,-0.021075,0.023824
0.12625,3.3931,-2.7262,8.218,0.022602,-0.0042761,0.03543
0.11099,3.4127,-2.7851,8.1003,0.0281,-0.0067195,0.042455
0.086884,3.1774,-2.8832,8.2376,0.007025,-0.015577,0.037568
0.06781,3.1774,-2.7459,8.2572,-0.025962,-0.023518,0.022907
0.053406,3.2166,-2.7459,8.316,-0.049175,-0.02474,0.0054978
0.035248,3.0793,-2.5105,8.2572,-0.040623,-0.01405,-0.030849
0.027832,2.7851,-2.5301,8.4926,-0.014661,0.0042761,-0.026267
-0.01416,2.8047,-2.589,8.6299,0.012217,0.027184,-0.019853
-0.033936,3.0793,-2.7262,8.5514,0.0281,0.050396,-0.022907
-0.062134,3.1774,-2.687,8.4926,0.033903,0.068722,-0.032376
-0.090698,3.1185,-2.3144,8.4141,0.036957,0.075136,-0.037263
-0.10992,3.0008,-2.5105,8.4337,0.034208,0.078191,-0.030849
-0.1456,3.3146,-2.7851,8.316,0.023213,0.082772,-0.028405
-0.17722,3.4127,-2.8243,8.2572,-0.10843,-0.032681,0.031765
-0.17081,3.4912,-2.9224,8.0807,-0.015882,-0.027184,0.020464
-0.18292,3.2558,-2.8832,8.1787,0.037568,-0.029322,0.037874
-0.18552,3.4127,-2.8243,8.218,0.065668,-0.033598,0.029932
-0.16055,3.2362,-2.687,8.316,0.071166,-0.035125,0.028405
-0.15338,2.7851,-2.4713,8.5514,0.0562,-0.032681,0.030238
-0.14346,2.8047,-2.0594,9.1594,0.017715,-0.033903,0.03543
-0.14481,2.7655,-1.7456,9.5125,-0.040012,-0.036041,0.038485
-0.15353,2.6478,-1.9809,8.6299,-0.31124,-0.1292,-0.083994
-0.16257,2.6086,-2.6282,8.1787,-0.21075,-0.052534,-0.093157
-0.17603,2.4909,-3.0008,8.8064,-0.12462,0.033598,-0.058032
-0.17645,2.5693,-2.2751,9.1986,-0.048564,0.12095,-0.037568
-0.18225,2.4713,-1.824,8.8652,0.035125,0.19334,-0.026573
-0.18268,2.9224,-1.9809,7.61,0.086437,0.24587,-0.025656
-0.18307,3.3146,-2.6674,7.1589,0.12828,0.27794,-0.033598
-0.15601,3.5696,-3.3735,7.61,0.16066,0.28772,-0.064752
-0.12244,3.8638,-3.3146,7.61,0.1909,0.28375,-0.050702
-0.08432,3.7265,-3.3735,8.218,0.19609,0.26786,-0.034208
-0.044281,3.1774,-2.9616,8.4926,0.2138,0.24648,-0.11606
-0.013885,3.0008,-2.5105,8.8456,0.22022,0.2303,-0.14294
-0.011353,2.9028,-2.1575,8.7083,0.18173,0.22235,-0.15149
0.005127,2.7851,-1.824,8.8064,0.10965,0.21472,-0.13408
0.0054321,2.7851,-1.6279,8.8652,0.18051,0.19761,-0.10171
0.0029602,2.4713,-1.8829,8.6887,0.18601,0.16402,-0.073915
-0.011597,2.5497,-2.0594,8.7475,-0.019242,0.13134,0.047953
-0.034637,2.5497,-2.2948,9.0025,0.0045815,0.10629,0.04215
-0.046936,2.589,-2.5693,9.0417,0.0009163,0.093768,-0.013134
-0.0401,2.3732,-2.6282,8.7279,-0.036652,0.088881,0.015577
-0.025574,2.5497,-2.5693,8.7083,-0.072693,0.073609,0.036041
-0.0099182,2.4517,-2.2751,8.7475,-0.075442,0.03543,0.054978
0.012939,2.7851,-2.1378,8.4926,0.025045,-0.0042761,0.064752
0.028351,2.9224,-2.2751,8.2768,-0.018937,-0.030238,0.059559
0.031158,3.0008,-2.4517,8.3945,-0.013744,0.14325,-0.024435
0.040924,2.8635,-3.2362,8.7083,0.22633,0.28069,0.0033598
0.067169,3.0793,-2.7459,8.7083,0.32498,0.36346,0.022602
0.059143,2.8635,-2.2751,8.8064,0.27428,0.37874,0.095906
0.047333,2.8047,-1.9613,8.5514,0.13806,0.33903,0.10843
0.031311,2.9224,-2.3732,8.4141,0.00030543,0.28436,0.075442
0.006134,3.2754,-2.6282,8.4141,-0.093768,0.2587,0.029627
-0.011841,3.2166,-2.8243,8.7279,-0.10568,0.25901,-0.012828
-0.03009,3.2166,-2.2751,9.0417,0.17013,0.27184,-0.028711
-0.052551,2.9224,-1.471,9.2771,0.3653,0.29749,-0.081856
-0.13495,3.2166,-1.2749,8.6299,0.49419,0.27642,0.04612
-0.18997,3.5696,-1.8437,7.3746,0.42486,0.23366,0.090408
-0.22845,3.6873,-2.9028,6.8254,0.17135,0.12217,0.12401
-0.23605,3.5696,-3.3931,7.6884,-0.11881,-0.018326,0.13806
-0.24554,2.9224,-3.2362,8.7279,-0.36591,-0.14844,0.071777
-0.22699,2.3732,-2.687,8.8064,-0.45693,-0.2306,0.014355
-0.2193,2.3928,-2.4713,8.7083,-0.39859,-0.24709,0.15241
-0.24078,2.334,-2.5105,8.2768,-0.25687,-0.1857,0.071777
-0.26575,1.6671,-2.4713,9.8066,-0.11393,-0.096517,-0.083078
-0.29333,1.2945,-1.9809,10.689,0.061087,-0.048258,-0.029016
-0.33282,1.8437,-1.3533,9.7478,0.19975,0.0051924,0.036957
-0.3812,2.0594,-1.8044,8.316,0.21044,0.018631,0.085521
-0.40616,2.589,-2.589,7.61,0.11881,-0.0073304,0.14478
-0.40311,2.9224,-3.0597,8.1787,0.01741,-0.069639,0.17226
-0.37674,2.4517,-2.432,9.3359,0.020159,-0.15241,-0.023824
-0.34238,2.432,-1.5298,8.9437,0.17532,-0.18723,-0.0281
-0.30667,2.6086,-2.589,9.0221,0.34789,-0.14691,-0.037874
-0.27411,2.6086,-3.3146,8.9437,0.36499,-0.12034,-0.11484
-0.24802,2.7851,-2.4124,9.3752,0.28863,-0.17226,-0.093462
-0.24164,2.4909,-1.3141,9.0613,0.18692,-0.24648,-0.036346
-0.2482,2.4517,-1.1964,8.8064,0.051313,-0.30513,-0.0076358
-0.26141,2.9616,-1.3337,7.9434,-0.098044,-0.36805,-0.013439
-0.26968,3.0597,-1.9809,7.708,0.021686,-0.1347,0.031154
-0.22137,3.5892,-2.9028,8.2376,0.11393,-0.18784,0.063225
-0.15561,4.1188,-3.0793,8.9044,0.13622,-0.1909,-0.097738
-0.080566,3.8834,-2.2751,8.2572,0.025045,-0.1631,-0.11912
0.0039368,3.9423,-1.8829,7.963,-0.16554,-0.14539,-0.11087
0.068665,4.2561,-2.0986,7.4531,-0.38576,-0.1744,-0.051618
0.12244,4.1972,-2.7459,7.4531,-0.58307,-0.23671,-0.020464
0.16312,3.7461,-2.432,8.218,-0.65179,-0.26512,-0.0079412
0.23331,2.9616,-1.824,9.0221,-0.15119,-0.24068,0.067501
0.27667,2.6086,-1.8437,9.1006,0.049175,-0.1857,0.050091
0.31967,2.6282,-2.3732,8.6299,0.14416,-0.087659,0.086437
0.31216,2.9224,-2.8832,8.2768,0.15333,0.0051924,0.11026
0.32025,2.9028,-2.942,8.0022,0.14233,0.051313,0.14355
0.33163,2.6282,-2.7459,8.4141,0.15424,0.054367,0.16677
0.34381,2.2948,-2.3732,9.3359,-0.56261,0.033598,0.13042
0.37732,2.0594,-2.432,9.9439,-0.36896,0.022297,0.091324
0.4263,1.9809,-2.432,10.062,-0.0061087,0.019853,0.051618
0.48782,2.7851,-1.3533,9.0025,-0.15211,0.022602,0.068111
0.51785,2.7851,-0.49033,7.61,-0.27336,0.0018326,0.043371
0.51651,1.9809,-1.1964,7.8061,-0.32406,-0.041539,0.054062
0.48685,2.5301,-2.8243,7.7865,-0.28772,-0.085827,0.070555
0.46198,3.2754,-4.0011,7.9238,-0.18937,-0.11393,0.069944
0.45801,3.6285,-3.3735,8.5318,0.15608,-0.11362,0.054978
0.42761,3.3931,-2.7459,8.8652,0.10812,-0.087965,0.043982
0.4039,3.3343,-1.9809,8.7475,-0.013134,0.076053,-0.12309
0.36581,3.4127,-1.5691,8.6887,0.080023,0.15699,-0.11209
0.31036,3.6873,-1.4318,8.6299,0.14539,0.23824,-0.029016
0.26733,3.4912,-1.7848,8.4141,0.12981,0.27947,-0.002138
0.21701,3.7069,-2.7262,8.316,0.02474,0.25687,0.007025
0.1803,3.3146,-2.9224,8.4337,-0.0956,0.18601,-0.0079412
0.16422,3.2558,-2.687,8.316,-0.12828,0.088575,-0.051924
0.15643,2.942,-2.432,8.3945,-0.067806,-0.029932,-0.098655
0.1344,2.8047,-2.432,8.2768,-0.044899,0.1066,-0.26848
0.11121,2.9616,-2.7851,8.4141,-0.057116,0.12156,-0.27458
0.10281,2.9616,-2.8832,8.2768,0.0048869,0.13073,-0.040623
0.081573,3.2166,-3.0793,8.4729,0.15272,0.17379,-0.058338
0.051697,3.0989,-2.5105,8.7083,0.30665,0.26359,-0.13225
-0.0031738,3.0793,-2.0006,8.7083,0.37415,0.35339,-0.20586
-0.054291,2.9224,-2.3732,8.4337,0.36133,0.39828,-0.23579
-0.12592,3.0793,-2.6086,8.1787,0.30055,0.40561,-0.25076
-0.17374,3.1774,-2.432,8.6299,0.19914,0.40531,0.015272
-0.22806,3.0008,-2.1182,8.4337,0.048869,0.40225,0.02474
-0.27103,3.0793,-2.0594,8.3749,-0.040623,0.38149,-0.28894
-0.31424,3.2166,-2.3732,8.9044,0.021075,0.38362,-0.30727
-0.35193,3.2362,-2.2948,9.5125,0.18143,0.42333,-0.30268
-0.42575,2.8635,-2.4713,8.5514,0.42272,0.48839,-0.24465
-0.5415,3.6285,-2.589,6.7077,0.53695,0.59162,-0.16524
-0.64728,2.589,-2.6086,9.2575,0.37904,0.59315,-0.080023
-0.75241,3.0008,-2.7262,9.1594,0.32254,0.41111,-0.025045
-0.80496,3.7069,-1.9809,7.3354,0.071471,0.13561,-0.074526
-0.81067,2.7851,-1.9809,7.1785,-0.18967,-0.11393,-0.13897
-0.80573,3.6873,-2.5693,7.8453,-0.27581,-0.20739,-0.17562
-0.75232,4.3149,-3.6873,8.6299,-0.17287,-0.14111,-0.13256
-0.68228,4.1972,-3.6873,8.2572,-0.015882,-0.015272,-0.050091
-0.57675,4.2561,-3.0008,8.1787,0.048869,0.037263,0.0085521
-0.48291,3.5892,-2.2751,8.6887,-0.029627,-0.0015272,0.055283
-0.40497,3.4912,-2.0006,8.0218,0.011606,0.089186,-0.036041
-0.35516,2.9224,-2.432,7.9238,-0.033903,0.012523,-0.047037
-0.38068,2.0594,-2.8243,8.1787,-0.065668,-0.064446,-0.012523
-0.45612,1.118,-2.0594,8.9437,-0.13714,-0.099266,0.0024435
-0.54166,-0.27459,-1.5102,11.572,-0.18387,-0.082467,0.0018326
-0.62506,0.80415,-1.3729,11.042,-0.15944,-0.02138,-0.058032
-0.6752,2.4713,-0.94144,7.5511,-0.08094,0.052229,-0.071166
-0.72266,1.7652,-0.80415,7.1589,-0.028405,0.084605,-0.044288
-0.72977,1.824,-1.4906,8.9437,-0.078802,-0.059559,0.01069
-0.69388,2.8047,-2.9028,9.3752,-0.055894,-0.054978,0.0058032
-0.60168,3.1577,-3.3539,9.1202,-0.039401,-0.04215,0.020159
-0.45346,3.2558,-2.7262,8.8652,-0.029016,-0.027184,0.01741
-0.30087,3.0989,-2.1378,8.8064,-0.025656,-0.01069,0.013744
-0.15439,3.0793,-1.8044,8.5318,-0.0281,0.002138,0.0079412
-0.014557,3.2166,-1.9417,8.0022,-0.086437,0.0079412,0.010385
0.091278,3.4127,-2.3732,8.2572,-0.092241,0.0073304,0.013439
0.16782,3.3735,-2.3732,8.2572,-0.057116,0.007025,0.013439
0.21814,3.0793,-2.2751,8.7083,-0.062919,0.007025,0.016493
0.25635,3.2558,-2.5693,8.4926,-0.05681,-0.0015272,0.0012217
0.27417,3.5892,-2.7459,8.1199,-0.041233,-0.012217,0.0036652
0.27771,3.2558,-2.8243,8.1199,-0.029627,-0.01405,0.0048869
0.27432,3.0989,-2.3732,8.4141,-0.033903,-0.0076358,-0.0009163
0.272,2.6086,-2.0986,8.8652,-0.033903,0.0027489,-0.0033598
0.2467,2.5301,-2.0594,8.7279,-0.044899,0.0094684,0.0054978
0.20157,2.589,-2.3732,8.5318,0.094379,0.11087,0.024435
0.15424,2.6086,-2.7262,8.6299,0.057727,0.086437,0.02474
0.14023,2.9224,-2.5693,8.5906,-0.0073304,0.048258,0.05681
0.097595,2.7851,-2.432,8.5514,-0.068417,0.0097738,0.047647
0.060242,2.687,-2.3732,8.7083,-0.10385,-0.010996,0.036346
0.037598,3.0793,-2.432,8.4926,-0.11148,-0.021686,0.030849
0.010773,3.0989,-2.4713,8.4141,-0.099266,-0.030238,0.025656
-0.012909,3.2362,-2.6086,8.218,-0.078802,-0.028711,0.023213
-0.049561,3.2166,-2.7262,8.3749,-0.053451,-0.026878,0.031765
-0.08017,3.2754,-2.7459,8.3945,-0.069944,-0.029322,0.025045
-0.12009,3.0204,-2.5693,8.4141,-0.087965,-0.039401,0.029627
-0.15509,3.1185,-2.4713,8.4337,-0.092241,-0.055283,0.037263
-0.19211,3.0793,-2.4713,8.5514,-0.08827,-0.065363,0.03543
-0.24524,3.0793,-2.6086,8.4729,-0.082161,-0.069028,0.024435
-0.26129,3.0793,-2.4517,8.4141,-0.058643,-0.06689,0.021075
-0.29785,3.0793,-2.432,8.3749,-0.047342,-0.062003,0.029627
-0.32474,2.9028,-2.589,8.4926,0.36072,0.10751,-0.041539
-0.32193,2.9224,-3.0793,8.4141,0.088575,0.15302,-0.17349
-0.32126,3.2362,-2.6674,8.316,-0.27061,0.11087,0.05284
-0.33276,2.9616,-2.4517,8.218,-0.54642,0.027184,0.065973
-0.349,3.0008,-2.4517,8.6299,-0.56902,-0.060476,0.071471
-0.36984,3.0793,-2.6086,8.6299,-0.33506,-0.090408,0.037874
-0.37762,3.2362,-2.5301,8.4729,-0.080634,-0.058338,-0.030238
-0.39401,3.4127,-2.4124,8.316,0.075136,-0.074831,-0.021686
-0.423,3.2166,-2.5301,8.3749,0.10324,0.17654,-0.048869
-0.43768,3.2754,-2.7851,8.1787,0.06017,0.1799,-0.042761
-0.45877,3.1185,-3.0597,8.3749,0.024129,0.16157,-0.059559
-0.46017,3.1774,-2.942,8.1787,0.032987,0.14966,-0.06353
-0.44519,2.7851,-2.5105,8.1787,0.076358,0.14966,-0.075136
-0.42004,2.8047,-2.4517,8.2572,0.13073,0.15088,-0.071777
-0.39233,2.7459,-2.6086,8.7083,0.17135,0.1518,-0.057116
-0.35757,2.8635,-2.6086,8.8848,0.17685,0.15363,-0.049175
-0.31931,3.1774,-2.2751,8.7083,0.1066,0.1576,0.11637
-0.2774,3.2166,-1.824,8.0807,0.025351,0.15882,0.15577
-0.23874,3.2754,-1.7456,8.5514,-0.051313,0.14294,-0.021075
-0.19998,3.0008,-2.2163,9.5125,-0.10751,0.11881,0.01069
-0.17169,3.3146,-2.432,9.179,-0.13592,0.090713,0.036652
-0.15817,2.7851,-2.5105,7.2373,-0.10965,0.067806,0.058032
-0.18021,1.9221,-2.9028,8.8456,-0.026573,0.078802,0.068417
-0.21494,1.0395,-3.2362,9.8459,0.06353,0.092241,0.077885
-0.26505,2.5693,-3.0008,9.0613,0.14844,0.1066,-0.037263
-0.30087,3.1774,-2.2555,7.1785,0.12859,0.18051,0.013744
-0.34412,2.1771,-1.4318,8.0218,0.013744,0.18082,0.1405
-0.38608,2.1575,-1.9809,8.9044,-0.035736,0.065973,0.10934
-0.41733,2.4517,-2.7459,8.8456,-0.014661,-0.074526,0.071777
-0.39139,2.687,-3.9423,9.0025,0.11179,-0.16585,0.051007
-0.30594,3.4127,-3.8246,9.6694,0.29291,-0.13836,0.018326
-0.16562,3.2754,-2.4517,9.0417,0.41997,-0.020769,-0.042761
-0.0037842,3.5696,-0.80415,7.9042,0.016799,0.13225,-0.048564
0.14795,3.0793,-0.80415,7.0608,0.097433,0.15241,-0.08094
0.28326,3.0793,-1.6475,7.0804,0.18815,0.20403,0.0073304
0.37918,3.6285,-2.5693,7.963,0.06353,0.12706,0.08094
0.45306,3.2558,-3.6285,8.8456,-0.19945,-0.072998,0.13775
0.51703,3.0989,-4.0796,8.5318,-0.41997,-0.25687,0.12187
0.54654,2.8439,-3.3146,8.2572,-0.48289,-0.33139,0.093462
0.53946,2.4713,-2.3144,9.0221,-0.34636,-0.29749,0.03543
0.52277,2.2359,-2.0006,9.179,-0.083689,-0.2022,0.010385
0.48987,2.4517,-2.1182,8.8064,0.15424,-0.10293,-0.0079412
0.44781,2.5497,-2.0594,8.7083,0.25076,-0.057116,-0.064446
0.38162,2.2948,-1.8437,8.8652,0.23946,-0.061392,-0.032376
0.2395,2.0006,-1.5691,8.4337,0.14294,-0.11484,0.0061087
0.12488,0.86299,-1.6671,10.532,0.034208,-0.17471,0.05284
-0.0055542,1.9221,-2.5693,9.8459,-0.036957,-0.21716,0.056505
-0.12808,2.1575,-3.0793,7.2373,-0.072998,-0.23366,0.034514
-0.23035,2.1575,-2.6674,7.5511,-0.16616,-0.22297,0.11026
-0.27475,2.5497,-2.2751,8.8652,-0.1744,-0.19853,0.12187
-0.29886,2.2359,-2.2751,9.434,-0.15852,-0.18143,-0.0033598
-0.26834,2.2359,-2.1967,8.8652,-0.12706,-0.16035,0.018021
-0.20123,3.0989,-2.1967,8.2572,-0.10324,-0.1292,0.040623
-0.089813,3.3931,-1.9809,8.0807,-0.12339,-0.093462,0.061697
0.0019531,3.3146,-2.2751,8.0807,-0.096517,-0.054978,0.081245
0.10294,3.5696,-2.3732,8.4926,-0.13378,-0.015882,0.096211
0.17001,3.55,-2.432,8.5318,-0.24251,-0.015577,0.097128
0.21078,3.1185,-2.3144,8.4337,-0.15455,-0.05284,0.079107
0.22687,3.3735,-2.7459,8.5514,-0.045204,-0.081856,0.11484
0.23212,3.2558,-2.8439,8.7279,0.037568,-0.081856,0.095906
0.22696,2.9616,-2.6282,8.6299,0.076664,-0.06353,0.089492
0.20355,2.9616,-2.5105,8.4337,0.072082,-0.048564,0.098044
0.16153,3.0989,-2.4124,8.4729,-0.19456,-0.04612,0.10476
0.12256,2.9224,-2.2751,8.6299,-0.25504,-0.055589,0.10446
0.080353,3.0008,-2.4713,8.5514,-0.059865,-0.040317,-0.0051924
0.048035,2.8635,-2.8243,8.218,-0.064752,-0.038485,-0.0079412
0.038513,2.9224,-2.6086,7.9434,-0.055894,-0.027184,0.022297
0.01355,3.1185,-2.589,8.316,-0.042455,-0.01069,0.014966
-0.018646,2.9224,-2.687,8.5318,-0.034514,0.0094684,0.012217
-0.064545,2.7851,-2.9028,8.5318,-0.032987,0.0281,0.01405
-0.11777,2.8047,-2.687,8.6299,-0.038485,0.03543,0.010996
-0.16351,2.8635,-2.2948,8.8064,-0.046731,0.042455,0.0045815
-0.18719,2.7851,-2.1182,8.7083,-0.024435,0.048564,0.036346
-0.21939,2.7851,-2.1378,8.5514,0.014355,0.057116,0.032681
-0.2478,2.7851,-2.2163,8.4926,0.026573,0.059254,-0.0024435
-0.24536,2.7851,-2.432,8.7475,-0.0097738,0.032987,0.0076358
-0.26028,2.8047,-2.432,8.6299,-0.03543,-0.0027489,0.018631
-0.26721,3.0008,-2.432,8.3945,-0.053756,-0.016188,0.018021
-0.27313,3.1774,-2.4713,8.2572,-0.068111,-0.025962,0.012828
-0.28482,3.2558,-2.7851,8.316,0.045509,-0.017104,0.024435
-0.29626,3.1774,-2.6086,8.4729,0.18265,0.087965,-0.068417
-0.31302,3.1774,-2.589,8.2572,0.17165,0.16402,-0.039706
-0.3125,2.9616,-2.6282,8.218,0.16371,0.12553,0.028405
-0.32614,3.1185,-2.589,8.6299,0.067501,0.051618,-0.0042761
-0.32895,2.9224,-2.432,9.434,-0.093768,-0.060476,0.025656
-0.35153,2.9224,-2.3144,9.3752,-0.22907,-0.14844,0.068111
-0.37082,3.0597,-2.4124,7.7473,-0.27306,-0.18295,-0.01741
-0.43945,3.2754,-2.7262,6.5116,-0.24435,-0.16524,-0.082772
-0.51627,2.1182,-2.7459,9.5125,-0.033292,-0.13714,0.032681
-0.58691,1.8437,-2.2751,10.042,-0.22022,-0.12278,0.01741
-0.62808,2.9028,-1.3533,8.3945,-0.20067,-0.14783,-0.012523
-0.64359,2.5497,-1.5102,7.3746,-0.25381,-0.197,0.047953
-0.63705,2.687,-1.8437,8.4141,-0.30055,-0.21166,0.0956
-0.6019,3.4912,-2.7262,8.5514,-0.29322,-0.17959,0.083689
-0.55881,4.0403,-3.4519,8.3357,-0.22449,-0.12584,0.050091
-0.48248,3.6285,-3.4127,8.0807,-0.12126,-0.076358,0.035125
-0.39145,3.2558,-3.197,8.2572,-0.0039706,0.034208,-0.013744
-0.24576,3.2754,-2.8243,8.1591,-0.0009163,0.022602,-0.022602
-0.076447,3.2558,-2.6282,8.2376,0.016188,0.021991,-0.062614
0.056549,2.9224,-2.432,8.4337,0.032376,0.027184,-0.061392
0.15961,2.9224,-2.2163,8.5318,0.028711,0.040012,-0.0562
0.2381,2.9224,-2.2751,8.4926,0.0064141,0.052534,-0.042761
0.31619,3.0008,-2.5105,8.4141,0.050702,0.051924,-0.02138
0.37848,3.2558,-3.0989,8.218,0.009163,0.040623,-0.0088575
0.42154,3.2558,-3.197,8.2572,-0.013439,0.030849,-0.082467
0.47113,2.9224,-2.7851,8.218,-0.015882,0.036957,-0.10721
0.51187,2.9616,-2.2751,8.5318,-0.020464,0.050091,-0.029932
0.52274,2.9224,-2.2948,8.5514,-0.011301,0.052534,-0.029932
0.52817,3.2362,-2.7459,8.3749,0.011301,0.04612,-0.025351
0.5231,3.4127,-2.8832,8.316,0.03543,0.041844,-0.036346
0.51547,3.4127,-3.197,8.1199,-0.0094684,0.04612,-0.0562
0.48386,3.0793,-3.0793,8.3945,-0.012523,0.05681,-0.067195
0.46854,3.0597,-2.7655,8.2768,0.10904,0.074526,-0.10568
0.43402,3.1774,-2.5105,8.4337,0.099266,0.096211,-0.086743
0.41541,3.0008,-2.5301,8.2376,0.076969,0.1127,-0.1182
0.38202,3.0793,-2.6086,8.1199,0.061087,0.12553,-0.12095
0.35556,3.3931,-2.7459,8.2572,0.067501,0.13439,-0.12156
0.31635,3.1774,-2.5105,8.3945,0.083383,0.14111,-0.12095
0.2804,3.2754,-2.7459,8.4141,0.069639,0.15424,-0.12126
0.24332,3.3146,-2.7459,8.316,0.097433,0.16829,-0.11881
0.20447,3.0793,-2.9028,8.4141,-0.14111,-0.04215,-0.047647
0.16663,3.2362,-2.9028,8.3749,-0.1463,-0.036346,-0.058032
0.13324,3.0989,-2.9812,8.2572,-0.10232,-0.024129,-0.013439
0.088837,3.2754,-2.7459,8.1787,-0.025656,0.0085521,-0.023213
0.054077,3.0793,-2.5105,8.1787,0.054978,0.044593,-0.031154
0.022125,3.2558,-2.5105,8.1787,0.11606,0.066584,-0.027184
-0.030334,3.0989,-2.4124,8.3945,0.1292,0.068111,-0.025962
-0.063446,2.9224,-2.2948,8.4926,0.099266,0.053451,-0.03543
-0.10458,2.589,-2.2751,8.8064,0.048869,-0.14294,0.095295
-0.13599,2.7655,-2.7459,8.9437,0.041539,-0.1408,0.10018
-0.13123,3.0597,-2.4517,8.7279,-0.0051924,-0.15424,0.074526
-0.11951,3.0793,-2.5105,8.4337,-0.068722,-0.17287,0.090408
-0.13351,3.3146,-2.4713,8.4141,-0.13103,-0.18631,0.092241
-0.14117,3.2362,-2.4124,8.4141,-0.16677,-0.19731,0.088881
-0.13998,3.3146,-2.3732,8.218,-0.17654,-0.197,0.092546
-0.13205,3.5696,-2.687,8.2376,-0.16768,-0.1854,0.094684
-0.12885,3.8638,-2.8832,8.2572,-0.14569,-0.16799,0.072998
-0.10867,3.805,-2.6086,8.2376,-0.12248,-0.14783,0.059254
-0.084991,3.0008,-2.1378,8.6299,-0.10751,-0.13073,0.10843
-0.067993,2.6086,-2.0986,8.4141,-0.10079,-0.11576,0.1066
-0.047485,2.3732,-2.3144,8.6299,-0.09499,-0.096822,0.095906
0.0012207,2.4713,-2.7459,8.5514,-0.089492,-0.086132,0.087354
0.054382,2.2359,-2.3732,8.7083,-0.087659,-0.083078,0.085521
0.10263,1.9221,-2.1575,8.9437,-0.089186,-0.078496,0.083994
0.14432,1.8633,-1.9613,8.9633,0.0061087,0.18876,0.007025
0.19806,2.0006,-2.0594,8.9044,-0.025045,0.16799,0.012217
0.25497,2.2359,-2.2555,9.0417,-0.01741,0.16585,-0.11942
0.3114,2.2948,-2.6282,9.179,0.021075,0.17318,-0.12248
0.36249,2.5497,-2.7459,8.9437,0.066584,0.18021,-0.10568
0.41983,2.5497,-2.1378,8.7083,0.096517,0.17715,-0.066584
0.45444,2.687,-1.8829,8.4141,0.099571,0.16554,-0.030238
0.49115,2.8635,-2.0594,8.316,0.06689,0.14264,-0.0064141
0.51041,3.0008,-2.3732,8.4337,-0.060781,0.11087,0.041844
0.52518,3.0989,-2.6282,8.3945,-0.12065,0.076358,0.054672
0.53613,3.2754,-2.7459,8.316,-0.16218,0.041539,0.018937
0.5499,3.3931,-2.6086,8.3945,-0.1857,0.0036652,0.033292
0.55161,3.3343,-2.6086,8.3749,-0.1741,-0.045509,0.046731
0.54407,3.0989,-2.6086,8.4141,-0.12553,-0.094379,0.047342
0.5383,3.3343,-2.5105,8.2768,-0.060781,-0.12889,0.04215
0.53137,3.0793,-2.6086,8.4141,0.0064141,-0.14355,0.039095
0.51532,3.0793,-2.7655,8.4141,0.014966,0.27855,0.0042761
0.51279,3.2754,-2.9028,8.2572,-0.079412,0.219,0.018937
0.51526,3.0204,-2.9224,8.2572,-0.10996,0.1463,-0.056505
0.49377,2.9028,-2.6086,8.4141,-0.084299,0.084299,-0.080023
0.47119,2.8635,-2.2948,8.4141,-0.049175,0.055589,-0.087965
0.41928,3.2558,-2.2751,8.4926,-0.014355,0.054367,-0.083994
0.38541,3.2166,-2.432,8.5318,0.27672,0.055894,-0.06017
0.3421,3.1185,-2.5693,8.4141,0.14752,0.049175,-0.018631
0.30368,3.0008,-2.4713,8.4141,-0.037568,0.0082467,-0.058643
0.26917,2.7459,-2.589,8.6299,-0.039401,-0.0058032,-0.024129
0.25009,2.8635,-2.589,8.7083,-0.034514,0.0009163,-0.01405
0.21921,3.2166,-2.5105,8.5514,-0.047037,0.026267,-0.020159
0.19608,3.0793,-2.6086,8.316,-0.10507,0.052534,-0.025962
0.18393,3.0597,-2.9028,8.0807,-0.16035,0.061392,-0.035125
0.17181,2.7459,-2.9028,8.0611,-0.11576,0.063835,-0.047342
0.1774,2.6086,-2.432,8.9437,0.02474,0.082772,-0.064141
0.18491,2.687,-1.8829,9.3555,0.16554,0.10201,-0.002138
0.20978,2.8047,-1.4122,9.2183,0.23763,0.090408,-0.021991
0.19934,2.8047,-1.7848,8.4141,0.21838,0.036957,0.013744
0.17792,3.2558,-2.7459,7.6296,0.15363,-0.037568,0.036957
0.1597,3.4912,-3.7658,7.3158,0.083383,-0.090713,0.045815
0.15741,3.7461,-3.9423,7.61,-0.023824,-0.13806,0.067195
0.1524,3.3146,-3.3931,8.0807,-0.16921,-0.1857,0.088881
0.13702,2.942,-2.3732,8.6299,-0.30757,-0.20311,0.054062
0.1297,2.4909,-1.726,8.8064,-0.26878,-0.19273,-0.021686
0.11548,2.3732,-1.8044,8.9437,-0.059865,-0.15302,-0.032681
0.13528,2.8047,-2.1378,8.7475,0.16096,-0.064752,-0.03543
0.16306,2.687,-2.3732,8.6887,0.32529,0.061697,-0.059559
0.21829,2.7459,-2.6086,8.7868,0.39584,0.1854,-0.06689
0.23743,2.6478,-2.4124,8.7475,0.3708,0.27458,-0.044288
0.25876,2.687,-2.2555,8.8064,-0.3992,0.31704,-0.02138
0.27957,2.6086,-2.432,8.6299,-0.39401,0.31521,-0.017715
0.29684,3.1185,-2.6086,8.4141,-0.051313,-0.027794,0.065668
0.33841,3.0597,-3.0008,9.0221,-0.16585,-0.071777,0.053451
0.37064,3.1185,-2.7655,8.7279,-0.19578,-0.10629,0.08491
0.38824,3.3735,-2.7655,8.4926,-0.13195,-0.12217,0.06689
0.38715,3.2558,-2.9028,7.8453,-0.059254,-0.096211,0.048564
0.39182,3.0204,-2.9028,8.8064,-0.024435,-0.078496,0.025962
0.40848,3.3146,-2.589,9.0417,-0.066279,-0.093768,0.010996
0.41345,3.5892,-1.4906,7.9434,-0.22449,-0.12584,0.039706
0.36404,3.3735,-0.56879,6.5508,0.35766,0.56474,-0.17929
0.28467,2.7851,-1.0003,6.5116,0.33598,0.51007,-0.20953
0.21088,2.8635,-2.7459,7.9042,0.41172,0.47037,-0.17226
0.17575,3.7854,-4.6484,8.8456,0.55864,0.46823,-0.11209
0.21365,3.2558,-4.766,8.2572,0.56841,0.41386,-0.059559
0.31104,3.0008,-3.6873,8.5318,0.36499,0.2416,-0.029627
0.35776,2.1771,-2.8243,8.8456,0.10568,0.0085521,-0.031765
0.3512,1.8633,-1.9613,8.1591,-0.10018,-0.17226,-0.07086
0.27048,0.90221,-1.4122,10.925,-0.2022,-0.23976,0.16127
0.18634,1.0395,-1.1768,11.454,-0.14966,-0.22755,0.13714
0.089233,2.1575,-1.118,8.7083,-0.074831,-0.17196,-0.069028
0.0099792,2.2163,-1.471,7.3746,-0.044288,-0.11484,-0.051313
-0.048431,2.2948,-1.824,8.0807,-0.057421,-0.094073,-0.0061087
-0.066956,2.687,-2.1967,8.7279,-0.045204,-0.089492,0.052229
-0.063599,2.7066,-2.5693,8.9437,-0.054367,-0.064446,0.092546
-0.008667,2.9224,-2.687,8.7083,-0.10293,-0.065057,0.13195
0.083038,3.0597,-3.0401,8.7083,-0.15608,-0.08491,0.10415
0.18991,2.9028,-2.589,8.5514,-0.17349,-0.097128,0.10263
0.31433,2.9224,-1.9809,8.7083,-0.1295,-0.098044,0.091324
0.41925,2.7851,-1.5691,9.2575,-0.033598,-0.084605,0.058948
0.5072,2.942,-2.1967,8.7083,0.087048,-0.05284,0.039706
0.58887,2.9028,-3.2362,8.5318,0.17196,-0.015272,0.033598
0.68762,1.9613,-2.7262,9.5321,0.17104,0.009163,0.055283
0.7204,1.8437,-1.5691,9.0221,0.083078,0.011912,0.089492
0.69955,2.2359,-1.3533,7.5511,-0.1631,-0.039706,-0.038485
0.63089,2.4517,-2.6282,7.61,-0.066584,-0.030543,-0.04948
0.55051,3.1774,-3.6285,8.0807,0.070555,0.010079,-0.0039706
0.49243,2.9616,-3.3735,9.0417,0.18845,0.062003,-0.0094684
0.46259,2.9224,-2.7459,8.9437,0.22969,0.099571,-0.0030543
0.43744,2.8047,-2.5693,8.4926,0.18937,0.095906,0.0061087
0.41605,3.1774,-2.8243,7.9434,0.097128,0.064141,0.0039706
0.3988,3.4127,-2.7655,8.0807,0.013744,0.034514,-0.011912
0.36258,3.5696,-2.6674,8.1787,0.016493,0.022297,-0.011912
0.32843,3.3931,-2.0594,8.316,0.047647,0.031154,-0.025351
0.29764,3.2558,-1.8829,8.4141,0.063835,0.042761,-0.043982
0.27301,3.0989,-2.2751,8.4141,0.049175,0.053756,-0.040623
0.26065,3.197,-2.9028,8.7083,0.00061087,0.069333,-0.040012
0.24713,3.3735,-3.2166,8.316,-0.0281,0.08827,-0.031765
0.228,3.2362,-2.9028,8.3357,-0.022907,0.092852,-0.02138
0.20892,3.0989,-2.1575,8.4141,-0.01405,0.081245,-0.012217
0.19061,2.7655,-2.2555,8.4337,0.064446,0.072693,0.042761
0.16904,2.9224,-2.6282,8.316,0.10446,0.065668,0.074526
0.14655,2.942,-2.6282,8.4926,0.10812,0.062614,-0.02138
0.14597,3.0008,-2.6086,8.316,0.094379,0.0562,0.0030543
0.117,2.7066,-2.4124,8.1787,0.06017,0.037874,0.015272
0.1091,2.6086,-2.5105,8.3749,0.0045815,0.026573,0.0076358
0.092499,2.8439,-2.6282,8.7083,-0.018631,0.021686,-0.0027489
0.077118,2.9028,-2.6086,8.9633,0.013134,0.0064141,0.0085521
0.04538,2.9224,-2.3536,8.6299,-0.021075,-0.016493,0.027794
0.0016785,2.7851,-1.8829,8.8064,0.067501,-0.043371,-0.022602
-0.045532,2.9028,-2.1182,8.4729,0.17929,-0.054062,0.070555
-0.089233,3.0793,-2.7459,8.2768,0.22785,-0.015577,0.034514
-0.13031,3.0793,-2.4713,8.2768,0.16799,0.054062,-0.0018326
-0.1571,2.687,-2.4124,8.5318,0.051007,0.093462,0.010385
-0.1925,3.1774,-2.4517,8.7083,-0.042761,0.073304,0.057421
-0.24252,3.4127,-2.7459,8.5514,-0.055589,0.021686,0.070555
-0.28137,3.6285,-2.687,7.708,0.18937,0.09499,-0.07758
-0.31067,3.3146,-2.6086,7.8453,0.22571,0.1689,-0.069333
-0.3317,3.2558,-2.5105,8.1003,0.17501,0.19792,-0.011606
-0.36057,3.6285,-2.8439,8.4926,0.069944,0.18021,0
-0.3804,3.2558,-2.687,8.6299,-0.032987,0.14539,-0.0082467
-0.37204,3.0008,-1.9809,8.6495,-0.076358,0.12248,-0.042455
-0.35828,2.8047,-2.3144,8.5514,-0.034514,0.11759,-0.07025
-0.34122,2.4713,-2.5105,8.4337,0.076664,0.13256,-0.07758
-0.34341,1.7064,-1.9809,8.3945,0.197,0.16066,-0.065973
-0.35468,0.8826,-1.3533,9.8066,0.27245,0.1857,-0.11423
-0.37311,0.82376,-1.726,10.415,0.28527,0.18784,-0.043066
-0.40601,2.4713,-1.8829,8.7083,0.22205,0.14936,-0.0024435
-0.46231,2.3732,-1.6475,8.0807,0.1518,0.10079,0.042761
-0.50778,2.432,-1.6475,8.6887,0.10232,0.048869,0.058032
-0.5477,3.0008,-2.5693,8.6887,0.078191,-0.028711,0.024129
-0.49402,3.0989,-2.9028,8.3749,0.050091,-0.1127,-0.029016
-0.42719,2.942,-2.432,8.5318,-0.013744,-0.19761,0.11881
-0.35239,2.6086,-1.824,8.7083,-0.06689,-0.24251,0.14569
-0.2565,2.6086,-2.0398,8.7083,-0.094379,-0.22846,-0.14722
-0.19241,2.6478,-2.3536,8.5514,-0.135,-0.18448,-0.15119
-0.13455,2.3732,-2.3732,9.1202,-0.18509,-0.13653,-0.11942
-0.090118,2.334,-1.7456,9.1202,-0.23427,-0.086437,-0.053756
-0.044525,2.1575,-1.5887,8.9633,-0.25687,-0.026878,0.019548
-0.010254,2.0594,-2.5105,9.5713,-0.2306,0.039095,0.080634
0.045319,1.7456,-2.589,10.317,-0.11362,-0.098349,-0.042455
0.090546,2.2359,-1.4906,8.5318,-0.0085521,-0.040317,-0.03146
0.10672,2.0594,-0.68647,7.4531,0.060476,0.0042761,-0.13347
0.087555,2.3732,-0.86299,7.8061,0.040623,0.011301,-0.12492
0.047333,2.7655,-1.7848,8.0022,-0.054062,-0.030238,-0.082161
-0.0021667,2.2948,-2.5301,8.2572,-0.13317,-0.06353,-0.042761
-0.060822,2.0006,-2.7459,9.2575,-0.13317,-0.050702,-0.040928
-0.10318,1.9809,-3.0793,9.8851,-0.033598,0.010385,-0.045509
-0.13058,2.5497,-2.7459,9.1594,-0.041539,0.06017,0.023824
-0.10724,2.6282,-2.0594,8.7083,0.0097738,0.085827,0.030849
-0.069214,2.9224,-1.2553,8.4141,0.080023,0.10996,0.0042761
-0.039856,2.8635,-1.5102,8.316,0.14691,0.13744,0.0018326
-0.020844,2.8635,-2.1378,9.1006,0.18784,0.16799,-0.0051924
0.019562,3.0793,-2.3732,9.179,0.19853,0.20983,-0.0058032
0.078461,3.0008,-1.9613,9.1986,-0.12004,0.24038,0.0009163
0.13937,3.1577,-1.8044,8.7279,-0.087048,0.23824,0.011606
0.2193,3.2166,-1.4906,7.9826,0.041233,0.20342,0.02474
0.28824,3.1774,-1.4318,7.7473,0.030849,0.14111,0.017104
0.35315,2.687,-2.0986,8.2376,0.034208,0.083383,0.019853
0.37387,2.4909,-2.3732,9.0025,-0.0012217,0.042455,0.0051924
0.37851,2.2948,-2.4517,9.2575,-0.10629,0.02138,0.010996
0.38574,2.3928,-2.5301,9.0613,-0.24282,0.0012217,0.034819
0.38272,2.589,-2.7459,9.1202,0.16738,-0.033598,0.06689
0.41263,2.2751,-2.6282,8.7868,0.095295,-0.050396,0.065057
0.42441,2.5497,-2.1967,8.316,0.18967,-0.030849,-0.13897
0.45602,2.6086,-2.0398,8.2572,-0.27733,0.095295,-0.13897
0.4613,3.0793,-1.9613,8.3749,-0.088881,0.30849,0.057421
0.45859,3.0793,-2.1575,8.5906,0.076664,0.35736,0.087659
0.44095,2.7851,-2.2751,8.4926,0.057116,0.26176,0.10415
0.4147,2.942,-2.3144,8.316,-0.045815,0.12859,0.0956
0.36298,2.8635,-2.0594,8.6299,-0.091019,0.031765,0.036652
0.29907,2.432,-1.9809,9.1986,-0.0045815,0.009163,-0.072082
0.25827,2.0202,-1.9809,9.5713,-0.0064141,-0.06017,-0.014966
0.20706,2.0594,-1.7456,9.0417,0.078802,-0.059254,-0.0064141
0.16116,2.0006,-1.9809,9.1202,0.15821,-0.044593,-0.011912
0.11163,2.2751,-2.5105,8.4141,0.18601,-0.015577,-0.002138
0.04184,2.4517,-3.0008,6.1978,0.13836,0.0058032,0.010079
-0.049408,1.5495,-2.432,8.4926,0.041539,0.011301,0.010996
-0.12988,1.216,-2.7459,10.003,-0.047647,0.016493,0.0061087
-0.19919,1.9221,-2.7262,9.1202,-0.10751,0.034819,-0.0076358
-0.23334,2.6086,-2.2751,9.0417,0.56719,0.35736,-0.063225
-0.19507,2.687,-1.9809,9.179,0.47006,0.38485,-0.027184
-0.11935,2.687,-1.6279,9.179,0.29077,0.34819,0.10599
-0.024109,2.4517,-1.3729,9.2575,0.13806,0.28619,0.063835
0.082458,2.8635,-1.4318,8.7279,0.068417,0.22694,0.01069
0.18134,2.7851,-1.4906,8.1199,0.043677,0.18876,-0.029322
0.27536,3.0989,-1.2749,7.7865,0.016188,0.16066,-0.058643
0.35605,2.4713,-1.6475,8.2572,-0.027489,0.13683,-0.07422
0.41284,2.4517,-2.7459,9.3359,-0.065973,0.12553,0.057421
0.45511,2.6282,-3.3931,9.5713,-0.075136,0.11148,-0.052229
0.50766,2.6086,-3.2362,8.316,-0.059559,0.10751,0.015882
0.51819,2.1771,-1.9613,7.2373,0.049175,0.090408,0.064141
0.45203,1.3337,-1.9809,8.7475,0.081245,0.10507,0.14142
0.32263,1.3729,-3.5108,10.297,-0.17593,0.093157,0.25076
0.17648,2.7459,-3.0401,9.8851,-0.50396,-0.11637,0.33567
0.058655,2.4517,-1.3533,8.7475,-0.62156,-0.38729,0.23152
-0.029144,2.6282,-0.019613,8.2768,0.20739,-0.014355,-0.093157
-0.070923,3.0008,0.19613,8.218,0.40164,-0.046731,-0.056505
-0.1134,2.9616,-0.86299,8.6299,0.54978,-0.080634,-0.14661
-0.084747,3.3146,-2.432,8.2572,0.65485,-0.086743,-0.1744
-0.051849,3.5696,-3.2362,7.61,0.64477,-0.10415,-0.17135
0.03653,3.3146,-3.3539,7.4923,0.52198,-0.13042,-0.1628
0.13605,2.7851,-2.7459,8.4141,0.30146,-0.13042,-0.15149
0.22717,2.4713,-2.1182,9.5125,0.00061087,-0.13011,-0.13011
0.28467,1.9221,-1.7456,9.0417,-0.61942,-0.15882,0.059254
0.30435,2.0594,-1.7848,9.179,-0.88514,-0.21105,0.098349
0.30344,1.9613,-1.9809,9.0613,-0.94501,-0.25626,-0.03207
0.29773,1.7456,-1.8829,9.5321,-0.80787,-0.23549,-0.022602
0.25134,1.824,-1.3533,8.7279,-0.53481,-0.15699,-0.046426
0.15903,0.56879,-1.118,9.9832,-0.17104,-0.034208,-0.075442
0.069244,1.1964,-2.2555,10.748,0.19487,0.11087,-0.066279
0.0019531,2.7851,-3.4519,7.9434,0.48197,0.25015,-0.007025
-0.062714,2.9224,-2.6086,6.9235,-0.23885,-0.033292,0.049786
-0.0896,2.1182,-1.118,8.0807,-0.27397,-0.0281,0.038179
-0.13379,1.4318,-1.1768,10.16,-0.31124,-0.023824,0.05681
-0.18707,2.2359,-2.2555,9.0417,-0.3485,-0.027794,0.072998
-0.22653,3.2558,-4.158,8.316,-0.37141,-0.038179,0.089492
-0.22089,3.55,-4.0011,8.0611,-0.35919,-0.051618,0.10079
-0.18033,2.6478,-1.5102,9.5713,-0.14386,-0.084299,0.096517
-0.15634,1.824,0.52956,9.4732,-0.19059,-0.12095,0.073915
-0.12686,2.3928,-0.098066,8.1787,0.55283,0.20097,-0.12065
-0.099701,3.0597,-1.6475,8.0611,0.39828,0.19731,-0.10996
-0.047699,3.0597,-3.3146,8.5514,0.0076358,0.13011,0.17379
0.033539,3.6285,-3.0793,8.3749,-0.37721,0.092546,0.1011
0.15146,2.8832,-2.2751,9.179,-0.54459,0.10415,0.066584
0.23331,2.4517,-1.3729,8.8064,-0.45143,0.022602,0.10201
0.2518,2.3732,-0.39227,7.0608,-0.17532,-0.084299,0.15455
0.20132,1.0787,-3.55,9.4144,0.25809,-0.043677,0.074831
0.15399,2.6478,-4.7072,9.8263,0.4215,0.028405,-0.0073304
0.15909,2.9028,-1.4906,9.6694,0.031154,0.084605,0.022907
0.14117,2.0006,0.19613,8.4926,-0.33567,0.020159,0.036652
0.12402,2.4909,-0.70608,7.8061,-0.60201,-0.14416,0.098349
0.12994,3.2166,-2.3732,7.963,-0.7028,-0.27214,0.044899
0.1969,3.3146,-3.55,8.1787,-0.63713,-0.33017,-0.018631
0.31494,3.2558,-3.197,8.7868,0.5904,-0.32284,-0.018326
0.45065,2.9028,-2.2948,8.9633,0.65332,-0.28039,-0.012217
0.56903,2.6086,-1.8829,8.8064,0.057116,-0.19731,0.043982
0.65277,2.7851,-2.1182,8.4926,0.1854,-0.072388,0.045815
0.69333,2.6282,-1.9809,8.7083,0.18082,0.03879,0.054672
0.71155,2.5497,-1.8829,8.8064,0.097128,0.098044,0.088575
0.71057,2.687,-2.3144,8.7279,-0.0076358,0.099571,0.11362
0.7081,2.6282,-2.7655,8.7083,-0.092546,0.054367,0.10568
0.68573,2.687,-2.9028,8.7083,-0.4612,0.0039706,0.082161
0.68747,2.9616,-2.7851,8.5514,-0.20067,-0.027184,0.055894
0.6723,2.7851,-2.432,8.5318,0.054672,0.029627,-0.022297
0.66235,2.6478,-2.589,8.6299,-0.012828,0.017104,0.0064141
0.64172,2.8635,-2.3732,7.61,-0.083689,0.0024435,0.015272
0.6113,2.8635,-3.0401,8.0611,-0.14783,-0.0085521,0.011912
0.57684,3.0008,-3.197,8.7083,-0.18845,-0.01741,0.0076358
0.52515,3.0793,-3.1381,8.7279,-0.16707,-0.015577,-0.0018326
0.48038,2.7459,-2.7459,8.5514,-0.075747,0.012217,-0.023213
0.44092,2.6282,-2.432,8.4141,0.03543,0.064141,-0.036652
0.38739,2.7851,-2.687,8.4141,0.11057,0.10629,-0.034208
0.33228,2.7851,-2.6086,8.5318,0.13408,0.10843,-0.018326
0.27646,2.7851,-2.2751,8.5318,0.12309,0.083994,0.022602
0.22412,3.0008,-2.1575,8.5318,0.094073,0.046426,0.017715
0.17139,3.0008,-2.6086,8.4926,0.051924,0.011606,0.009163
0.12106,2.8635,-2.8243,8.316,-0.0048869,-0.016493,0.0045815
0.079559,2.8635,-3.0989,8.2376,-0.053451,-0.033292,-0.010079
0.044586,2.8635,-2.687,8.4141,-0.08094,-0.026573,-0.031154
0.012604,2.687,-2.432,8.7475,-0.12004,-0.02138,0.021075
-0.01825,2.7851,-2.4124,8.9633,-0.10599,-0.021991,0.031154
-0.045105,2.687,-2.589,8.7475,-0.069639,-0.014661,-0.016799
-0.062378,2.6478,-2.6086,8.2768,-0.024435,0.007025,-0.021075
-0.072144,2.8047,-2.5105,8.2572,0.024129,0.026573,-0.012828
-0.087585,2.7655,-2.6674,8.2572,0.06689,0.039706,-0.0012217
-0.11441,2.6478,-2.6086,8.5318,0.083994,0.045815,0.0073304
-0.13983,2.7655,-2.5105,8.6299,0.076969,0.043677,0.014966
-0.16129,2.6086,-2.4124,8.7083,0.066584,0.033292,-0.0085521
-0.18869,2.7066,-2.3144,8.5514,0.046731,0.016188,-0.022907
-0.21729,2.8635,-2.2751,8.4926,0.013134,-0.0012217,0.040928
-0.24695,2.8439,-2.7851,8.4141,-0.030238,-0.0024435,0.044593
-0.27405,3.0008,-3.1577,8.5514,-0.061697,-0.0045815,0.044288
-0.30185,2.9028,-3.0008,9.0613,-0.048869,-0.030238,0.053451
-0.34399,2.7066,-2.2948,8.6299,0.014355,-0.044899,0.058032
-0.40015,2.6478,-1.6279,8.0807,0.10232,-0.028711,0.028711
-0.49203,2.7655,-2.6086,7.9434,-0.49999,-0.13897,0.035125
-0.5813,3.0793,-3.4519,9.1202,-0.14294,0.0030543,0.0039706
-0.65933,2.6478,-3.0793,9.4928,0.17654,0.15516,0.020159
-0.73541,2.6478,-1.6867,9.179,0.31337,0.25107,0.089492
-0.81918,2.7459,-1.0199,8.1199,0.26786,0.25992,0.19212
-0.87653,2.4517,-1.3533,8.0218,0.10965,0.18723,0.21472
-0.91284,2.8635,-1.8437,7.5511,-0.061087,0.10201,0.16616
-0.91702,2.9224,-3.3539,8.5318,-0.1631,0.060476,0.095295
-0.92352,3.4912,-4.0796,8.7475,0.079107,0.069028,0.015272
-0.91129,3.6873,-2.7655,8.7868,0.17959,0.11698,-0.027489
-0.87814,2.7655,-0.94144,9.0613,0.20403,0.17318,0.0076358
-0.84723,2.432,-0.27459,8.7083,0.15272,0.20464,0.031765
-0.83255,2.7066,-0.86299,8.316,0.062003,0.19487,0.057421
-0.78476,2.942,-2.6086,8.4337,-0.069333,0.13806,0.08094
-0.68259,3.6285,-3.8834,8.1199,-0.15333,0.066279,0.082772
-0.57101,3.7854,-3.1381,8.316,-0.053451,0.007025,0.047953
-0.43417,3.1774,-2.2751,8.4337,-0.15821,-0.029932,-0.020464
-0.33856,2.7066,-2.2555,8.6299,0.14325,-0.048258,-0.064446
-0.27734,3.0008,-2.9812,8.4926,0.47617,-0.027489,-0.082161
-0.22043,2.8635,-2.9224,8.1787,0.76053,0.055283,-0.11698
-0.18005,2.6478,-2.2948,8.7475,0.86926,0.14142,-0.14813
-0.16104,2.1771,-2.0986,9.434,0.71288,0.1912,-0.16982
-0.14307,2.4909,-2.4124,9.1986,-0.2193,0.17898,-0.10324
-0.15906,2.8635,-2.9028,8.1787,-0.28772,0.088575,-0.013134
-0.090515,2.6478,-3.8638,7.9434,-0.46731,-0.044899,0.048869
-0.042786,2.6086,-3.5696,9.0417,-0.72876,-0.16218,0.092546
0.016602,1.5495,-1.7456,10.258,-0.91813,-0.22419,-0.09163
0.032501,1.7456,0.039227,9.434,-0.98441,-0.25717,-0.083689
-0.0056458,2.1771,0.52956,7.8649,-0.85185,-0.32193,-0.040623
-0.082794,2.1182,-1.0199,7.9434,-0.54856,-0.3766,0.01069
-0.16376,2.8439,-3.3931,7.8649,0.33262,-0.354,0.018326
-0.19647,4.0207,-4.3934,7.8649,-0.11087,-0.23213,0.01405
-0.17734,4.06,-3.7658,8.1787,-0.1631,-0.092852,-0.025351
-0.13412,3.2558,-2.7655,8.8652,-0.12401,-0.07086,-0.030543
-0.082886,2.9224,-1.9613,8.8652,-0.076053,-0.043066,-0.0051924
-0.067993,2.9224,-2.0594,8.5514,-0.040623,-0.016188,-0.0033598
-0.040497,3.2166,-2.2948,8.5318,-0.023824,0.0027489,-0.0042761
-0.042419,3.0597,-2.589,8.316,-0.01405,0.017104,-0.0073304
-0.033936,2.7655,-2.589,8.4926,-0.015882,0.032987,-0.011912
-0.042938,2.7459,-2.6282,8.8652,-0.02474,0.052229,-0.018631
-0.040497,2.6086,-2.1967,8.8848,-0.034819,0.065057,-0.065668
-0.043793,2.2948,-1.9809,8.8456,-0.034514,0.069028,-0.050396
-0.046478,2.6478,-2.5105,8.5514,-0.032681,0.069639,-0.036041
-0.040527,2.8047,-2.9028,8.1003,-0.027489,0.062919,-0.044288
-0.031219,2.9224,-2.6674,8.4141,-0.010385,0.049175,-0.040623
-0.020813,3.0008,-2.4124,8.6887,0.025045,0.037568,-0.042455
-0.0047913,2.7851,-2.1575,8.7083,0.065057,0.041539,-0.060476
0.0032959,2.942,-2.2751,8.5514,0.079718,0.053145,-0.075747
-0.015778,3.0597,-2.589,8.3945,0.062308,0.062308,-0.039706
0.0011597,3.1774,-2.7459,8.3357,0.015882,0.06017,-0.033598
-0.0036926,3.0597,-2.7655,8.2572,-0.041539,0.03879,-0.043066
-0.0057983,3.2362,-2.7459,8.2572,-0.090103,0.016493,-0.044593
-0.0057678,3.2558,-2.6674,8.2768,-0.10965,0.0030543,-0.047037
0.00015259,3.1774,-2.6086,8.2572,-0.1014,-0.0030543,-0.051007
-0.006958,3.0008,-2.687,8.4337,-0.076358,0.0082467,-0.051618
-0.020477,2.7851,-2.6086,8.7083,-0.048564,0.028405,-0.044288
-0.031891,2.9224,-2.8832,8.5514,0.04612,-0.002138,0
-0.057495,2.8047,-2.7459,8.5514,0.043677,-0.00030543,-0.0051924
-0.069855,2.6282,-2.3732,8.3749,-0.018021,-0.032681,0.058032
-0.084991,2.6282,-2.1967,8.4337,-0.095295,-0.07025,0.053756
-0.094604,2.8635,-2.3732,8.3945,-0.15211,-0.094684,0.038179
-0.11926,2.9224,-2.7459,8.2572,-0.1799,-0.10476,0.025962
-0.13748,3.0793,-2.687,8.3749,-0.18723,-0.10599,0.021686
-0.1459,3.0793,-2.6282,8.4141,-0.18295,-0.10354,0.012828
-0.15073,2.942,-2.7655,8.5318,-0.040012,-0.011606,-0.0058032
-0.15189,3.0597,-2.5693,8.6299,-0.061392,-0.018937,-0.0061087
-0.15216,3.0008,-2.3732,8.7083,-0.076053,-0.019242,0.0051924
-0.15674,2.7851,-2.2555,8.6887,-0.07758,-0.022297,0.007025
-0.17108,2.8635,-2.0594,8.316,-0.069028,-0.027794,0.0048869
-0.18771,3.0008,-2.3732,8.4141,-0.051007,-0.029932,0.0042761
-0.21149,3.0204,-2.6674,8.316,0.015272,-0.026267,0.0024435
-0.22592,3.4323,-2.8439,8.2572,-0.012217,-0.021686,-0.002138
-0.24655,3.0989,-2.7262,8.4729,0.024435,-0.016188,-0.010385
-0.26508,3.1774,-2.687,8.4926,0.018937,-0.0082467,-0.0076358
-0.28247,2.8635,-2.7459,8.4926,-0.0076358,0.0018326,-0.0097738
-0.28638,2.8635,-2.687,8.2572,-0.042455,0.0097738,-0.0085521
-0.29303,2.6086,-2.6086,8.4337,-0.062614,0.007025,-0.002138
-0.32437,2.6086,-2.5105,8.5514,-0.061087,-0.0064141,0.0009163
-0.3623,2.432,-2.3144,8.8652,-0.02474,-0.018021,0
-0.38916,2.2359,-2.1575,8.9437,0.0064141,-0.016493,-0.0054978
-0.41626,2.2948,-2.2948,8.7083,0.069333,0.11576,-0.0082467
-0.44427,2.4517,-2.4909,8.5514,0.065973,0.11668,-0.012523
-0.45392,2.6086,-2.7262,8.6887,0.067195,0.1124,-0.039095
-0.46475,2.6282,-2.5105,8.5318,0.077885,0.11209,-0.043677
-0.46964,2.9028,-2.432,8.4926,0.091324,0.11454,-0.043677
-0.46509,2.942,-2.3144,8.4926,0.098655,0.1127,-0.037263
-0.46106,3.0008,-2.4124,8.4926,0.083078,0.099571,-0.023824
-0.45438,3.0597,-2.5693,8.5514,0.039095,0.071471,-0.011606
-0.45071,2.9224,-2.6086,8.4141,-0.10476,0.036346,0.0018326
-0.43823,2.9028,-2.6282,8.4141,-0.10568,0.0045815,0.00061087
-0.41742,2.8635,-2.5105,8.3749,-0.074526,-0.019853,-0.023213
-0.39841,2.7459,-2.2751,8.4729,-0.029016,-0.032376,-0.032376
-0.38406,2.7459,-2.4517,8.6299,0.0094684,-0.029932,-0.03543
-0.37222,3.0008,-2.5105,8.4926,0.027184,-0.019242,-0.034514
-0.35995,2.7459,-2.432,8.6299,-0.022297,-0.0082467,-0.022907
-0.34937,2.9224,-2.432,8.5318,-0.076053,-0.0045815,-0.0061087
-0.33673,2.8635,-2.6086,8.3945,0.43433,0.099876,0.0281
-0.31192,2.7655,-2.942,8.7083,0.49114,0.10965,0.034819
-0.27316,3.0793,-2.6674,8.4141,0.44929,0.10171,-0.082467
-0.25363,3.1577,-2.6086,8.3945,0.35277,0.06353,-0.048869
-0.24899,3.0793,-2.5105,8.316,0.23549,0.010385,-0.020159
-0.24146,3.0008,-2.4713,8.4141,0.086132,-0.035736,-0.0045815
-0.22189,2.9616,-2.6086,8.316,-0.10934,-0.08827,0.0058032
-0.22342,2.8047,-2.687,8.4141,-0.32284,-0.17318,0.019548
-0.24451,2.9224,-2.6282,8.4926,-0.38851,-0.27306,0.038179
-0.25925,2.687,-2.432,8.5318,-0.40592,-0.30788,-0.0042761
-0.26349,2.687,-2.3732,8.5514,-0.46334,-0.25626,0.035125
-0.28308,2.7066,-2.2751,8.5514,-0.37629,-0.14813,0.062614
-0.28824,2.7459,-2.1575,8.4926,-0.2022,0.0094684,0.14539
-0.30319,2.8635,-2.4124,8.5514,-0.039095,0.079412,0.22235
-0.31277,3.0008,-2.589,8.7083,-0.087048,-0.01405,0.22358
-0.32407,2.9616,-2.3732,8.5514,-0.30085,-0.14997,0.12553
-0.33862,2.9224,-2.432,8.4926,0.025656,0.069639,-0.025656
-0.35989,2.942,-2.589,8.4141,0.041539,0.082467,-0.015272
-0.36923,3.0008,-2.6674,8.4141,0.03207,0.080329,0.021075
-0.38086,2.7851,-2.5105,8.4926,-0.00030543,0.068111,0.015882
-0.40903,2.4713,-2.5301,8.6887,-0.020769,0.061087,0.0067195
-0.42505,2.6086,-2.6282,8.6887,-0.010996,0.062919,-0.0024435
-0.44257,1.824,-3.3146,8.5514,0.015272,0.074526,-0.007025
-0.44632,2.1182,-3.0793,8.9437,0.056505,0.0956,-0.016188
-0.43411,2.1575,-2.3144,9.2183,0.097433,0.12187,-0.13714
-0.41669,2.1771,-1.3729,9.0417,0.075442,0.13744,-0.1182
-0.40433,2.2948,-1.0003,9.0221,0.013744,0.13683,-0.0036652
-0.39264,2.4713,-1.3533,9.8066,-0.087354,0.14966,-0.013134
-0.38614,2.6282,-2.1378,9.179,-0.15211,0.14875,-0.034514
-0.39655,3.1185,-2.0594,7.2961,-0.088881,0.10537,-0.057421
-0.44516,3.3735,-1.9809,6.3743,0.084605,0.078802,-0.094073
-0.53839,2.9224,-2.8243,9.8066,0.28436,0.081856,-0.12828
-0.62845,3.1185,-4.0207,9.1202,-0.035125,0.016493,-0.0036652
-0.67999,4.3345,-2.8243,7.8453,-0.085521,0.012523,0.0018326
-0.72412,3.4127,-1.4318,7.1589,-0.1069,-0.01069,0.05284
-0.77234,2.4713,-1.0003,8.5514,-0.094073,-0.046426,0.043371
-0.81287,3.1577,-1.9809,9.3163,-0.067501,-0.067806,0.026267
-0.82303,3.5696,-2.7655,8.316,-0.053451,-0.065973,0.010079
-0.77637,3.5696,-3.2166,7.8453,0.026878,-0.049175,-0.0064141
-0.7168,3.2362,-3.6873,8.4926,0.012523,-0.03207,-0.011912
-0.67593,3.1774,-3.2362,7.5903,0.060781,0.053451,-0.015272
-0.68176,2.687,-2.1967,7.2373,0.090103,0.082161,-0.037568
-0.70749,0.098066,-2.0006,11.14,0.014661,0.033292,-0.01405
-0.70999,0.66685,-1.9809,10.885,-0.11484,-0.050702,0.043371
-0.71762,3.0793,-1.9809,7.963,-0.20281,-0.12034,0.069333
-0.68149,2.1575,-1.6475,7.4531,-0.2135,-0.15852,0.061392
-0.65378,1.5495,-1.5102,8.6299,-0.19823,-0.17685,0.047342
-0.59839,1.824,-1.8829,9.5713,-0.17532,-0.18326,0.025656
-0.52386,2.2359,-2.589,9.0417,-0.085827,-0.18204,-0.012523
-0.41559,2.6086,-3.0401,8.8652,-0.050396,-0.16554,-0.010385
-0.28616,2.7851,-3.0008,8.4926,-0.023824,-0.13042,-0.03207
-0.1329,3.0793,-2.8832,8.1787,-0.009163,-0.094379,-0.02474
-0.00064087,3.0793,-2.3732,8.2572,-0.025045,-0.06353,-0.023824
0.13196,2.7851,-2.0398,8.7279,-0.064446,-0.041539,-0.020769
0.22684,2.9224,-2.0594,8.5514,-0.15149,-0.034819,-0.01741
0.27859,3.0989,-2.2751,8.6299,-0.12217,-0.043066,-0.014355
0.3103,3.1185,-2.5105,8.4141,-0.15821,-0.05284,0.030238
0.30753,3.0008,-2.6282,8.316,-0.15455,-0.061697,0.044288
0.28949,2.9224,-2.6086,8.4337,-0.12431,-0.075136,-0.0042761
0.24765,2.687,-2.4713,8.5514,-0.080329,-0.075136,-0.0015272
0.21182,2.687,-2.3732,8.8064,-0.031765,-0.058948,-0.0058032
0.15781,2.7851,-2.5693,8.4926,0.0097738,-0.036957,0.0009163
0.088348,2.9224,-2.589,8.3749,-0.099876,-0.01405,0.018937
0.034546,2.7851,-2.4713,8.4337,-0.13317,0.0067195,0.026878
-0.012573,2.7851,-2.6086,8.4926,0.11362,0.098349,-0.012828
-0.047913,2.5497,-2.6674,8.8064,0.041844,0.06689,-0.0085521
-0.057068,3.0008,-2.2948,8.6299,-0.025351,0.030849,-0.027794
-0.083496,2.7851,-2.3732,8.4337,-0.010079,0.0094684,-0.051924
-0.10822,3.0008,-2.589,8.1787,0.083078,0.018937,-0.075136
-0.13934,3.0008,-2.687,8.316,0.18265,0.051313,-0.076358
-0.15997,2.8635,-2.687,8.7279,0.23549,0.077274,-0.054672
-0.18665,2.8439,-2.5105,8.8652,0.22816,0.068722,-0.03146
-0.20197,2.7655,-2.5105,8.4337,0.20189,0.027794,-0.026573
-0.23071,2.8047,-2.687,8.2572,0.20372,-0.0073304,-0.058338
-0.2612,3.0793,-3.0008,8.0807,0.20831,-0.039095,-0.020464
-0.28085,2.9224,-2.9028,8.3749,0.1912,-0.068722,-0.027794
-0.30048,2.7851,-2.5301,8.7868,0.15455,-0.09499,-0.028405
-0.29196,2.7851,-2.7262,8.6887,0.096822,-0.11454,-0.033598
-0.28821,2.9224,-3.0008,8.4337,0.0058032,-0.12889,-0.039706
-0.26895,2.9028,-2.589,8.5514,-0.1069,-0.16127,-0.030849
-0.24826,2.5497,-2.3144,8.8456,-0.135,-0.19212,-0.11179
-0.24069,2.2163,-2.4124,8.9437,-0.0281,-0.17685,-0.1066
-0.23392,2.2948,-2.4517,9.3359,0.091935,-0.079718,-0.072693
-0.26608,2.6478,-2.2751,9.179,0.17623,0.037874,-0.04948
-0.3219,2.6282,-2.1378,8.8456,0.22419,0.082467,-0.059559
-0.44482,2.942,-2.3144,7.6884,0.27489,0.036346,-0.069333
-0.60022,3.6481,-2.9224,6.8254,0.27733,-0.012523,-0.059559
-0.80157,3.6285,-2.687,9.1986,0.23305,-0.033292,-0.083078
-0.97342,3.0793,-2.6086,9.434,0.15119,-0.012217,0.047342
-0.99997,3.5696,-1.3729,8.5906,0.051924,0.028711,0.07025
-0.99997,2.7851,-0.21575,7.5903,-0.083689,0.068722,-0.049175
-0.99997,2.1575,-0.39227,7.6884,-0.28833,0.068111,0.026573
-0.99997,2.9028,-2.1575,8.1787,-0.47861,0.011606,0.072082
-0.99997,3.5696,-3.5304,8.8652,-0.54031,-0.061697,0.073915
-0.99997,3.4912,-3.6285,8.6887,-0.5003,-0.092241,0.064446
-0.99997,2.687,-3.0597,8.8652,-0.36224,-0.065057,0.059559
-0.99997,2.6282,-2.7262,8.8652,-0.1405,-0.073915,0.010996
-0.99997,2.7851,-2.6086,8.7083,-0.13775,-0.066584,0.0030543
-0.97049,2.7655,-2.3144,8.6887,-0.1127,-0.066279,0.039401
-0.85907,2.6478,-2.1575,8.7083,-0.077885,-0.06689,0.036652
-0.76086,3.0008,-2.0594,8.7083,-0.045815,-0.05681,0.031765
-0.67169,3.0793,-2.0986,8.3357,-0.020769,-0.041539,0.016493
-0.59738,2.9028,-2.0986,8.4141,-0.0039706,-0.034208,0.0027489
-0.52386,2.7459,-2.2555,8.6299,-0.00030543,-0.055283,-0.00030543
-0.45627,2.9224,-2.5693,8.7868,-0.036041,-0.079107,-0.050396
-0.41235,2.942,-2.432,8.5514,0.0027489,-0.075136,-0.055283
-0.38055,2.6478,-2.432,8.5906,0.048564,-0.051313,-0.03543
-0.36798,2.9224,-2.6086,8.5514,0.051007,0.0015272,-0.042455
-0.36609,2.8635,-2.3144,8.5514,-0.011606,0.091324,-0.021075
-0.38324,2.9616,-2.0986,8.7083,-0.034208,0.12859,-0.0042761
-0.40149,2.9616,-2.0006,8.4926,-0.0094684,0.065363,-0.0042761
-0.43671,2.942,-2.3144,8.4141,-0.019548,-0.0073304,-0.018326
-0.47089,3.2558,-2.432,8.4926,0.058948,-0.033903,0.033598
-0.49677,3.0008,-2.687,8.5514,0.045815,-0.016799,0.037874
-0.51315,3.2558,-2.7459,8.4729,-0.039706,0.040623,-0.069639
-0.52542,2.9028,-2.7459,9.5125,-0.16707,0.089186,-0.067806
-0.54276,3.0204,-2.9224,8.8848,-0.24954,0.086743,-0.012217
-0.60614,3.1577,-2.2163,6.7077,-0.27519,0.044288,0.035125
-0.68979,3.3146,-1.726,7.2765,0.0009163,-0.007025,0.033903
-0.7778,2.4909,-2.4517,9.3752,0.03207,-0.028405,0.029322
-0.8768,3.4323,-2.589,9.0221,0.013744,-0.062003,0.043371
-0.92715,3.3146,-1.726,8.0218,0.03207,-0.056505,0.044899
-0.94751,2.7459,-1.3533,7.8649,0.051924,-0.047037,0.027489
-0.91751,3.0008,-1.8829,8.1787,0.0562,-0.042761,0.038485
-0.85037,3.3146,-2.687,8.5906,0.038485,-0.048869,0.044899
-0.74933,3.2558,-3.197,8.7083,-0.0045815,-0.055283,0.052229
-0.61166,3.1774,-2.9028,8.9437,-0.063835,-0.066279,0.057421
-0.46387,2.6086,-2.6086,8.9437,-0.11545,-0.075747,0.047647
-0.31033,2.8047,-2.5105,8.5318,-0.053756,0.014966,0.043982
-0.15326,2.8439,-2.687,8.3357,-0.096211,-0.029627,-0.002138
-0.027496,3.0597,-2.4517,8.4337,-0.085216,-0.067195,-0.020769
0.027374,3.0597,-2.432,8.5906,0.0033598,-0.07086,-0.053756
0.080841,3.1774,-2.2555,8.5514,0.1014,-0.010385,-0.051007
0.10654,2.9224,-2.3144,8.7083,0.15882,0.079107,-0.016799
0.14047,2.6086,-2.4124,8.8064,0.13897,0.13225,0.022602
0.16669,2.9224,-2.1575,8.7279,0.076053,0.079412,0.043371
0.18118,2.8635,-2.0398,8.7279,0.018631,-0.0018326,0.031765
0.19403,2.9224,-2.1575,8.6495,-0.06353,-0.07086,0.032987
0.21054,2.942,-2.4124,8.4141,-0.099571,-0.098655,-0.015577
0.23514,3.2362,-2.7459,8.2768,-0.10599,-0.06017,-0.038485
0.25601,3.0989,-2.6086,8.2768,-0.13592,-0.0036652,-0.051313
0.26907,3.0793,-2.6086,8.3749,-0.21594,0.029932,-0.0042761
0.28015,3.2362,-2.589,8.3749,-0.27245,0.025045,0.03879
0.2952,3.0793,-2.589,8.316,-0.27306,0.0033598,0.040012
0.30798,3.0008,-2.6282,8.5514,-0.20433,0.0009163,-0.060781
0.31219,2.942,-2.6086,8.6495,-0.059559,0.045815,-0.097433
0.30893,2.7851,-2.2751,9.1006,0.06689,0.097128,0.026878
0.28204,2.8439,-2.5301,9.3359,0.13867,0.1292,0.047953
0.22842,3.1774,-2.6086,7.8453,0.15333,0.13836,0.05284
0.15082,3.3931,-2.1378,7.2373,0.12981,0.12126,0.023213
0.062775,2.6478,-2.1967,9.2771,0.093157,0.097738,0.0018326
-0.012329,2.7851,-2.1182,9.179,0.057116,0.075747,-0.02138
-0.065735,3.2166,-1.9809,8.2572,-0.034208,-0.0012217,-0.012523
-0.085876,3.0008,-1.8829,7.3746,-0.023824,0.018326,-0.0042761
-0.082947,2.8047,-2.0986,7.7865,-0.0054978,0.033598,0.0058032
-0.04837,3.3343,-2.9028,8.316,0.0015272,0.042455,-0.0015272
0.008667,3.6481,-3.3146,8.4337,0.0082467,0.04612,-0.007025
0.098755,3.1185,-3.0793,8.8848,0.02138,0.045815,-0.015272
0.1976,2.9224,-2.589,8.7475,0.031154,0.047647,-0.02138
0.30621,2.6478,-2.432,8.5514,0.0281,0.04215,-0.019853
0.40869,2.7459,-2.432,8.6299,-0.04215,0.03146,-0.026878
0.50052,2.9224,-2.4124,8.4141,-0.037874,0.039401,-0.01741
0.59357,3.0793,-2.1967,8.4926,-0.020769,0.046426,-0.043371
0.6738,3.0597,-1.9809,8.3945,0.0094684,0.050702,-0.04948
0.71069,2.9028,-2.0006,8.6495,0.036957,0.06353,-0.049175
0.74326,2.9616,-2.3732,8.8064,0.053756,0.079718,-0.048564
0.77457,2.7851,-2.6086,8.7868,-0.022297,0.096211,-0.049175
0.81445,2.8635,-2.687,8.5514,-0.03146,0.1124,-0.039706
0.83804,2.9616,-2.2751,8.7083,-0.035125,0.11179,-0.071166
0.87457,2.7459,-2.1967,8.4337,-0.089492,0.083689,-0.061697
0.90707,2.7655,-2.3732,8.4926,-0.10996,0.049175,-0.011301
0.93875,3.1774,-2.6086,8.3749,-0.092852,0.014355,-0.013134
0.97986,2.942,-2.5693,8.4141,-0.047037,-0.0042761,-0.029322
1,3.0793,-2.4713,8.4141,0.016799,0.0048869,-0.047647
1,2.9616,-2.5105,8.4729,0.050091,0.031154,-0.063225
1,2.8635,-2.432,8.5318,0.02138,0.06689,-0.071777
1,3.0793,-2.6086,8.3945,0.0030543,0.015882,-0.0036652
1,2.942,-2.5301,8.4729,0.0039706,0.022907,-0.0079412
1,3.0008,-2.5105,8.4926,-0.010079,0.022297,0.01069
1,2.7851,-2.4713,8.4926,-0.028405,0.019242,0.010385
1,2.9224,-2.5105,8.6299,-0.045204,0.018326,0.0085521
1,2.9028,-2.432,8.3357,-0.054978,0.023213,0.0051924
1,3.0597,-2.589,8.2768,-0.066279,0.03146,0.0015272
1,3.1774,-2.6086,8.4141,-0.071166,0.033903,-0.00030543
1,3.2166,-2.6282,8.4141,-0.023213,0.032681,-0.030238
1,3.1774,-2.4124,8.5514,-0.01069,0.033598,-0.035125
1,2.8047,-2.1575,8.6887,-0.0076358,0.039706,-0.013134
1,2.4713,-2.1967,8.8064,-0.013439,0.041233,-0.021075
1,2.9224,-2.6086,8.4141,-0.019548,0.033903,-0.023518
1,3.1774,-2.7851,8.2572,-0.020159,0.026573,-0.021991
1,3.3146,-2.6674,8.2572,-0.063225,0.021991,-0.025656
1,3.0008,-2.1378,8.5514,-0.044593,0.023213,-0.030238
1,2.8047,-1.9809,8.5514,-0.058338,0.11942,-0.075442
1,2.8047,-2.7262,8.7279,0.064446,0.092241,-0.076664
1,2.9224,-2.8243,8.316,0.15516,0.12401,0.071777
1,3.1185,-2.7655,8.2768,0.16554,0.16096,0.057116
1,3.0793,-2.2751,8.4337,0.089186,0.10354,0.027184
1,2.7851,-1.9809,8.5906,0.028405,-0.0082467,-0.026267
1,2.589,-2.3144,8.8652,-0.051618,-0.054367,-0.07086
1,2.7459,-2.6282,8.5906,-0.13989,-0.058032,-0.087048
1,2.8439,-2.6282,8.4337,-0.074526,0.017715,-0.010079
0.99673,2.8635,-2.3732,8.5514,-0.082467,0.0097738,-0.0054978
0.97391,2.5497,-2.1967,8.7475,-0.054062,0.016188,-0.04612
0.95523,2.5497,-2.2751,8.7279,-0.007025,0.034514,-0.049175
0.93991,2.8635,-2.5105,8.4926,0.025351,0.06017,-0.043982
0.93039,3.0989,-2.4517,8.4926,0.024435,0.083689,-0.038485
0.92935,2.8635,-2.2948,8.4926,0.0048869,0.094073,-0.030543
0.92636,2.9224,-2.1967,8.3749,-0.0033598,0.088881,-0.01741
0.93823,3.0793,-2.2948,8.6887,0.027489,0.077885,0.11637
0.95523,3.2754,-2.1575,8.8064,0.05284,0.070555,0.072998
0.9772,3.0989,-1.8829,8.6887,0.06689,0.076358,0
0.99042,2.4909,-1.9613,8.9437,0.054978,0.091019,0.012828
0.9801,2.7851,-2.2555,8.7083,0.034208,0.099876,0.035125
0.95319,2.9616,-2.687,8.218,0.010385,0.092546,0.064446
0.93909,2.7655,-2.9028,8.1591,-0.049175,0.063225,0.094684
0.92215,2.9224,-2.5105,8.4337,-0.12004,0.022602,0.11851
0.89957,2.4713,-2.6086,9.2183,-0.16371,-0.0067195,0.10629
0.85941,2.2359,-3.0989,8.5514,-0.16066,-0.019853,0.089797
0.79266,1.8437,-3.0793,8.218,-0.094684,0.0058032,0.03879
0.7153,1.1964,-3.0793,9.787,-0.002138,0.062614,0.025656
0.66086,2.0006,-2.0594,9.0613,0.06017,0.12217,0.020159
0.59525,1.9221,-1.5691,7.7669,0.064752,0.1741,0.037568
0.53241,1.6867,-2.1575,7.7473,0.0073304,0.18357,0.07422
0.495,2.2948,-2.9028,8.7083,-0.065973,0.15302,0.10049
0.4696,2.7066,-2.9028,8.8456,-0.041539,0.083689,0.013439
0.48642,2.6086,-2.432,8.9437,-0.099876,0.076664,0.019548
0.5289,2.7459,-2.1967,8.7083,-0.15241,0.063835,0.067501
0.57239,2.9224,-2.1967,8.5318,-0.17776,0.027489,0.058032
0.6236,3.2754,-2.0594,8.6299,-0.14966,-0.0097738,0.048258
0.67102,3.1185,-1.9613,8.5906,-0.066584,-0.025656,0.02474
0.72507,3.0793,-1.9809,8.4141,0.040623,-0.021686,0.0058032
0.77243,3.2558,-2.1967,8.2572,0.12187,-0.012523,0.0048869
0.80768,3.0597,-2.4124,8.5514,0.13378,-0.018326,-0.0009163
0.84283,2.7851,-2.3536,8.4141,0.080634,-0.047647,0.009163
0.84854,2.5497,-2.3732,8.7083,0.0085521,-0.078802,0.013134
0.85803,2.334,-2.2751,8.7083,-0.040012,-0.093157,-0.002138
0.85657,2.5301,-2.7459,8.8064,-0.05284,-0.081551,-0.0097738
0.84778,2.4517,-2.7655,8.8456,-0.043371,-0.05681,-0.0079412
0.82367,2.687,-2.589,8.7475,-0.014661,-0.020159,-0.010996
0.80289,2.3732,-2.0986,8.8652,0.018631,0.028711,-0.011301
0.77893,2.687,-2.1575,8.5514,-0.10385,0.058338,-0.015272
0.74661,2.7851,-2.5301,8.2572,-0.14111,0.062003,-0.0045815
0.73795,2.8047,-2.6282,8.316,-0.12065,0.048258,0.0085521
0.73587,2.8635,-2.5105,8.3945,-0.033903,0.039095,-0.0036652
0.73474,2.7459,-2.4124,8.5514,0.08827,0.049786,-0.02474
0.73438,2.9224,-2.8439,8.3357,0.19792,0.083383,-0.044899
0.72339,2.7851,-2.6674,8.4141,0.014355,0.12492,-0.053756
0.70862,2.6086,-2.1967,9.0221,-0.035125,0.14539,-0.038485
0.66687,2.5301,-1.9613,9.2183,0.12798,0.13378,-0.075136
0.61288,2.3732,-2.2751,8.7083,0.035125,0.12309,-0.026267
0.52396,2.2948,-2.6086,8.7083,-0.014661,0.1011,-0.0094684
0.43658,2.1575,-2.3732,9.0221,0.050091,0.089492,-0.010996
0.33533,2.4517,-1.1768,9.2575,0.21716,0.034208,-0.020769
0.24619,2.4517,-0.49033,8.5514,0.33323,-0.018937,-0.059865
0.17764,2.7655,-1.3533,8.3945,0.24068,-0.011912,-0.10354
0.13647,3.1185,-3.3146,7.8061,0.2135,-0.0094684,-0.11148
0.14706,3.4323,-4.3934,7.963,-0.075442,-0.018021,-0.010079
0.20654,3.5304,-3.7069,8.6887,-0.043371,-0.0097738,-0.029627
0.22726,2.9616,-2.1182,7.9434,0.0281,0.032987,-0.135
0.21478,2.6282,-2.5105,9.689,0.081245,0.082467,-0.11148
0.18671,1.9221,-3.3735,10.297,0.073609,0.10415,-0.068722
0.18967,2.9224,-2.3144,8.9044,-0.013744,0.091935,-0.029016
0.22879,2.687,-0.17652,7.0019,-0.16066,0.048869,-0.0067195
0.24838,2.0202,-0.33343,7.6884,-0.30299,-0.0054978,0
0.28809,2.687,-2.432,8.0807,-0.36652,-0.041539,0.036041
0.34448,3.6285,-4.1384,7.963,-0.2529,-0.05284,0.017104
0.45251,3.5696,-4.0403,8.5514,-0.064752,-0.027184,-0.045509
0.56619,3.0793,-3.0401,8.7083,0.11698,0.03543,-0.0562
0.66684,2.8635,-2.2751,9.0221,0.21044,0.092241,-0.046426
0.73895,2.8047,-2.432,8.7083,0.18937,0.10751,0.0015272
0.79324,2.942,-2.5693,8.3749,0.086132,0.073609,0.048564
0.83365,2.9224,-2.0398,8.4926,-0.040012,0.0076358,0.054062
0.84698,2.3732,-1.7456,8.8064,-0.13531,-0.057421,0.021686
0.84396,2.687,-2.2751,8.6299,-0.19334,-0.093462,0.021075
0.83521,2.8635,-2.7459,8.3945,-0.22113,-0.1014,0.0027489
0.81528,2.8635,-3.2166,8.4729,-0.20953,-0.097433,-0.0015272
0.80844,2.9224,-2.8832,8.7083,-0.1573,-0.081551,0.002138
0.79019,2.2948,-2.0594,8.9437,-0.085216,-0.059865,0.0042761
0.7713,2.4517,-1.9417,8.7475,-0.020464,-0.036041,0.011606
0.73737,2.7851,-2.2948,8.5514,0.040928,-0.012217,0.021075
0.70706,2.7851,-2.6674,8.4141,0.078191,0.014355,0.0085521
0.66428,3.0793,-2.9028,8.316,0.068722,0.023518,0.0082467
0.59497,2.8635,-2.8439,8.3945,0.01741,0.0097738,0.031765
0.53418,2.687,-2.5105,8.4141,-0.05284,-0.020159,0.043371
0.47208,2.8047,-2.2163,8.6887,-0.11179,-0.054978,0.043677
0.40656,2.942,-2.2948,8.5514,-0.14233,-0.077274,0.033292
0.34009,2.8047,-2.687,8.4141,-0.14386,-0.081551,0.020769
0.28516,3.1774,-2.942,8.218,-0.11393,-0.072693,0.012217
0.23553,3.0008,-2.8439,8.3749,-0.43799,-0.072998,0.056505
0.21051,2.9224,-2.5105,8.6299,-0.32987,-0.099266,0.030238
0.19354,2.8439,-2.5693,8.3945,-0.19517,-0.075136,0.11057
0.16348,3.0204,-2.8439,8.0807,-0.022907,-0.030543,0.14416
0.14609,3.0989,-3.2362,7.963,0.15119,0.029016,0.16524
0.14194,2.8635,-2.9224,8.2572,0.27489,0.0956,0.12737
0.16815,2.6086,-2.5693,8.7279,-0.35949,0.1518,0.072693
0.18649,2.6478,-2.3732,8.8456,-0.45968,0.18692,0.065363
0.20032,2.7459,-2.3536,8.7083,0.18967,0.19303,-0.091019
0.21738,2.7459,-2.2948,9.8066,0.086437,0.16707,-0.085521
0.216,2.7851,-2.1378,8.9437,0.0036652,0.12431,0.012523
0.16714,2.7655,-2.1967,6.8647,-0.039095,0.082772,-0.0061087
0.070007,2.8047,-3.295,8.316,-0.032681,0.053145,-0.026267
-0.026886,2.8047,-3.5304,9.1202,0.0064141,0.040317,-0.041233
-0.13531,2.942,-2.2751,8.8652,0.3262,0.049175,-0.057116
-0.21896,2.8047,-0.90221,7.7669,0.28558,0.077885,-0.077885
-0.28226,2.4517,-1.118,7.6884,0.097738,0.11637,-0.083383
-0.33063,2.9616,-2.3732,8.0022,0.087048,0.16249,-0.092546
-0.33286,3.3146,-3.4127,8.2768,0.079107,0.1912,-0.073609
-0.32053,3.7265,-3.8834,8.4141,0.081245,0.19945,-0.068722
-0.25983,3.2754,-3.55,8.4141,0.09163,0.20128,-0.069944
-0.19785,3.0793,-2.7459,8.5514,0.11118,0.19761,-0.072693
-0.1218,2.9224,-2.432,8.6299,0.054062,0.19609,-0.071471
-0.061951,2.7655,-2.432,8.7279,0.086743,0.19548,-0.072998
0.0019836,3.0008,-2.687,8.4926,-0.08491,-0.068417,0.063225
0.048492,3.1774,-2.7262,8.218,0.0073304,-0.055589,0.087354
0.07782,2.9028,-2.6674,8.0022,0.16646,-0.029627,-0.082161
0.11148,2.7851,-2.6086,8.1787,0.24587,-0.013744,-0.013744
0.11703,2.5497,-2.7459,8.7279,0.21655,-0.0082467,0.050702
0.13644,2.7459,-2.8439,8.7279,0.10751,-0.0079412,0.023213
0.1442,2.5497,-2.5105,8.6299,-0.039095,-0.0079412,0.0048869
0.13055,2.6282,-2.2751,8.7083,-0.19761,-0.027184,0.033292
0.12354,2.4517,-1.9809,8.5906,-0.5061,-0.19731,0.054672
0.11761,2.4517,-2.2751,8.8064,-0.55925,-0.22724,0.029932
0.13632,2.687,-2.3732,8.7083,-0.45021,-0.23976,0.066279
0.13797,2.6282,-2.5301,8.4141,-0.20464,-0.19578,0.030849
0.13882,2.6086,-2.432,8.4729,0.11026,-0.080329,-0.01405
0.14154,2.4713,-2.5105,9.3752,0.31062,0.072082,-0.037874
0.10245,2.1575,-2.2948,9.0417,0.29871,0.16249,-0.012828
0.057343,2.0006,-2.5693,8.316,0.15944,0.17013,0.04612
0.0038147,1.6083,-2.9224,9.5321,-0.0042761,0.11637,-0.041844
-0.05545,2.2359,-2.589,8.8456,-0.12614,0.05284,-0.028405
-0.13153,2.5497,-2.2555,7.7865,-0.19028,0.010996,0.0054978
-0.23309,2.0594,-2.1967,8.2572,-0.20281,-0.0048869,-0.016493
-0.3573,2.0006,-2.0594,8.8064,-0.18143,-0.00030543,-0.03207
-0.47903,2.432,-1.9613,8.5514,-0.14539,0.013744,-0.043066
-0.6055,2.2948,-2.0986,9.2575,-0.10537,0.028405,-0.051924
-0.73923,2.4517,-1.726,9.3163,-0.065057,0.045815,-0.050702
-0.89032,2.3732,-1.6279,9.3163,0.086437,-0.025962,-0.010079
-0.99997,2.6478,-2.0594,8.7279,0.12339,0.017104,-0.013744
-0.99997,3.0793,-2.1182,8.1199,0.13622,0,-0.043371
-0.99997,3.0008,-1.6475,7.9434,0.13897,-0.022297,-0.0051924
-0.99997,3.1774,-2.1182,8.1199,0.18906,-0.018021,-0.010079
-0.99997,3.4127,-3.3931,8.316,0.24404,-0.0039706,-0.023824
-0.99997,3.7069,-3.5304,7.9434,0.21991,-0.012217,-0.0067195
-0.99997,3.2558,-2.4517,8.4141,0.15149,-0.048258,0.009163
-0.99997,2.7851,-1.824,8.7083,0.070555,-0.085827,0.065363
-0.96469,2.6086,-2.0594,8.6299,-0.01741,-0.13714,0.080634
-0.90125,2.9616,-2.4124,8.5514,-0.13775,-0.23793,-0.0079412
-0.82986,3.0008,-2.5693,8.4926,-0.2022,-0.3207,-0.047037
-0.74258,2.9028,-2.5693,8.4141,-0.16127,-0.31521,-0.065973
-0.66852,2.7851,-2.3732,8.3357,-0.10354,-0.25626,-0.047953
-0.58786,2.9028,-2.432,8.5318,-0.12492,-0.20678,-0.033292
-0.50922,2.687,-2.432,8.7868,-0.23854,-0.1854,0.014661
-0.44601,2.7851,-2.2555,8.7475,-0.24251,-0.11545,0.029016
-0.38049,2.5497,-2.1378,8.7279,-0.17868,-0.11484,0.030543
-0.3114,2.3732,-2.3144,8.7083,-0.020464,-0.12767,-0.073609
-0.26251,2.9224,-2.7851,8.4926,0.14722,-0.13592,-0.07422
-0.20764,2.6478,-2.6086,8.5318,0.24679,-0.10171,-0.074526
-0.14371,2.7459,-2.5693,8.4926,0.23946,-0.058032,-0.060476
-0.097168,2.9224,-2.432,8.5514,-0.28466,-0.032987,-0.0048869
-0.055786,2.687,-2.432,8.6299,-0.27061,-0.039095,0.024129
-0.0096741,3.0008,-2.3732,8.7083,-0.060781,-0.077885,0.094073
0.024841,3.3735,-2.3732,8.3945,0.089797,-0.12981,0.11026
0.082611,3.2558,-2.3732,8.2768,-0.07086,-0.17349,0.020769
0.12451,3.3146,-2.432,8.3749,-0.18295,-0.18815,0.0012217
0.14886,3.0793,-2.5693,8.2572,-0.219,-0.17471,-0.0039706
0.18378,2.7851,-2.4713,8.4141,-0.19792,-0.13714,0.01069
0.1929,2.589,-2.3732,8.3945,-0.14233,-0.076664,0.032987
0.19623,2.6086,-2.4124,8.8652,-0.086743,-0.022602,0.062919
0.17352,2.1771,-2.2751,9.1202,0.056505,0.18295,0.015577
0.1525,2.2359,-2.2555,9.179,0.085521,0.18692,0.00030543
0.08847,2.334,-2.9224,8.8064,0.12217,0.19059,-0.029932
0.0020752,2.0006,-2.7655,7.6492,0.1405,0.18876,-0.03146
-0.096191,0.96105,-2.432,10.003,0.12981,0.17562,-0.0082467
-0.19012,1.7652,-2.0006,9.7478,0.065668,0.14203,0.03207
-0.28433,2.0202,-1.824,8.0022,-0.069028,0.085521,0.053756
-0.36148,2.0006,-1.9809,7.708,-0.1631,0.024435,0.039095
-0.42603,2.2163,-2.7655,8.4141,0.19884,0.0281,-0.085521
-0.47614,2.7851,-3.0793,8.7279,0.135,0.14019,-0.074526
-0.46655,2.8439,-2.8243,9.179,-0.017104,0.18173,-0.0039706
-0.43594,2.7655,-1.8829,9.0221,-0.19426,0.088575,0.054367
-0.3996,3.0008,-1.4906,8.5514,-0.2813,-0.059254,0.062308
-0.3588,3.0597,-2.0006,8.2768,-0.30024,-0.16616,0.013134
-0.31744,3.1774,-2.4124,8.4926,-0.096517,-0.18479,-0.03879
-0.28552,3.4912,-2.2948,8.2572,0.10904,-0.14936,-0.083078
-0.25479,3.0793,-2.2948,8.5318,0.069639,0.080634,0.0030543
-0.20166,2.6478,-3.0989,8.7868,0.045204,0.069333,0.0061087
-0.15701,2.9224,-3.1381,8.6299,0.020464,0.054672,-0.024129
-0.11426,3.0793,-2.8243,8.4141,0.012523,0.043982,-0.0281
-0.077698,2.7851,-2.4713,8.5514,0.025962,0.037263,-0.026267
-0.057434,2.6086,-2.3732,8.4926,0.031154,0.039706,-0.013134
-0.060638,2.7851,-2.4124,8.4141,0.027489,0.035125,-0.0015272
-0.069794,2.6086,-2.5105,8.4926,0.03146,0.011301,0.0045815
-0.079498,2.7655,-2.7262,8.5318,-0.082161,-0.045509,0.031154
-0.10852,2.7851,-2.687,8.316,-0.10415,-0.063225,0.022907
-0.12906,2.9028,-2.4713,8.4926,-0.092852,-0.075442,0.00061087
-0.17789,2.9028,-2.432,8.5514,-0.044593,-0.073915,-0.0048869
-0.20813,2.9224,-2.4124,8.5514,0.0048869,-0.061697,-0.0009163
-0.23758,2.8635,-2.5105,8.7083,0.027794,-0.053451,0.0027489
-0.27151,2.942,-2.687,8.5514,0.01741,-0.059559,0.011912
-0.28918,2.942,-2.687,8.4926,-0.017715,-0.07758,0.026878
-0.30243,2.8635,-2.6086,8.5514,-0.082772,-0.092241,-0.007025
-0.31244,2.6478,-2.3144,8.4141,-0.10507,-0.095906,-0.021991
-0.32669,2.9224,-2.5105,8.2768,-0.12339,-0.092546,0.027184
-0.33536,3.0008,-2.7851,8.0218,-0.1295,-0.090713,0.033292
-0.3504,3.1774,-3.0008,8.218,-0.11393,-0.075136,0.016493
-0.33142,3.0008,-2.9028,8.2572,-0.082772,-0.046426,-0.0061087
-0.33975,3.0793,-2.8243,8.4729,-0.045204,-0.010996,-0.0094684
-0.34988,2.9028,-2.6282,8.4141,-0.014661,0.016799,-0.0051924
-0.35648,3.0793,-2.6086,8.3945,-0.0048869,0.03207,-0.047342
-0.3699,3.0008,-2.432,8.4926,-0.002138,0.04215,-0.03146
-0.37997,2.9224,-2.3732,8.5514,0.0094684,0.054367,-0.039095
-0.41446,2.8635,-2.4517,8.5318,0.017104,0.068417,-0.045509
-0.4317,2.9028,-2.3732,8.5514,0.023213,0.077885,-0.050396
-0.44058,2.9224,-2.5105,8.4926,0.041844,0.082161,-0.056505
-0.46341,2.942,-2.432,8.5906,0.066279,0.086743,-0.062308
-0.45102,2.942,-2.6086,8.7279,0.078496,0.086743,-0.061087
-0.42575,2.9616,-2.5105,8.6495,-0.1573,-0.058338,-0.067501
-0.39096,3.0597,-2.2948,8.2376,-0.35797,-0.10996,-0.025962
-0.3624,2.9028,-2.3732,8.3945,-0.405,-0.12217,-0.095295
-0.3497,3.0793,-2.6086,8.7279,-0.35766,-0.13958,-0.12126
-0.35172,3.1774,-2.4713,8.5514,-0.16035,-0.11698,-0.14142
-0.36499,2.9224,-2.3536,8.7083,0.18234,-0.033903,-0.16249
-0.40689,3.0793,-2.1967,8.3357,0.4777,0.057421,-0.1576
-0.45483,3.0204,-2.9028,8.3357,0.58338,0.099571,-0.11545
-0.53259,3.2362,-3.7658,8.8652,-0.054672,0.077885,-0.036041
-0.62994,3.0597,-3.6285,8.8652,-0.3543,0.020464,-0.033598
-0.72037,2.6478,-1.8829,9.0417,-0.56749,-0.043677,-0.0281
-0.82895,2.4517,-0.86299,8.5514,-0.66309,-0.079412,-0.062919
-0.95862,2.4909,-1.5298,8.0022,-0.64477,-0.066584,-0.074526
-0.99997,2.9224,-3.0793,8.316,-0.54398,-0.00030543,-0.064446
-0.99997,3.3146,-3.7265,8.1591,0.49144,0.079718,-0.049175
-0.99997,3.5696,-2.5693,8.6887,0.25259,0.17562,-0.036041
-0.99997,3.2362,-1.118,9.1986,0.082161,0.29566,-0.18479
-0.99997,3.4912,-0.56879,8.4141,0.29352,0.43188,-0.27733
-0.99997,3.6873,-1.0199,7.5511,0.40592,0.56841,-0.0039706
-0.99997,3.903,-2.2751,6.9235,0.40561,0.66187,0.011912
-0.97897,4.5699,-3.2362,7.2961,0.32132,0.69852,-0.017715
-0.84521,4.8053,-3.7265,7.3158,0.19334,0.67256,-0.064141
-0.69696,3.7069,-3.7658,8.1787,-0.38485,0.60476,-0.081551
-0.56284,2.9616,-3.0793,9.6497,-0.17165,0.5226,-0.10965
-0.45706,1.6867,-2.432,9.5125,0.01405,0.43891,-0.034514
-0.36353,1.2945,-2.5105,8.6299,0.19548,0.36927,-0.069333
-0.31128,0.70608,-2.6086,8.5906,0.42425,0.35369,-0.33842
-0.29486,0.8826,-2.2751,8.0022,0.50549,0.37018,-0.35216
-0.29718,-0.21575,-2.0006,11.376,0.29169,0.43524,-0.28375
-0.31296,0.66685,-2.2948,11.376,0.024435,0.44685,-0.16341
-0.33511,2.6086,-1.6475,8.2376,0.055283,0.27397,-0.039095
-0.3569,2.4909,-0.39227,8.0022,-0.03879,-0.0054978,0.010385
-0.37494,1.9221,-0.49033,9.179,-0.04215,0.0012217,0.03543
-0.35223,2.2948,-1.9613,9.5125,-0.11729,-0.0048869,0.024435
-0.28494,2.2751,-1.5691,9.0613,-0.19884,-0.03207,0.055894
-0.18042,2.6086,-1.118,8.5514,-0.26298,-0.051618,0.050702
-0.02124,2.7655,-1.7456,7.6492,-0.29993,-0.055589,0.041539
0.1575,2.9224,-2.9028,7.4531,-0.3036,-0.046426,0.036041
0.32245,2.6086,-3.6285,7.2373,-0.26359,-0.037263,0.03879
0.47763,2.7851,-4.0403,8.0807,-0.18845,-0.027184,0.041233
0.65134,3.4127,-3.9423,8.7083,-0.03879,-0.0064141,0.007025
0.78851,3.2754,-3.2362,9.1594,0.013744,0.015272,0.0009163
0.88565,2.8635,-2.6282,8.9437,0.028405,0.029932,0.022602
0.93436,2.9224,-2.2163,8.7083,0.0061087,0.022297,0.033903
0.95108,3.3735,-2.3732,8.3357,-0.038485,-0.0045815,0.041233
0.93753,3.2558,-2.2948,8.2768,-0.090103,-0.034514,0.030543
0.8956,3.2362,-2.0986,8.1787,-0.12614,-0.062919,0.016493
0.85419,2.9224,-1.9809,8.2768,-0.13653,-0.081245,0.0097738
0.78769,2.6282,-2.5105,8.5514,-0.12584,-0.082772,0.0281
0.71573,2.7851,-2.8243,8.3749,-0.10201,-0.071166,0.016493
0.63889,2.7851,-3.0793,8.2572,-0.06017,-0.061392,-0.0097738
0.56342,2.7655,-3.197,8.3357,0.0039706,-0.031765,-0.027489
0.48322,2.687,-2.8243,8.4729,0.049175,0.0067195,-0.038485
0.3891,2.7851,-2.6086,8.6299,0.054367,0.025962,-0.0039706
0.31955,3.0008,-2.4124,8.6299,0.015882,0.025962,0.035736
0.23181,2.9224,-2.5693,8.4141,-0.046731,0.0051924,0.040317
0.15793,2.9028,-2.942,7.9434,-0.06353,-0.023824,-0.01405
0.10635,3.2558,-3.2362,8.1003,-0.12034,-0.046426,-0.019242
0.048553,2.8635,-2.7655,8.4141,-0.14936,-0.061392,-0.0076358
0.01593,2.942,-2.6086,8.5514,-0.13775,-0.060781,0.00061087
-0.045837,2.8047,-2.5105,8.4926,-0.10599,-0.043677,0.0094684
-0.093597,2.942,-2.7459,8.4141,-0.083689,-0.030543,0.0058032
-0.13708,3.0597,-3.0401,8.2572,-0.054367,-0.017715,-0.0030543
-0.18112,3.1185,-3.0401,8.2768,-0.013744,-0.0051924,-0.0085521
-0.21786,2.8439,-3.0793,8.3357,0.20372,-0.0281,0.029016
-0.25278,3.1185,-2.8832,8.316,0.35155,0.046426,0.0061087
-0.25146,3.0008,-3.0008,8.2768,0.41233,0.12126,-0.036957
-0.25723,3.0793,-2.6086,8.2572,0.38546,0.17501,-0.01741
-0.26862,3.1774,-2.4517,8.4141,0.30421,0.20097,0.0061087
-0.30084,2.9616,-2.589,8.316,0.208,0.1912,0.018326
-0.32596,3.1577,-2.9224,8.1787,-0.15333,0.13867,0.023518
-0.35571,3.2166,-3.2754,8.0807,0.0085521,0.06017,0.030238
-0.39621,3.2754,-2.9028,8.4337,-0.11118,-0.020464,-0.098655
-0.40253,3.2362,-2.7459,8.4337,-0.18448,-0.06353,-0.049175
-0.42142,3.0597,-2.7459,8.4141,-0.22999,-0.073304,-0.0054978
-0.41959,3.1577,-2.9028,8.1003,-0.28314,-0.091019,0.040623
-0.40698,2.7851,-2.7459,8.0807,-0.32132,-0.07422,0.10232
-0.40161,2.589,-2.8243,8.6299,-0.18509,-0.10354,0.1127
-0.38596,2.7459,-2.5693,8.8652,0.091324,-0.18021,0.041539
-0.37589,2.589,-2.2751,8.8652,-0.018326,-0.17837,-0.064141
-0.36633,2.7851,-2.5693,8.4926,0.36927,-0.084299,0.036041
-0.36856,3.0793,-2.9028,8.1787,0.29444,0.044899,-0.0042761
-0.36261,3.1774,-3.5108,7.7865,0.078802,0.1518,-0.01741
-0.35495,3.2362,-3.3931,8.0022,-0.23946,0.19548,-0.010996
-0.34866,3.0989,-2.7459,8.4141,-0.48961,0.17532,0.030543
-0.34024,2.9028,-2.1967,9.0417,-0.52748,0.062919,0.082772
-0.31967,2.6478,-2.432,10.12,0.079412,-0.057116,0.099876
-0.30667,2.7655,-1.7456,9.3359,0.29108,-0.080329,0.073304
-0.31491,2.6086,-1.5102,6.8647,0.12737,0.072998,-0.0281
-0.34949,2.687,-2.8243,7.963,0.14752,0.049786,-0.040623
-0.39755,2.9616,-4.3149,8.8652,0.14783,0.032987,0.014661
-0.43951,3.9619,-3.3931,8.1787,0.10568,0.0073304,0.03543
-0.47076,3.7461,-1.2553,7.2765,0.012217,-0.031765,0.044288
-0.50092,3.1577,-0.56879,7.8649,-0.10537,-0.069944,0.035736
-0.52676,2.9616,-2.0986,8.7475,-0.2025,-0.093768,0.01741
-0.53326,4.0011,-3.8834,8.0022,-0.22663,-0.081245,-0.0048869
-0.48416,3.8638,-4.158,7.963,0.074526,0.010079,-0.086132
-0.37384,3.0008,-3.4127,8.7083,0.14783,0.051007,-0.083994
-0.25226,2.6086,-2.3536,9.179,0.14264,0.082467,0.015272
-0.18756,1.9809,-2.2751,8.7083,0.076664,0.096517,0.0054978
-0.19196,1.9221,-2.6086,7.0804,-0.0048869,0.081245,-0.0064141
-0.24368,0.49033,-3.2362,10.513,-0.057421,0.051618,-0.018021
-0.28714,0.74531,-3.0793,10.689,-0.066584,0.027184,-0.037568
-0.33231,2.2948,-2.1575,8.5514,-0.03879,0.02138,-0.065973
-0.36237,1.7456,-1.7456,7.4531,0.0082467,0.031765,-0.011301
-0.3591,1.9221,-1.9417,7.963,0.053145,0.036041,-0.018937
-0.34586,2.4713,-2.6086,8.8456,0.072082,0.030849,-0.063225
-0.2941,2.5301,-2.8243,9.0221,0.064141,0.016799,-0.04612
-0.22195,2.687,-2.687,8.9044,0.057727,-0.0067195,-0.033598
-0.14883,2.7851,-2.2751,8.7279,0.041844,-0.023824,-0.011606
-0.04248,3.0204,-2.2555,8.5514,-0.012217,-0.032376,0.0015272
0.049072,3.2558,-2.3732,8.3749,-0.092852,-0.049786,-0.0039706
0.15948,3.4912,-2.3732,8.218,0.02138,-0.099571,0.0079412
0.23041,3.5696,-2.2751,8.0807,-0.0088575,-0.11698,0.028711
0.30182,3.3343,-2.2751,8.316,-0.045509,-0.12981,-0.010079
0.33875,2.8635,-2.5693,8.6299,-0.084605,-0.13836,-0.013439
0.35461,2.8635,-3.0793,8.4141,-0.12217,-0.146,-0.015882
0.37262,3.1185,-3.4127,8.2376,-0.14294,-0.146,-0.021686
0.37833,3.0793,-3.1381,8.3945,-0.13592,-0.13042,-0.022907
0.3754,2.9616,-2.432,8.4337,-0.10843,-0.10537,-0.012523
0.34839,2.7851,-2.4517,8.4926,-0.076664,-0.06689,0.023518
0.31622,2.7851,-2.8243,8.5514,-0.085827,-0.021991,0.01741
0.28006,2.942,-2.8243,8.6299,-0.12523,0.0054978,0.04612
0.2316,2.6086,-2.432,8.8848,-0.19181,0.016188,0.066279
0.1781,2.687,-2.2751,8.7083,-0.24496,-0.00030543,0.082161
0.10953,2.8635,-2.1575,8.4141,-0.2361,-0.032681,0.087965
0.031433,2.7851,-2.2751,8.4141,-0.16463,-0.048869,0.07758
-0.03714,3.0793,-2.9028,8.2572,-0.046426,-0.030543,0.050396
-0.087219,3.1774,-3.0989,8.2572,-0.050396,-0.028405,-0.013439
-0.098846,3.0597,-3.0793,7.9434,-0.065973,-0.010079,-0.021991
-0.093964,3.1577,-3.1381,7.7865,-0.083078,0.0033598,0.03543
-0.086334,2.9616,-2.7459,8.0022,-0.087048,0.0061087,0.045815
-0.085327,2.9616,-2.7066,8.7083,-0.067501,0.017715,0.041539
-0.076416,2.6478,-2.589,9.0613,-0.015577,0.027184,0.024129
-0.075989,2.6086,-2.1182,8.8652,-0.035125,0.032681,0.0082467
-0.07843,2.5497,-2.0594,8.4926,-0.042455,0.045509,-0.0042761
-0.086853,2.9028,-2.3144,8.1003,-0.063225,0.0039706,0.0048869
-0.11456,3.0793,-2.5693,9.0025,-0.02474,0.032681,0.016188
-0.13358,3.0597,-2.9028,9.1594,-0.062919,0.017104,0.016493
-0.17484,3.0008,-2.7459,7.7473,-0.10629,-0.015272,-0.0061087
-0.21594,2.2948,-2.6086,8.7279,-0.13897,-0.022602,-0.04612
-0.25717,2.6086,-2.1378,8.4926,-0.10415,0.03207,-0.051618
-0.31714,2.8439,-1.8829,7.4727,-0.050396,0.09499,-0.03543
-0.35626,2.4517,-2.1378,8.0807,-0.048869,0.10873,-0.014661
-0.37704,2.589,-2.7459,8.5318,-0.09896,0.075136,0.0079412
-0.35474,3.0793,-3.295,8.7083,-0.15547,0.026573,0.016493
-0.30365,2.8047,-3.1381,8.9437,-0.17135,-0.0094684,0.024129
-0.23022,2.589,-2.4713,9.0417,-0.11148,-0.016188,0.036652
-0.13208,2.589,-2.2751,9.0417,0.046426,0.022602,0.027489
-0.016235,2.7655,-2.2555,8.5906,0.17104,0.03543,0.01405
