0.2204,0.27459,-2.7655,8.6299,-0.072998,-0.016799,0.02474
0.22412,0.25497,-2.8439,8.5514,-0.071471,-0.010996,0.028405
0.23297,0.11768,-2.8243,8.6887,-0.072693,-0.011606,0.025351
0.2392,0.19613,-2.9224,8.7083,-0.079718,-0.016799,0.027794
0.23367,0.27459,-2.8243,8.5514,-0.089492,-0.024129,0.025962
0.23093,0.23536,-2.9224,8.4337,-0.096822,-0.030238,0.024435
0.22479,0.35304,-3.0008,8.4926,-0.10018,-0.036652,0.025045
0.22638,0.35304,-2.7851,8.7475,-0.10263,-0.037874,0.024129
0.21283,0.23536,-2.7262,8.7868,-0.10415,-0.038179,0.023824
0.20798,0.27459,-2.7459,8.6887,-0.10904,-0.042455,0.02474
0.19452,0.41188,-2.942,8.4141,-0.12309,-0.041233,0.026267
0.21036,0.41188,-2.9028,8.4141,-0.14233,-0.039706,0.022602
0.19724,0.35304,-2.8832,8.6299,-0.16677,-0.037874,0.024129
0.19324,0.17652,-2.7459,8.7279,-0.18418,-0.049786,0.028405
0.19891,0.17652,-2.8832,8.7083,-0.20311,-0.063835,0.03146
0.18973,0.17652,-2.7459,8.3945,-0.20586,-0.058948,0.030543
0.18356,0.13729,-2.8832,8.2768,-0.046731,-0.011912,-0.0012217
0.17694,0.23536,-2.9616,8.6299,-0.057116,-0.013744,-0.0094684
0.1738,0.41188,-2.8243,8.6299,-0.066584,-0.010996,0.0085521
0.17633,0.23536,-2.7262,8.4141,-0.05681,-0.0079412,0.012828
0.18423,0.23536,-2.7262,8.5514,-0.053451,0.0051924,0.015577
0.19476,0.17652,-2.8243,8.5906,-0.040012,0.018021,0.014355
0.20609,0.23536,-3.0793,8.4141,-0.023518,0.014355,0.0067195
0.21704,0.43149,-3.0793,8.5318,-0.0097738,0.029322,0.0067195
0.23444,0.39227,-3.1577,8.5318,0.00061087,0.029932,0.022602
0.24744,0.2942,-2.7851,8.6299,-0.0039706,0.030238,0.023824
0.25125,0.11768,-2.942,8.7475,-0.024129,0.018631,-0.0027489
0.23901,0.2942,-3.1381,8.6299,-0.05284,-0.0015272,-0.0042761
0.2243,-0.05884,-2.9224,8.6299,-0.076358,-0.017104,0
0.20563,0.35304,-2.8243,8.4926,-0.089186,-0.025656,0.010385
0.19485,0.39227,-2.9224,8.7083,-0.088881,-0.024129,0.014355
0.17068,0.54917,-3.0401,8.5514,-0.080329,-0.022297,0.019242
0.16226,0.17652,-3.1381,8.5318,-0.039706,-0.012828,0.010996
0.15231,0.35304,-3.5108,8.5514,-0.034819,-0.010079,0.0079412
0.14404,0.27459,-3.0793,8.316,-0.028711,-0.002138,0.014355
0.12073,0.45111,-3.1381,8.316,-0.027794,0.0051924,0.014661
0.09668,0.49033,-3.1381,8.4337,-0.025962,0.0079412,0.01405
0.079987,0.33343,-3.2362,8.3945,-0.022602,0.0067195,0.013439
0.057312,0.17652,-3.0008,8.4141,-0.012828,0.0039706,0.013744
0.030212,0.17652,-3.1381,8.5318,0.0018326,0.0051924,0.012523
-0.0021057,0.49033,-3.197,8.4141,-0.097433,-0.019548,-0.029932
-0.029022,0.45111,-3.2362,8.2768,-0.087048,-0.007025,-0.046426
-0.039063,0.49033,-3.3146,8.2572,-0.084605,-0.0039706,-0.010996
-0.063477,0.5884,-3.55,8.2572,-0.087965,-0.0036652,-0.014661
-0.09259,0.41188,-3.3931,8.3749,-0.093462,0.0024435,-0.018937
-0.1051,0.56879,-3.3146,8.4729,-0.097433,0.018631,-0.019853
-0.129,0.2942,-3.1381,8.3749,-0.098044,0.014355,-0.022297
-0.15317,0.54917,-3.197,8.1787,-0.10354,0.021686,-0.021991
-0.17758,0.39227,-3.3931,8.4729,-0.06689,0.027489,-0.0088575
-0.18634,0.17652,-3.4127,8.6299,-0.057727,0.023213,-0.0054978
-0.19492,0.27459,-3.3146,8.5514,-0.067806,0.024129,-0.039401
-0.20682,0.25497,-3.3146,8.4729,-0.094684,0.0082467,-0.033903
-0.22934,0.56879,-3.2362,8.0807,-0.12675,-0.011301,-0.03543
-0.23944,0.27459,-3.4519,8.218,-0.15363,-0.019548,-0.029932
-0.25082,0.41188,-3.7069,8.2572,-0.17685,-0.020769,-0.026878
-0.24817,0.70608,-3.7658,8.316,-0.18631,-0.025351,-0.018631
-0.25714,0.49033,-3.5304,8.1787,-0.16677,-0.029016,0.018326
-0.25543,0.56879,-3.3931,8.1787,-0.12614,-0.029627,0.016188
-0.27072,0.49033,-3.3931,8.218,-0.075442,-0.020769,-0.0054978
-0.2717,0.49033,-3.4519,8.2768,-0.025962,-0.0085521,-0.0061087
-0.27878,0.56879,-3.6285,8.316,-0.0048869,0.0033598,-0.007025
-0.28009,0.27459,-3.4127,8.4337,-0.0085521,0.007025,0.0015272
-0.26917,0.39227,-3.4519,8.316,-0.022907,-0.0015272,0.013439
-0.254,0.56879,-3.4519,8.1787,-0.036346,-0.010385,0.018937
-0.22491,0.50995,-3.4519,8.3749,0.23976,0.1292,0.028405
-0.18576,0.56879,-3.3931,8.3945,0.31765,0.15211,0.036957
-0.14618,0.54917,-3.3539,8.4141,0.39218,0.17898,-0.017715
-0.12589,0.45111,-3.3539,8.2572,0.42089,0.21197,-0.021075
-0.1095,0.23536,-3.3931,8.3357,0.38332,0.21472,-0.013134
-0.094177,0.43149,-3.3931,8.218,0.30696,0.18234,0.013134
-0.096405,0.74531,-3.7265,8.1787,0.21502,0.13378,0.024435
-0.080688,0.56879,-3.5304,8.2572,0.13317,0.081245,0.023213
-0.094299,0.56879,-3.3931,8.1787,-0.039401,0.029322,0.10751
-0.09967,0.56879,-3.5304,8.2572,-0.051924,-0.022907,0.1069
-0.11081,0.41188,-3.7069,8.2572,-0.081856,-0.062614,0.048564
-0.12354,0.54917,-3.7658,8.0807,-0.15027,-0.07086,0.052534
-0.1687,0.49033,-3.5304,8.0611,-0.22938,-0.061087,0.050702
-0.26215,0.5884,-3.2362,8.1787,-0.29169,-0.054978,0.064446
-0.38538,0.23536,-3.0008,8.7279,0.061697,-0.054672,0.091324
-0.53979,0.27459,-3.1381,9.1202,-0.0033598,-0.060781,0.10537
-0.66492,0.098066,-3.0597,9.1202,-0.27306,-0.075747,0.0039706
-0.76965,0.41188,-2.942,8.4926,-0.20983,-0.086743,-0.022297
-0.78769,0.41188,-2.7655,8.1199,-0.16768,-0.076969,0.098655
-0.76596,0.27459,-3.0008,8.1787,-0.15516,-0.058338,0.092546
-0.66345,0.35304,-3.1381,8.4729,-0.14966,-0.052229,0.082772
-0.53937,0.35304,-3.6285,8.3749,-0.12706,-0.054978,0.069639
-0.39389,0.45111,-3.9227,8.6495,-0.34208,-0.059865,0.054367
-0.24271,0.49033,-4.0207,8.7475,-0.33048,-0.053145,0.030238
-0.10205,0.098066,-4.1972,8.6299,-0.12156,-0.03146,-0.20647
0.0073547,0.56879,-3.6285,8.5514,-0.12217,-0.029627,-0.24954
0.072052,0.41188,-3.3539,8.5318,-0.10018,-0.034819,-0.044593
0.12659,0.35304,-4.1384,8.316,-0.033903,-0.050091,-0.061697
0.19809,0.66685,-4.766,8.218,0.090103,-0.089186,-0.077274
0.31412,1.2945,-5.276,7.8649,0.26267,-0.12798,-0.091324
0.49191,1.6867,-4.4914,7.7669,-0.11576,-0.13225,-0.11606
0.70419,1.9613,-4.5699,7.963,-0.12004,-0.085521,-0.15944
0.9256,2.4517,-5.5898,8.3945,-0.45448,0.67317,-1.0198
1,3.2558,-6.6685,7.8649,-0.45754,0.61025,-0.92485
1,3.805,-5.9624,7.1196,-0.4163,0.54642,-1.4536
1,3.8834,-5.276,7.2373,-0.35216,0.51343,-1.3992
1,3.4127,-4.7856,7.2765,-0.27672,0.50946,-1.347
1,3.4912,-4.7856,7.2961,-0.18082,0.52779,-1.2883
1,3.4912,-4.7268,7.0019,-0.099571,0.55589,-1.2141
1,3.3931,-4.7072,7.0019,-0.083994,0.56536,-1.1225
1,3.4912,-4.4718,7.0019,-0.2419,0.54092,-0.28619
1,3.0989,-4.3149,7.0019,-0.33017,0.47037,-0.18662
1,3.1185,-3.9423,6.7077,-0.34239,0.36041,-0.83627
1,3.0008,-3.6873,7.0019,-0.26756,0.28283,-0.75533
1,2.4909,-3.4519,7.5511,-0.12156,0.27886,-0.69914
1,2.2359,-4.0796,8.0022,0.043982,0.32406,-0.64355
1,2.2163,-4.668,8.1787,0.17685,0.38118,-0.54428
1,1.8633,-5.0995,8.1787,0.24771,0.40561,-0.41172
1,1.824,-5.021,8.1003,0.26328,0.38179,0.16066
1,1.7652,-4.4914,7.5903,0.25412,0.32529,0.17349
1,1.6475,-3.7658,7.5511,0.23885,0.26481,-0.11087
1,1.0591,-3.0793,7.7865,0.22999,0.22969,-0.059254
1,0.80415,-3.5108,7.7669,0.21228,0.21869,-0.019548
1,0.98067,-4.2561,7.5315,0.16799,0.22297,0.028405
0.89081,1.0787,-4.3542,7.5315,0.1179,0.22755,0.076664
0.74194,0.70608,-4.1384,7.9042,0.10843,0.23182,0.12431
0.57999,0.25497,-4.158,8.1003,0.49297,0.24801,0.18295
0.42566,0.23536,-4.2561,7.6492,0.12614,0.28283,0.17807
0.26715,0.098066,-4.0796,7.0608,0.19639,0.32681,0.16646
0.134,0.019613,-4.1776,7.0019,0.2926,0.36927,0.14997
0.020721,-0.13729,-4.8837,6.7077,0.38423,0.40103,0.14142
-0.070984,-0.17652,-4.9426,6.8254,0.44899,0.41966,0.14539
-0.13022,-0.05884,-5.1779,7.3158,0.48533,0.42699,0.16127
-0.20154,-0.11768,-4.9426,7.4727,0.50427,0.41356,0.17746
-0.28137,-0.21575,-4.9229,7.7473,0.23305,0.17959,0.14019
-0.35318,-0.35304,-4.8641,7.7669,0.22022,0.14966,0.14844
-0.41351,-0.33343,-4.4914,7.6492,0.1744,0.14142,0.12187
-0.5032,-0.21575,-4.413,7.4334,0.075747,0.13714,0.11209
-0.59561,0.17652,-4.5699,7.4531,-0.065973,0.11454,0.1179
-0.67627,0.54917,-4.3934,7.61,-0.20495,0.057421,0.13011
-0.75739,0.41188,-4.4914,7.61,0.28772,-0.024435,0.13806
-0.82639,0.80415,-4.3345,7.61,0.24801,-0.090103,0.14325
-0.89508,0.35304,-4.0403,7.9042,-0.41417,-0.13286,0.12156
-0.94583,0.86299,-4.0403,7.9434,-0.43982,-0.16952,0.11026
-0.98981,1.2356,-4.3934,7.7473,-0.44379,-0.20953,0.15944
-0.99997,1.1768,-4.4522,7.7865,-0.38393,-0.24068,0.16127
-0.99997,0.92183,-3.7658,8.4926,-0.28558,-0.26603,0.17013
-0.99997,0.98067,-3.3735,8.8064,-0.1631,-0.28375,0.16585
-0.99997,0.80415,-3.7658,8.4926,-0.2923,-0.27397,0.15699
-0.99997,1.0591,-4.766,8.2376,-0.35766,-0.22969,0.15088
-0.99997,1.5887,-4.413,8.3945,0.17807,-0.18021,-0.023213
-0.99997,1.2356,-4.0207,8.5906,0.15669,-0.14447,-0.058643
-0.99997,0.74531,-3.7265,8.4337,0.0562,-0.12309,0.11454
-0.99997,0.74531,-3.5108,8.6887,-0.080634,-0.12187,0.10934
-0.99997,0.82376,-3.0401,8.7475,-0.21228,-0.15149,0.10812
-0.99997,1.0199,-3.2362,8.6299,-0.27031,-0.19364,0.12034
-0.99997,1.2945,-3.6873,8.4337,-0.023213,-0.22816,0.098655
-0.99997,1.0787,-4.3345,8.316,0.10049,-0.21166,0.029016
-0.99997,0.74531,-4.6091,8.0022,0.02474,0.13042,0.11851
-0.99997,0.92183,-4.9229,7.4727,-0.11026,0.058338,0.1295
-0.99997,1.2945,-4.8837,7.2373,-0.17013,-0.0039706,0.1741
-0.99997,1.0591,-4.5111,7.6296,-0.10568,-0.015272,0.15455
-0.99997,0.39227,-4.3542,8.0022,0.0562,0.043371,0.1124
-0.99997,0.45111,-4.3345,7.9434,0.21716,0.12187,0.082161
-0.99997,0.70608,-4.5111,7.7473,0.32345,0.1799,0.085827
-0.99997,1.1964,-4.7856,7.0608,0.33567,0.20067,0.1014
-0.99997,1.3337,-4.3345,7.1392,-0.22541,-0.15211,-0.17349
-0.99997,1.0787,-4.0796,7.8649,-0.33598,-0.15852,-0.1686
-0.99997,1.118,-3.7658,7.963,-0.35827,-0.17562,-0.22724
-0.99545,1.2749,-3.7265,8.0611,-0.29108,-0.17287,-0.22113
-0.93787,0.80415,-3.2166,8.4141,-0.20678,-0.11179,-0.21258
-0.86337,0.86299,-3.7658,8.316,-0.17898,-0.022602,-0.20983
-0.77686,1.0395,-4.4522,8.0807,-0.17532,0.040623,-0.20495
-0.64685,1.0199,-4.5111,7.9434,-0.10599,0.03207,-0.19059
-0.48883,1.1768,-4.3934,7.5511,0.027794,0.0073304,-0.10782
-0.30719,1.2945,-4.158,7.5511,0.16707,0.037874,-0.13439
-0.14697,1.118,-4.0011,7.6492,0.19303,0.10232,-0.18723
-0.036346,0.72569,-3.8834,7.7473,0.050702,0.13775,-0.18479
0.010895,0.92183,-4.7268,7.61,-0.21289,0.11209,-0.14416
-0.013245,1.1964,-4.9818,7.2765,-0.41264,0.026267,-0.11729
-0.066254,0.90221,-4.5699,7.4531,-0.39187,-0.062308,-0.10934
-0.18729,0.70608,-3.9423,7.8649,-0.23274,-0.06017,-0.10171
-0.32877,0.039227,-3.7069,8.3945,0.16677,-0.010996,-0.061087
-0.47842,0.56879,-4.2953,8.4926,0.22235,0.02138,-0.078191
-0.61115,1.1964,-4.3345,8.3749,0.32773,0.096822,0.016799
-0.71408,0.90221,-3.7265,8.4141,0.44624,0.18173,-0.0027489
-0.79535,1.1964,-3.3931,8.5514,0.50824,0.23579,0.0067195
-0.84079,1.5102,-3.2558,8.0022,0.48319,0.25168,0.012217
-0.89172,1.4318,-3.5304,7.7865,0.38668,0.22297,-0.0076358
-0.9295,1.5298,-3.8638,7.61,0.27886,0.14569,-0.041844
-0.95871,1.8633,-3.3146,7.2177,0.1689,0.042455,-0.19028
-0.97607,1.6867,-3.9227,7.6492,0.15485,-0.040317,-0.21716
-0.98608,1.7456,-4.0992,8.4926,0.15547,-0.062308,-0.13073
-0.97064,1.7456,-3.2362,8.8652,0.15211,-0.051313,-0.19639
-0.92392,1.6671,-3.0008,8.316,0.146,-0.044288,-0.22205
-0.8512,1.3729,-3.7658,7.8649,0.1127,-0.051007,-0.20525
-0.74585,1.6083,-3.5304,7.9434,0.03207,-0.083689,-0.1741
-0.61691,1.4906,-3.0793,7.9042,-0.086437,-0.12828,-0.1686
-0.49484,1.4514,-2.8832,7.6492,0.21838,0.17593,-0.0018326
-0.35037,1.216,-2.8243,8.0022,0.2755,0.2416,-0.012217
-0.19028,1.6083,-2.9028,8.0807,0.2981,0.27947,0.047953
-0.053375,1.824,-3.3735,7.963,0.2865,0.2865,0.045204
0.095245,1.6671,-3.3735,8.4141,0.25626,0.26817,0.04215
0.24503,0.90221,-2.9028,9.179,0.19761,0.23579,0.036346
0.38177,0.43149,-2.8439,9.5321,0.0562,0.20372,0.020464
0.50034,1.0395,-3.2362,9.2575,0.14691,0.18173,0.007025
0.62393,0.98067,-3.8638,8.7083,0.20006,0.19639,-0.0079412
0.71991,1.2356,-4.0011,8.316,0.16035,0.15974,0.0088575
0.81821,1.0395,-3.5696,8.4337,0.10354,0.12431,0.092852
0.90921,0.70608,-3.3146,8.6299,0.0061087,0.092852,0.069028
0.9751,0.70608,-3.3735,8.5906,-0.076358,0.067806,0.054672
1,1.2945,-4.0207,7.6296,-0.027184,0.097433,0.016188
1,1.1964,-4.3345,7.4531,0.13225,0.18173,-0.019242
1,1.0395,-3.3539,8.218,0.31429,0.27458,-0.017104
1,0.72569,-2.6086,9.0417,0.41417,0.32865,0.04612
1,0.80415,-2.432,9.0417,0.38485,0.31032,0.047037
1,0.92183,-3.0793,8.8064,0.25015,0.22083,0.025962
1,0.80415,-3.197,8.8848,0.092546,0.12126,0.036346
1,1.0591,-3.0008,8.8456,-0.026878,0.04612,0.040317
0.99307,1.0591,-2.6086,8.5514,-0.072693,0.0024435,0.047037
0.96683,1.0395,-2.5693,8.2572,-0.045204,-0.0079412,0.047342
0.9455,0.90221,-3.0401,8.0807,0.016188,0.002138,0.045509
0.94312,1.1572,-3.7658,8.0022,0.084299,0.020464,0.044288
0.96518,0.60801,-3.5304,8.2376,0.037874,0.043982,0.049786
1,0.25497,-3.3735,8.9437,-0.019242,0.061087,0.051313
1,0.35304,-3.197,8.8064,-0.071166,0.064752,0.057116
1,0.27459,-3.3735,8.3945,-0.086132,0.065057,0.065668
1,0.49033,-3.6873,8.3749,-0.030543,0.064446,0.071777
1,0.41188,-3.3931,8.4729,0.075442,0.073915,0.067806
0.94473,0.13729,-3.3735,8.7083,0.10018,0.11362,0.054978
0.80493,0.39227,-3.55,8.1591,-0.16799,-0.40531,0.11026
0.62579,0.039227,-3.2558,8.4337,-0.22449,-0.41661,0.090713
0.46487,0.13729,-2.5105,8.5514,-0.28986,-0.40989,0.17043
0.29651,0.078453,-2.5693,8.5906,-0.35308,-0.40378,0.13286
0.13107,0.17652,-2.7262,8.8064,-0.38057,-0.39859,0.1011
-0.01535,0.41188,-2.4713,9.0417,-0.34606,-0.38698,0.093157
-0.13397,0.17652,-2.2163,9.1594,-0.27519,-0.35064,0.10446
-0.23029,0.13729,-1.8437,9.2575,-0.1237,-0.30116,0.12095
-0.32217,0.13729,-2.0986,9.1202,-0.76755,-0.40653,0.52443
-0.39737,0.35304,-2.1967,8.8848,-0.8885,-0.48503,0.55253
-0.44211,0.19613,-2.8243,8.8848,-0.86621,-0.56261,0.26481
-0.44608,0.17652,-2.942,9.179,-0.77885,-0.60262,0.28619
-0.41656,0.13729,-2.7655,9.5321,-0.73548,-0.59956,0.2978
-0.38004,0.25497,-2.3732,9.6694,-0.79015,-0.59712,0.31398
-0.35324,0.54917,-2.4517,9.3359,-0.88545,-0.64507,0.37202
-0.32474,0.41188,-2.687,8.7279,-0.90836,-0.73976,0.45235
-0.27374,0.80415,-3.2362,8.8652,-0.8436,-0.82681,0.38851
-0.21136,0.66685,-3.0793,9.5713,-0.72693,-0.85491,0.35827
-0.13586,0.27459,-3.3539,9.179,-0.62644,-0.8094,0.51985
-0.054871,0.41188,-4.3149,8.1787,-0.56902,-0.70921,0.46853
0.021759,1.1964,-3.9815,7.2961,-0.56077,-0.59682,0.43219
0.14682,0.90221,-3.5304,7.2961,-0.60598,-0.53298,0.42608
0.32819,0.49033,-4.1972,7.3746,-0.5962,-0.54336,0.4444
0.56396,0.96105,-5.5898,7.0019,-0.37415,-0.5791,0.43249
0.81058,1.3925,-5.0995,7.3746,-0.06017,-0.55589,0.19639
0.97711,0.74531,-4.0796,8.218,0.14111,-0.4215,0.18692
1,0.41188,-3.6873,8.4141,0.24007,-0.27947,0.31918
0.99008,0.56879,-3.8834,8.0611,0.24618,-0.20128,0.25565
0.86047,0.98067,-4.0992,7.6492,0.1744,-0.18387,0.22052
0.65286,1.2749,-4.0992,7.4531,0.062614,-0.22358,0.23763
0.41504,1.4318,-4.0403,7.1785,-0.04215,-0.30177,0.24465
0.12439,1.5298,-4.7856,6.237,-0.11423,-0.37171,0.22144
-0.21036,1.5298,-5.6094,6.4332,0.34025,0.061087,-0.020159
-0.55453,1.2945,-4.8249,7.61,0.088881,0.027489,-0.025045
-0.89355,1.1768,-4.0403,8.2572,-0.1573,-0.10599,0.056505
-0.99997,1.216,-4.0011,8.5318,-0.30879,-0.20739,0.10018
-0.99997,1.3337,-4.158,8.0807,-0.38301,-0.25045,0.089186
-0.99997,1.5102,-3.6873,7.9434,-0.37446,-0.26206,0.042761
-0.99997,1.6671,-3.5108,7.6884,-0.30757,-0.22877,-0.0033598
-0.99997,1.5298,-3.3931,8.0611,-0.23671,-0.20006,-0.022907
-0.99997,1.2749,-3.8638,8.5318,0.053145,-0.23549,-0.18051
-0.99997,1.3925,-2.7262,9.3555,0.11332,-0.281,-0.17562
-0.99997,1.1768,-2.2751,9.0417,0.12798,-0.24801,-0.067806
-0.99997,1.216,-2.2948,8.4141,0.11087,-0.22449,-0.12126
-0.99997,1.4318,-2.6086,8.8652,0.028711,-0.2135,-0.1689
-0.99997,1.4514,-2.0594,9.5125,-0.10934,-0.20067,-0.19914
-0.99997,1.0395,-2.5693,8.9437,-0.17685,-0.20647,-0.18143
-0.99997,1.118,-3.6873,8.6299,-0.067195,-0.22846,-0.1686
-0.99997,1.2945,-3.9815,7.9434,-0.43158,-0.26359,-0.067195
-0.99997,1.0395,-3.9423,8.5514,-0.46487,-0.27397,-0.045815
-0.99997,1.118,-4.0796,8.316,-0.49114,-0.24343,-0.15699
-0.99997,1.4318,-3.4519,8.2376,-0.50732,-0.20464,-0.135
-0.99997,1.118,-2.9028,8.4926,-0.45357,-0.21197,-0.11606
-0.99997,1.216,-2.5693,8.5514,-0.34117,-0.25626,-0.094379
-0.99997,1.4906,-2.2948,8.2572,-0.26298,-0.24465,-0.087048
-0.99997,1.9613,-2.0398,8.218,-0.37538,-0.16768,-0.087354
-0.99997,1.7456,-2.1378,8.5318,-0.31124,-0.084299,0.14875
-0.99997,2.1575,-2.5301,8.2376,-0.33017,-0.04215,0.16799
-0.99997,2.2948,-2.5105,7.9042,-0.33078,-0.03879,-0.018631
-0.99997,1.8437,-2.3732,8.0022,-0.29016,-0.030849,0.025962
-0.99997,1.6867,-2.6086,7.8061,-0.2364,-0.0033598,0.071471
-0.99997,1.3925,-3.2166,7.6884,-0.22144,0.025045,0.098349
-0.99997,1.1964,-3.4716,8.4141,-0.27672,0.051924,0.10263
-0.89502,1.4318,-4.0207,8.2572,-0.2865,0.050396,0.11454
-0.64517,1.3337,-3.7658,8.0807,-0.146,-0.46517,0.10629
-0.36349,1.5102,-4.3149,8.1787,0.0051924,-0.42974,0.13958
-0.13577,1.4906,-3.9815,8.2376,0.17562,-0.3207,-0.11851
0.05661,1.3925,-4.0011,8.1003,0.27519,-0.17287,-0.11118
0.23157,1.1964,-3.8834,7.6296,0.26206,-0.078802,-0.10476
0.3718,1.118,-3.5304,8.0807,0.20464,-0.086437,-0.083994
0.48056,1.7064,-3.8638,7.6884,0.12248,-0.10599,-0.027794
0.58124,1.6083,-4.3345,7.6884,0.044899,-0.1124,0.046426
0.65067,1.3729,-4.9229,7.9042,0.069333,-0.14294,0.16799
0.71332,0.92183,-4.7072,8.5514,0.20097,-0.10079,0.12828
0.74454,1.3533,-3.7658,8.9044,0.33781,0.035736,0.17929
0.73734,1.4318,-3.6285,8.7475,0.36927,0.17379,0.22907
0.69531,2.0202,-3.9815,8.8064,0.27275,0.24984,0.21625
0.64706,2.2948,-4.0403,8.8456,0.12675,0.25412,0.18692
0.56549,2.1378,-3.6873,8.5318,0.023824,0.21258,0.20189
0.46219,2.1182,-3.5304,8.0807,-0.0085521,0.17074,0.20189
0.35043,2.4517,-3.8246,7.7865,0.043677,0.16157,0.065057
0.26297,2.9616,-3.55,7.3158,0.1237,0.21441,-0.037568
0.22043,2.942,-2.6086,7.4923,0.1347,0.28527,0.10385
0.19171,2.8635,-2.3732,7.6296,0.087354,0.31582,0.10965
0.19629,3.0008,-3.0989,6.9823,-0.03543,0.30513,0.12553
0.18146,3.1774,-4.0796,6.5312,-0.23305,0.29841,0.13744
0.13608,3.4323,-4.3934,7.4334,-0.53909,0.094684,0.13683
0.11777,2.9224,-3.7069,7.7865,-0.6857,-0.15821,0.14722
0.095032,3.0204,-3.7854,7.5903,-0.15944,-0.27061,-0.093768
0.074921,3.0008,-3.9815,7.3746,-0.19731,-0.30849,-0.11515
0.072205,2.8635,-3.7265,7.8649,-0.21686,-0.3262,-0.17135
0.09314,2.4517,-3.5304,7.61,-0.22266,-0.33078,-0.17013
0.16037,0.66685,-4.3345,10.513,-0.23366,-0.34544,-0.1573
0.25092,2.6086,-5.7271,9.3752,-0.23885,-0.37018,-0.12767
0.39056,3.3146,-6.0605,7.9042,-0.24679,-0.41233,-0.091019
0.595,2.5497,-4.7072,7.8649,-0.25107,-0.44593,-0.076664
0.77747,2.589,-3.3146,7.9434,-0.091935,0.06689,-0.066584
0.93799,2.079,-2.687,8.0807,-0.071471,0.091324,-0.063225
1,1.6867,-2.7655,8.1787,-0.034208,0.098044,-0.066584
1,2.1378,-3.2166,8.0807,0.019242,0.095906,-0.064141
1,2.1575,-3.6677,7.9434,0.066279,0.10263,-0.071777
1,2.0594,-3.5304,7.9434,0.10018,0.11759,-0.076664
1,1.7064,-4.0207,8.1003,-0.11942,0.13408,-0.07422
1,2.1182,-4.7856,7.9042,-0.10782,0.15241,-0.07025
0.97601,1.824,-4.3934,7.9238,0.071166,0.16616,-0.079718
0.9072,1.7652,-3.9423,8.0807,0.007025,0.1741,-0.074526
0.83301,2.0202,-4.1384,8.0807,-0.062919,0.17318,-0.063835
0.80096,2.2163,-3.8638,8.0611,-0.10446,0.16157,-0.064446
0.81216,2.5497,-3.7658,7.963,-0.1124,0.14416,-0.064141
0.86234,2.3732,-3.7854,7.7669,-0.091935,0.12095,-0.061697
0.9469,2.3732,-3.3931,7.8649,0.11545,0.11301,-0.062003
1,2.2359,-3.2558,7.8649,0.10873,0.13164,-0.070555
1,2.2948,-3.3146,7.8649,-0.04612,0.15608,-0.06017
1,2.0006,-3.6677,8.0022,0.029932,0.17471,-0.039095
1,2.2751,-3.8638,7.9238,0.10996,0.18387,-0.026267
1,2.3732,-3.8246,7.8061,0.14905,0.18143,-0.02138
1,2.2948,-3.6873,7.7473,0.13164,0.16768,-0.0088575
1,2.4517,-3.6873,7.7865,0.058948,0.15485,0.011912
1,2.4517,-3.8638,7.8649,-0.075136,0.11729,0.025656
1,2.1575,-3.7658,8.1787,-0.25229,0.058643,0.033598
1,2.4517,-3.6873,8.218,-0.018021,0.032681,-0.08827
1,2.2948,-3.4519,8.2376,-0.043371,0.037263,-0.079107
1,2.2751,-3.4519,8.0022,-0.084299,0.023213,-0.073609
1,2.0594,-3.7069,7.7865,-0.1292,0.0064141,-0.06689
1,2.334,-3.7658,7.6884,-0.14875,-0.0027489,-0.064446
1,2.1575,-3.7069,8.0611,-0.14936,0.00030543,-0.065973
1,2.0202,-3.3735,8.2572,-0.14416,0.013439,-0.076358
1,2.1378,-3.1381,8.316,-0.13317,0.03543,-0.086437
1,2.0006,-3.3931,8.1591,-0.024129,0.041233,0.00030543
1,1.824,-4.3934,7.4923,-0.032681,0.041539,0.0009163
1,2.0594,-4.158,7.5511,-0.04612,0.037263,-0.013439
1,1.9221,-4.0403,8.316,-0.051924,0.030849,-0.013744
1,2.079,-4.0796,8.2572,-0.047647,0.025962,-0.011912
1,2.1182,-4.0796,7.9434,-0.033903,0.019242,-0.0030543
1,2.1771,-3.7854,7.6884,-0.016188,0.012828,0.0012217
1,1.8633,-3.6873,7.61,-0.014966,0.017104,-0.00061087
0.99802,1.9809,-4.0207,7.4531,-0.027489,0.019853,-0.009163
0.89493,2.334,-4.4914,7.4531,-0.037874,0.011912,-0.0097738
0.79828,2.4517,-4.1972,7.8649,-0.037568,-0.002138,0
0.69827,2.2359,-3.8834,8.1199,-0.025351,-0.0079412,0.00061087
0.62079,2.2163,-3.7265,8.0218,-0.0097738,-0.0018326,0.0018326
0.53369,2.2948,-4.158,7.5903,-0.0024435,0.0082467,0.0009163
0.48822,2.2751,-4.7268,7.4531,-0.0085521,0.0088575,-0.0027489
0.44116,1.9613,-4.7072,7.4727,-0.010079,0.0045815,-0.0061087
0.43823,2.0006,-4.8249,7.7669,-0.34178,0.026573,0.061697
0.43219,2.1771,-4.8641,7.8649,-0.30391,0.038179,0.051007
0.43381,2.079,-4.8053,7.9434,-0.28161,0.044593,0.11912
0.4472,2.2163,-4.6287,7.9434,-0.27245,0.047037,0.12278
0.45831,2.2359,-4.8837,7.7865,-0.24709,0.045204,0.10293
0.46136,2.2948,-4.6091,7.5903,-0.20922,0.043677,0.079718
0.47156,2.1575,-4.3934,7.5511,-0.17135,0.047342,0.064752
0.45654,2.1575,-4.1972,7.61,-0.15088,0.045204,0.061087
0.44849,2.2359,-4.2561,7.7865,-0.15241,0.034208,-0.017715
0.42551,2.0594,-4.4522,7.5903,-0.15699,0.019242,-0.015882
0.40082,1.9613,-4.3542,7.61,-0.14722,0.0039706,0.041844
0.35779,1.9221,-4.5111,7.5315,-0.12614,-0.0064141,0.039095
0.33481,1.9613,-4.668,7.4531,-0.096211,-0.010996,0.032376
0.31573,1.8633,-4.8053,7.3746,-0.063225,-0.010996,0.017104
0.30249,2.0202,-4.5699,7.5511,-0.034208,0.002138,0.0009163
0.27591,2.0594,-4.7856,7.4923,-0.02138,0.025962,-0.011912
0.25412,1.8633,-4.3934,7.3746,0.36774,0.58063,-1.0162
0.245,1.6867,-4.3934,7.61,-0.18143,0.23824,-0.98013
0.245,2.0594,-4.4914,7.3746,-0.72724,-0.078191,-1.4997
0.22861,2.079,-4.8249,7.4531,-1.2953,-0.32376,-1.5146
0.21054,2.0006,-4.4522,7.5903,-1.8741,-0.50671,-1.4713
0.19958,1.9809,-4.413,7.61,-2.3665,-0.64721,-1.3711
0.17877,2.1575,-4.5111,7.4923,1.569,-0.75136,-1.2419
0.15918,2.1771,-4.6484,7.3158,0.96639,-0.80023,-1.1124
0.15332,2.0006,-4.4522,7.3746,0.10446,0.13744,-0.20983
0.13254,1.824,-4.7072,7.3746,0.095906,0.15211,-0.26848
0.10437,1.824,-4.7072,7.3746,0.076969,0.1686,-0.084605
0.1019,2.0594,-4.7856,7.3746,0.060781,0.18479,-0.082772
0.11267,2.1575,-4.4718,7.3746,0.085216,0.20067,-0.087048
0.10587,2.0594,-4.4914,7.4334,0.21319,0.21075,-0.10324
0.076935,2.1378,-4.5699,7.0216,0.4722,0.25473,-0.13317
0.015991,2.4517,-5.5113,6.9627,0.79107,0.36835,-0.17074
-0.058197,2.432,-5.5702,7.7473,1.4325,0.50183,-0.53512
-0.12177,3.0793,-5.2956,7.3354,1.5559,0.6295,-0.70708
-0.19934,3.2558,-4.4914,6.5312,1.7013,0.76358,-0.33964
-0.25284,2.1575,-3.5696,7.1785,1.7932,0.89431,-0.38912
-0.33865,0.70608,-3.1381,9.179,1.7627,0.99693,-0.42119
-0.41208,0.41188,-4.8249,9.3163,1.6298,1.0815,-0.44929
-0.44006,1.8437,-6.5508,8.8652,1.0803,1.0925,-0.47617
-0.34372,2.5497,-6.1978,8.8652,1.2892,0.9615,-0.48808
-0.15256,1.8437,-3.8638,9.7478,1.2941,0.77152,-1.4322
-0.0054321,0.70608,-1.0591,11.219,1.5269,0.60964,-1.4667
0.0068054,0.17652,0.23536,11.67,1.9041,0.5568,-0.94348
-0.014557,0.56879,1.0199,11.454,2.215,0.63927,-1.164
-0.0048523,1.1964,1.4906,10.101,2.2846,0.81123,-1.3237
0.058044,1.6475,0.68647,7.5511,2.0461,0.97922,-1.3928
0.11993,1.8437,-1.4318,4.668,1.4306,1.0116,-1.4022
0.2233,2.0202,-2.9028,4.5699,1.2828,0.86101,-1.4077
0.41309,2.4909,-2.4713,6.1978,-0.18357,0.1628,0.31093
0.6395,1.3925,-0.86299,8.5906,-0.23305,0.12737,0.28436
0.80109,0.43149,-0.23536,9.179,-0.2865,0.11606,0.42455
0.88193,0.90221,-0.52956,9.179,-0.32681,0.11668,0.405
0.89459,1.0395,-1.216,9.3163,-0.32101,0.12614,0.39065
0.85718,1.0395,-2.1575,8.8064,-0.26114,0.1689,0.36621
0.78671,1.5102,-2.4713,7.9434,-0.17257,0.22144,0.33414
0.69919,1.4906,-2.942,7.4727,-0.075136,0.25473,0.31704
0.59927,1.6083,-3.2362,7.8649,-0.020769,0.27184,0.12767
0.48962,1.8633,-3.5108,8.8652,0.044899,0.29047,0.15821
0.40201,1.7456,-3.5304,9.3163,0.085216,0.30085,0.24526
0.30127,1.9025,-3.4519,9.3163,0.0956,0.28741,0.24618
0.18503,2.079,-3.0597,8.8652,0.13134,0.23885,0.25229
0.06073,1.9809,-3.0989,7.963,0.22724,0.21075,0.22388
-0.054077,1.9221,-3.3931,7.8061,0.35216,0.24893,0.16707
-0.14645,1.6867,-3.7854,8.4729,0.44746,0.30391,0.12492
-0.2341,1.7064,-3.3735,8.8652,0.39554,0.32834,0.041233
-0.30444,1.6671,-3.3931,8.8064,0.25198,0.30604,0.018021
-0.34949,1.5298,-3.9815,8.4337,0.06353,0.23824,0.18479
-0.4259,1.4318,-3.4519,8.8652,-0.12523,0.13836,0.20067
-0.48993,1.1376,-2.5105,9.2575,-0.26512,0.022907,0.20189
-0.60287,0.86299,-1.9025,9.434,-0.32162,-0.076053,0.18082
-0.70044,0.43149,-2.5105,9.2183,-0.28863,-0.12584,0.13928
-0.79544,0.92183,-3.7658,8.7083,-0.14539,-0.10263,0.087048
-0.89023,1.3533,-3.8834,8.2376,0.058643,-0.030238,0.07758
-0.95541,0.92183,-3.3735,8.3749,0.23885,0.06017,0.054062
-0.99835,0.50995,-2.5105,8.9044,0.33567,0.1347,0.020159
-0.99997,0.039227,-2.2555,9.1986,0.32345,0.16432,0.041539
-0.99997,0.35304,-2.6086,8.5514,0.21625,0.14478,0.068111
-0.99997,0.5884,-3.1381,8.3749,0.073304,0.083383,0.089492
-0.99997,0.98067,-3.3539,7.9042,-0.036652,0.0015272,0.099876
-0.99997,0.86299,-2.9028,8.2572,-0.098655,-0.055589,0.094073
-0.99997,0.56879,-2.2751,9.0025,0.00030543,-0.043677,-0.010385
-0.99997,0.27459,-2.3144,9.5125,-0.013134,-0.030238,-0.007025
-0.99997,0.66685,-2.7459,9.434,-0.059254,-0.031154,-0.029322
-0.99997,1.0395,-2.9028,8.5318,-0.12095,-0.051313,-0.026267
-0.99997,1.118,-2.9224,8.1787,-0.17043,-0.080023,-0.021075
-0.99997,1.118,-2.9028,8.3749,-0.18784,-0.093768,-0.01741
-0.99997,1.118,-3.0989,8.5514,-0.16768,-0.08094,-0.015882
-0.99997,1.118,-3.0793,8.7868,-0.12584,-0.050702,-0.012828
-0.99997,1.3533,-3.7265,8.4926,-0.11209,-0.020159,-0.031765
-0.99997,1.3925,-3.6873,8.1787,-0.12614,-0.0048869,-0.030543
-0.99997,1.3337,-3.2362,8.5514,-0.1124,-0.0094684,0.00030543
-0.99997,1.1964,-2.8243,8.8652,-0.081856,-0.013744,0
-0.99997,1.3337,-3.0008,8.8064,-0.046731,-0.013439,-0.009163
-0.92795,1.216,-3.1381,8.6495,-0.012523,-0.009163,-0.017715
-0.82394,1.1964,-3.0008,8.5318,-0.091019,-0.00030543,-0.02474
-0.70206,1.2945,-2.6086,8.4337,-0.089492,0.0076358,-0.030238
-0.60547,1.0199,-2.687,8.6299,-0.010385,0.0058032,-0.050396
-0.50485,1.3337,-3.0793,8.4926,-0.051007,-0.0073304,-0.044288
-0.39636,1.1964,-3.3931,8.4926,-0.10782,-0.027489,-0.029322
-0.29669,1.0395,-3.1381,8.4141,-0.1518,-0.034514,-0.029016
-0.21524,1.0591,-3.3539,8.2768,-0.16005,-0.034514,-0.035736
-0.13229,1.118,-3.3931,8.316,-0.15088,-0.047342,-0.043371
-0.050903,1.2356,-3.2362,8.4926,0.011301,-0.059254,-0.043982
0.019684,1.1768,-3.1381,8.7475,0.011606,-0.052534,-0.048258
0.086304,1.1768,-3.0793,8.7868,-0.4102,-0.041844,-0.11668
0.14941,1.0787,-3.1381,8.3945,-0.14539,-0.051618,-0.14233
0.1889,1.0395,-3.2558,8.4141,-0.1631,-0.090713,-0.03543
0.2338,1.0787,-3.1381,8.4141,-0.20097,-0.13867,-0.033598
0.26328,0.66685,-3.0401,8.8652,-0.24587,-0.18021,-0.044593
0.29193,0.74531,-3.4519,9.0221,-0.2978,-0.22083,-0.055894
0.31738,0.92183,-3.6677,9.0025,-0.3488,-0.26053,-0.065057
0.34799,1.0395,-4.0796,8.7083,-0.39034,-0.28924,-0.086132
0.36325,1.1964,-3.8638,8.5318,0.0009163,-0.052534,-0.21961
0.396,1.0199,-4.2561,8.7475,-0.038179,0,-0.19578
0.42111,0.80415,-4.158,8.7083,-0.11301,0.017715,-0.35949
0.43671,1.0395,-4.3149,8.8652,-0.1912,0.021075,-0.31062
0.45605,1.3533,-4.4914,8.8848,-0.26206,0.030238,-0.28986
0.48346,1.5298,-4.3934,8.2572,-0.32162,0.040317,-0.28527
0.51199,1.9809,-4.2365,7.6296,-0.36621,0.031154,-0.26817
0.54504,1.8633,-4.3934,7.3746,-0.38057,0.016493,-0.24221
0.56741,1.824,-4.4914,7.1589,-0.33903,0.034514,0.22969
0.603,2.4517,-4.8249,7.0019,-0.25198,0.079718,0.25015
0.63339,2.9224,-4.6287,7.0608,-0.15547,0.12523,-0.15394
0.67865,2.9616,-4.2953,7.1196,-0.072998,0.17471,-0.094073
0.71048,2.4517,-3.4127,7.3354,-0.033598,0.21197,-0.025351
0.73383,2.6282,-3.3146,7.2373,-0.031154,0.2306,0.050396
0.75537,3.0793,-3.8638,6.747,-0.044288,0.22449,0.12614
0.74573,2.8047,-4.4718,6.6685,-0.08094,0.18265,0.18631
0.75897,3.0008,-5.0798,7.2373,-0.12553,0.12523,0.2645
0.80753,3.3931,-4.6091,7.3354,-0.16982,0.07025,0.25779
0.85742,3.2558,-3.8246,7.1196,-0.21869,0.03207,0.25931
0.9162,3.2558,-2.9028,7.1392,-0.26359,0.0051924,0.27275
0.93723,3.4127,-2.5693,7.2961,-0.30207,-0.017715,0.28039
0.94214,3.4912,-3.0008,7.3942,-0.32956,-0.0281,0.28466
0.95139,4.158,-3.3539,7.1392,-0.32803,-0.029932,0.28619
0.96051,4.1188,-3.2166,6.845,-0.28222,-0.0039706,0.27947
0.97626,4.0403,-2.6282,7.3158,-0.15638,-0.18509,-0.45632
0.96518,3.8638,-2.432,7.7865,-0.31918,-0.20495,-0.416
0.94333,3.55,-3.0597,8.0022,-0.49816,-0.20372,-0.47983
0.93497,3.6873,-3.6873,8.1003,-0.64141,-0.21625,-0.4612
0.93567,3.8638,-4.0207,7.8649,-0.66401,-0.24557,-0.4612
0.93408,3.9423,-4.2561,7.3942,-0.54489,-0.25168,-0.48167
0.93335,4.06,-4.3934,6.9235,-0.34178,-0.20861,-0.49572
0.92374,3.805,-4.3934,7.2373,-0.14569,-0.13164,-0.4835
0.90756,3.4323,-4.3149,7.5511,0.91935,0.53726,0.44379
0.90317,3.4912,-3.8442,7.6296,0.80237,0.44776,0.4163
0.87173,3.2754,-4.1384,7.5511,0.57757,0.36346,0.70066
0.81619,3.3931,-5.5898,7.6492,0.35033,0.25809,0.70524
0.75018,4.0992,-7.2765,7.9434,0.26084,0.1127,0.6802
0.71674,3.8638,-6.8254,7.8649,0.24129,-0.053451,0.6182
0.6962,3.2362,-4.3345,8.4926,1.0247,-0.16371,0.56077
0.63754,2.7851,-1.5691,8.4337,0.96211,-0.20708,0.49938
0.50467,2.6086,-0.49033,8.1787,-0.00030543,-0.28375,0.19792
0.31894,2.4713,-0.8826,7.0608,0.0061087,-0.40103,0.10904
0.1655,2.9224,-4.8641,5.2564,0.039706,-0.4945,0.38362
0.092102,4.5699,-6.747,4.0403,0.079718,-0.55161,0.33048
0.12726,4.6287,-5.7467,4.8641,0.064446,-0.56994,0.2978
0.17117,3.5304,-3.2362,6.6097,0.0027489,-0.55008,0.27153
0.077942,2.1182,-3.0989,7.5511,0.16585,-0.51893,0.27458
-0.13342,1.7456,-4.2953,6.5312,0.043066,-0.46334,0.27122
-0.38788,2.0006,-4.3345,6.2763,0.73151,0.18112,0.56139
-0.63663,1.4318,-5.021,7.61,1.5379,0.64477,0.55192
-0.86646,0.72569,-5.4329,9.0221,1.9474,0.97128,0.57055
-0.99921,0.56879,-5.5898,9.5713,1.9774,1.0983,0.71105
-0.99997,0.66685,-5.1975,9.3163,1.7394,1.0492,0.79504
-0.99997,0.2942,-4.4522,8.8064,1.4114,0.93798,0.82375
-0.99997,0.23536,-4.2561,9.0221,1.1719,0.86957,0.75931
-0.99997,-0.13729,-4.7072,9.2575,1.0586,0.87904,0.64446
-0.99997,0.60801,-4.8053,9.0613,1.0427,0.91935,0.70433
-0.99997,1.0199,-5.5898,9.2575,1.0705,0.95814,0.70677
-0.99997,0.98067,-5.1975,9.4144,1.1029,0.97219,0.60628
-0.99997,0.90221,-4.0011,8.7083,1.1292,0.93432,0.67684
-0.99997,0.90221,-2.9028,7.1589,1.168,0.85094,0.72082
-0.99997,1.0787,-2.9028,6.1978,1.1979,0.76908,0.72815
-0.99997,1.0787,-3.6873,6.2959,1.1738,0.70036,0.71257
-0.99997,1.0787,-4.6091,6.6097,1.1041,0.62461,0.69914
-0.99997,0.90221,-4.4914,7.1589,0.24893,-0.040928,-0.11362
-0.99997,0.039227,-3.6285,8.2376,0.37018,-0.014355,-0.10812
-0.99997,0.27459,-2.942,8.1199,0.38912,-0.0033598,-0.088881
-0.99997,1.0395,-2.9028,8.0022,0.3375,-0.021686,-0.089797
-0.99997,1.118,-3.0793,8.316,0.27031,-0.051924,-0.081245
-0.99997,1.3925,-2.7851,8.4141,0.19853,-0.092241,-0.089797
-0.99997,1.118,-3.3146,9.1202,0.15821,-0.1127,-0.09499
-0.99997,1.3729,-3.8246,9.5713,0.16554,-0.094379,-0.10721
-0.99997,1.7456,-3.6285,9.434,-0.10812,0.040317,-0.66035
-0.99997,1.6671,-4.0011,8.7083,0.20097,0.020769,-0.089186
-0.99997,1.3925,-4.3934,7.963,0.24862,0.076358,-0.093157
-0.99997,1.3925,-4.7268,7.3746,0.32345,0.13836,-0.098044
-0.99997,1.5102,-4.2953,7.2373,0.41264,0.21655,-0.10751
-0.99997,1.5495,-3.4519,7.4923,0.46762,0.30452,-0.13378
-0.99997,2.2163,-2.8243,8.2376,0.42516,0.36591,-0.16188
-0.99997,2.0202,-2.1182,8.9044,0.29993,0.35858,-0.10812
-0.99997,1.7652,-1.4318,9.3163,0.97128,0.67867,-0.17501
-0.99997,1.6671,-1.3533,8.9633,1.0116,0.67623,-0.15577
-0.99997,1.6083,-1.8044,8.6887,0.9612,0.63072,-0.53909
-0.99997,1.9221,-2.1967,8.2572,0.79321,0.55864,-0.45723
-0.99997,1.6671,-1.7848,8.8064,0.54764,0.47495,-0.37874
-0.99997,1.4318,-2.1967,9.179,0.27917,0.3824,-0.30299
-0.99997,1.6867,-3.0008,9.434,0.078802,0.29932,-0.24251
-0.99997,1.6083,-3.8638,9.5125,0.0058032,0.26359,-0.2025
-0.99997,1.7064,-3.5696,9.3163,0.04215,0.29352,-0.073304
-0.99997,1.7456,-2.8243,9.434,0.035125,0.32467,-0.083994
-0.99997,1.5495,-2.2948,9.0025,-0.0045815,0.30543,-0.11362
-0.99997,1.2945,-2.432,8.316,-0.077885,0.2364,-0.060476
-0.99997,1.216,-2.4517,7.6884,-0.10873,0.14752,-0.022297
-0.99997,1.4318,-2.7655,7.61,-0.092241,0.069333,-0.012523
-0.99997,1.3337,-2.7459,7.6296,-0.032681,-0.0045815,-0.018326
-0.99997,1.4906,-2.5105,8.1787,0.096211,-0.041539,-0.037874
-0.99045,1.1964,-2.3144,8.4337,-0.33445,0.2755,0.084299
-0.86206,1.216,-2.7262,8.6299,-0.2251,0.18326,0.072082
-0.7226,0.98067,-2.8243,8.6299,-0.087354,0.11576,0.00030543
-0.61722,0.72569,-2.7655,9.0025,0.021991,0.11087,-0.0042761
-0.56039,0.90221,-2.432,9.1986,0.038485,0.1405,0.0067195
-0.53925,0.90221,-1.8829,8.9437,-0.022297,0.17165,0.04215
-0.5264,0.90221,-1.7456,9.3359,-0.29688,0.18021,0.074831
-0.5184,0.90221,-1.6671,9.434,-0.36408,0.14019,0.089492
-0.49603,0.90221,-1.824,9.179,0.095906,0.27917,-0.12401
-0.44492,1.7064,-2.432,8.5514,0.21044,0.37171,-0.15516
-0.38684,1.7652,-2.1575,8.3945,0.3094,0.42058,0.059559
-0.33838,1.3925,-2.1575,8.8064,0.32193,0.39218,0.078802
-0.26752,1.2945,-2.432,8.5906,0.20953,0.281,0.075136
-0.19348,1.7064,-2.8439,7.963,0.12095,0.11973,0.043066
-0.11795,1.3729,-2.5301,8.2768,0.27886,0.07422,-0.0039706
-0.046448,0.90221,-2.5105,10.591,0.55803,0.14569,-0.05284
0.0029297,0.13729,-2.7851,10.768,0.9334,0.23274,-0.079107
0.081116,1.0395,-4.0796,8.1591,0.38149,0.24923,-0.002138
0.27069,0.27459,-3.2362,10.16,-0.16952,0.11118,-0.071166
0.46631,0.13729,-1.1768,12.396,-0.4667,-0.1689,-0.10721
0.57452,1.1964,-0.25497,10.454,-0.50946,-0.42547,-0.18845
0.56818,1.9025,-1.118,7.5903,-0.41844,-0.51191,-0.18204
0.45911,1.5298,-0.94144,7.1589,0.93401,-0.44899,-0.14783
0.26059,0.70608,-1.2553,7.0019,1.146,-0.32132,-0.12187
0.039581,1.3337,-2.4713,7.3158,-0.12095,-0.17196,-0.075136
-0.14944,1.4318,-3.2558,8.1787,-0.012217,-0.091935,-0.027184
-0.27448,1.4318,-2.8832,9.1202,0.10263,-0.07758,0.08491
-0.36496,0.27459,-1.8437,9.1006,0.11942,0.024435,0.072082
-0.4444,0.45111,-1.9809,8.4926,0.021686,0.1631,0.0064141
-0.52219,0.74531,-1.9809,8.2572,-0.15211,0.2697,-0.014355
-0.59442,0.41188,-2.3144,8.9437,-0.2642,0.3204,-0.047953
-0.67242,0.098066,-2.4124,8.9044,-0.15974,0.3262,-0.08491
-0.68405,0.098066,-2.1967,9.5125,-0.47403,-0.36285,0.35461
-0.64362,0.13729,-1.9809,9.4928,-0.45693,-0.41478,0.31887
-0.59119,0.76492,-1.8829,9.0417,-0.33506,-0.41753,0.42913
-0.52448,0.98067,-1.824,8.9437,-0.19212,-0.38698,0.44013
-0.46924,0.70608,-2.1575,9.3163,-0.079412,-0.36133,0.42883
-0.42136,0.80415,-2.6282,9.5713,-0.01405,-0.35003,0.41172
-0.36374,0.90221,-3.0793,8.8652,-0.0079412,-0.3427,0.39676
-0.34265,1.0395,-2.687,8.6887,-0.042455,-0.343,0.37293
-0.34039,0.80415,-1.8437,9.3163,-0.11179,-0.34422,0.14936
-0.33792,0.80415,-1.8829,9.5713,-0.098044,-0.31796,0.20189
-0.34985,0.90221,-2.0594,9.434,-0.06017,-0.26023,0.25045
-0.34808,1.0395,-1.6867,9.4144,0.023213,-0.1741,0.17318
-0.3638,1.0199,-1.824,8.8064,0.13134,-0.096822,0.096822
-0.40314,0.86299,-2.4517,8.8064,0.22846,-0.063835,0.073609
-0.46109,1.118,-3.0008,9.0417,0.30391,-0.048869,0.11973
-0.48636,0.92183,-3.0597,8.8652,0.26603,-0.023824,0.13989
-0.50497,1.1964,-2.8243,8.4337,0.092241,-0.036652,0.14661
-0.46506,1.5298,-3.4716,8.1199,-0.09163,-0.10721,0.13683
-0.39706,1.6671,-3.8638,7.9434,-0.19364,-0.17257,0.23305
-0.30344,1.7456,-3.197,8.4926,-0.18295,-0.19181,0.22052
-0.23166,1.4318,-2.3536,8.5514,-0.10171,-0.16005,0.19059
-0.18661,1.3337,-1.7848,8.7083,-0.012217,-0.10263,0.15852
-0.17719,1.0395,-2.5693,8.2572,0.036041,-0.050396,0.14508
-0.16016,1.1964,-3.3931,8.218,0.034819,-0.040012,0.14386
-0.10831,1.1964,-3.4519,8.4141,0.018631,-0.064752,-0.11576
-0.035065,1.0199,-3.2362,8.4926,0.025962,-0.093462,-0.15241
0.062286,1.0395,-3.6873,8.4141,0.062919,-0.094684,0.10599
0.18045,1.1376,-4.1776,8.1591,0.11668,-0.065668,0.069333
0.29321,1.3337,-3.5696,8.1003,0.14203,-0.016799,0.029627
0.38754,1.5298,-3.4519,7.9434,0.1127,0.026878,-0.011606
0.47256,1.4906,-3.2166,7.7865,0.065668,0.052534,-0.042761
0.55331,0.92183,-2.7655,7.9238,0.045815,0.080023,-0.075442
0.60028,1.118,-2.2751,8.7083,0.054367,0.04948,0.035736
0.63739,1.5298,-1.4318,9.1202,0.062919,0.053756,0.064141
0.63913,1.6083,-1.1768,9.2183,0.038179,0.049786,-0.090103
0.59866,1.2945,-1.8044,9.1594,-0.013134,0.039401,-0.068722
0.53894,1.6671,-2.3732,9.0417,-0.058948,0.02474,-0.043982
0.47861,1.5298,-2.8832,9.4732,-0.076358,0.023213,-0.019548
0.42365,0.92183,-3.3146,9.787,-0.073915,0.036041,0.0024435
0.38184,1.1768,-3.0401,9.3163,-0.082772,0.062003,0.018631
0.32199,1.1376,-2.7655,9.0613,-0.087354,0.079107,0.17532
0.2583,1.4906,-2.6086,8.8652,-0.046426,0.070555,0.17807
0.19052,1.4906,-2.9028,8.4141,-0.019242,0.04948,0.097738
0.12982,1.2945,-2.9028,8.4926,0.011912,0.025045,0.11362
0.078156,1.1964,-2.6086,8.8064,0.048564,-0.011912,0.1182
0.028748,1.1768,-2.432,8.6299,0.018937,-0.041233,0.12798
-0.027191,1.0787,-2.687,8.2572,-0.11026,-0.052229,0.13378
-0.071136,0.90221,-2.3732,8.218,-0.11148,-0.075747,0.15394
-0.12433,1.2945,-1.9613,8.3945,-0.015577,-0.14233,0.039706
-0.1665,1.5102,-1.8044,8.5514,0.28986,-0.21228,0.031154
-0.20267,1.4318,-2.2751,8.7279,0.70066,-0.20861,0.16341
-0.21246,1.7064,-2.4517,8.5514,0.9841,-0.15424,0.13317
-0.20337,1.7456,-2.6086,8.218,0.93065,-0.06353,0.082467
-0.18808,1.1964,-2.5105,8.6299,0.59895,0.066584,0.044593
-0.1669,1.5298,-3.0793,9.3752,-0.087354,0.13042,0.044899
-0.13638,1.118,-3.1381,9.5125,-0.13531,0.080329,0.050396
-0.10281,1.1768,-2.4517,9.3163,0.054062,-0.042761,-0.1295
-0.079163,1.1768,-3.3735,8.5514,0.087048,-0.0088575,-0.10812
-0.043304,1.3533,-4.1776,9.1986,0.068111,-0.0039706,-0.11301
0.029327,1.1964,-3.4519,10.258,0.026878,-0.014661,-0.12889
0.058502,0.56879,-1.1572,10.003,-0.028711,-0.018937,-0.13317
-0.01535,-0.68647,-0.8826,9.6694,-0.071166,-0.018021,-0.14203
-0.13721,0.13729,-2.432,7.963,-0.059559,-0.0088575,-0.15485
-0.25323,1.4318,-4.1384,6.6881,0.0009163,0.021686,-0.14966
-0.32498,1.8437,-4.1972,5.9821,-0.13317,0.023518,-0.048869
-0.33426,1.6083,-2.7262,7.0216,-0.027489,0.075442,-0.034819
-0.35962,1.6083,-1.6867,7.4334,0.044899,0.1463,-0.22052
-0.35172,1.5102,-1.8829,8.1787,0.068722,0.19731,-0.1967
-0.33527,1.6867,-1.9809,9.1202,0.039401,0.20708,-0.15272
-0.32678,1.6867,-1.6475,9.9439,-0.045204,0.17929,-0.10232
-0.33679,2.0594,-1.824,9.2183,-0.15821,0.1292,-0.069333
-0.40594,2.0006,-2.0398,7.0608,-0.27642,0.074831,-0.058032
-0.50699,1.1964,-2.6282,9.2575,-0.37049,0.02138,-0.030238
-0.58359,0.80415,-3.1381,11.533,-0.39065,-0.023213,-0.019548
-0.61209,1.5298,-2.7459,11.552,-0.33537,-0.036957,-0.026573
-0.58536,1.5102,-2.2555,10.12,-0.24923,-0.019242,-0.027794
-0.54514,1.7456,-1.9417,8.4926,-0.15974,0.011912,-0.021991
-0.48654,1.7456,-1.8829,7.5511,-0.083994,0.03543,-0.016493
-0.40344,1.8437,-2.6086,8.0807,-0.043982,0.052534,-0.017715
-0.25409,1.824,-2.687,8.6299,-0.055589,0.064446,-0.025351
-0.081573,1.4318,-2.1967,8.8064,-0.25259,0.054062,0.0024435
0.082977,1.1768,-1.9417,9.1202,-0.083689,0.0094684,0.0088575
0.24545,1.3533,-2.2751,8.7083,-0.16646,-0.039706,-0.0054978
0.37402,1.3533,-2.7262,8.4337,-0.25565,-0.07025,-0.0018326
0.49887,1.2945,-2.3536,8.5318,-0.31734,-0.085216,0.0009163
0.55811,0.90221,-1.824,8.8456,-0.32926,-0.081551,-0.0045815
0.57187,0.74531,-1.5102,8.9437,-0.30788,-0.057727,-0.014661
0.56589,0.90221,-1.8829,8.8652,-0.28741,-0.032987,-0.011606
0.53326,1.2945,-2.5301,8.5318,-0.19823,-0.11209,-0.22633
0.53021,1.0395,-2.687,8.9044,-0.041539,-0.014661,-0.23305
0.55737,1.0591,-2.687,9.1594,0.12584,0.097128,-0.27855
0.59518,1.118,-2.432,8.9437,0.2361,0.17562,-0.25931
0.61325,0.90221,-2.1182,9.1594,0.2416,0.20067,-0.22633
0.62936,1.2749,-2.1967,8.7475,0.11332,0.16035,-0.20159
0.62845,1.5102,-2.432,8.6887,-0.078191,0.080634,-0.18815
0.6438,1.3925,-2.6282,8.5514,-0.20281,0.025045,-0.20097
0.66409,1.1768,-3.0793,8.4926,-0.1909,-0.17532,-0.012828
0.71219,1.118,-2.7655,8.9044,-0.10018,-0.10049,0
0.7561,0.82376,-2.2751,9.3752,0.029322,-0.071166,0.0051924
0.79074,0.98067,-2.2555,9.2575,0.23579,-0.037263,0.0042761
0.77844,1.0787,-2.4713,8.8064,0.37477,0.026878,-0.036652
0.74707,1.118,-2.4517,8.4141,0.33689,0.13806,-0.063225
0.69083,1.0199,-2.1378,8.7083,-0.25534,0.21105,-0.071166
0.61487,0.86299,-2.3732,8.5514,-0.22571,0.19945,-0.036957
0.50519,0.80415,-2.5301,8.0807,-0.24984,0.12401,0.010079
0.45096,0.98067,-3.0793,7.9042,-0.33689,0.023824,-0.018326
0.44055,1.6671,-3.55,8.2376,-0.28436,-0.061697,0.007025
0.50198,2.1575,-3.4519,8.9044,-0.14478,-0.099876,-0.0027489
0.60672,1.5298,-2.6086,9.2771,0.024435,-0.069944,-0.019242
0.69699,1.3533,-2.0594,9.3752,0.18631,0.018937,-0.025656
0.77808,1.4318,-2.4713,8.8652,0.16616,0.12462,-0.010385
0.83929,1.6867,-3.4519,8.3945,-0.0562,0.21075,0.0088575
0.87173,1.6867,-3.6677,9.2575,0.069639,0.083078,0.082772
0.8414,1.5298,-3.1381,9.5125,-0.12217,-0.036652,0.11423
0.69034,1.7456,-1.9417,6.8254,-0.27031,-0.12492,0.029627
0.44482,-0.39227,-2.0594,8.7868,-0.30329,-0.14813,0.0039706
0.19882,-0.52956,-2.7851,10.591,-0.20586,-0.10934,-0.0085521
-0.012268,1.3337,-3.0597,9.434,-0.018326,-0.039095,-0.0073304
-0.19925,1.216,-2.5105,7.2961,0.17959,0.034208,0.0088575
-0.33472,0.98067,-2.5301,6.9235,0.29963,0.087659,0.044899
-0.42603,1.2356,-2.942,7.4334,0.19792,0.10843,-0.082772
-0.44873,1.0395,-2.589,9.0417,0.18631,0.13073,-0.06017
-0.42645,0.90221,-2.0594,9.7478,0.12431,0.22846,0.16188
-0.38104,1.4318,-2.2751,9.3359,0.022297,0.2419,0.19517
-0.34497,1.9221,-3.2558,8.3749,-0.14233,0.099876,0.17074
-0.29596,1.8633,-3.2362,8.0807,-0.25473,-0.071777,0.047953
-0.28006,1.6083,-2.7851,8.0807,0.30574,-0.22785,-0.072082
-0.26871,1.4318,-2.6086,9.3359,0.23152,-0.2584,-0.080634
-0.2713,1.0395,-2.432,9.5713,-0.12278,-0.025962,-0.011912
-0.24768,1.2356,-2.8243,9.3359,-0.076053,0.047647,-0.0094684
-0.20801,1.2945,-2.7459,8.8652,-0.1066,0.086132,-0.020769
-0.17325,1.3729,-2.687,8.8064,-0.17898,0.07758,-0.0033598
-0.12408,1.4318,-2.5105,8.4141,-0.23885,0.045509,0.029016
-0.070374,1.6083,-2.7459,7.8061,-0.23396,0.021075,0.03146
-0.0012207,1.2945,-2.9028,7.963,-0.17623,0.033598,0.018937
0.08139,0.86299,-2.6086,8.9437,-0.098044,0.07758,0.0061087
0.16858,0.76492,-2.2751,9.2575,-0.01069,0.07422,-0.035736
0.24792,0.76492,-2.3732,9.179,-0.00061087,0.089797,-0.019242
0.31793,1.118,-2.5105,8.6299,-0.0079412,0.095906,-0.013744
0.37265,1.2945,-2.6478,8.0022,0.007025,0.096211,-0.036346
0.40329,1.1768,-2.432,8.4141,0.056505,0.1011,-0.053451
0.40714,1.2945,-2.8243,8.7279,0.11881,0.11209,-0.055589
0.3992,1.0395,-2.8243,9.179,0.146,0.1069,-0.050091
0.39438,1.118,-2.7851,9.5713,0.11973,0.080023,-0.041844
0.35876,1.1964,-2.7262,9.2575,0.10446,0.049175,-0.01405
0.3483,0.98067,-3.0989,9.3163,0.20708,0.0015272,-0.051618
0.32068,0.92183,-3.1381,9.3163,0.42119,-0.03146,0.0054978
0.30774,0.76492,-2.1378,9.8851,0.61361,-0.040928,0.0061087
0.25928,0.92183,-1.2553,9.689,0.70372,-0.026878,-0.018021
0.19601,1.2945,-1.2553,8.2572,0.62247,-0.0033598,-0.018021
0.10144,1.6475,-1.471,7.7669,0.39279,-0.057116,-0.0076358
0.01712,1.1964,-2.0594,7.9434,0.10843,-0.15638,-0.0012217
-0.049011,1.4318,-2.9028,7.8649,-0.15669,-0.24496,-0.021686
-0.083954,1.3533,-3.0793,8.0807,-0.36469,-0.29505,-0.026267
-0.074982,1.2945,-2.6086,8.1787,-0.48258,-0.28619,-0.091935
-0.043732,1.1768,-2.6086,8.1787,-0.51496,-0.24587,-0.11881
0.0093079,1.5298,-3.295,7.9434,-0.48228,-0.20036,-0.10751
0.093567,1.6083,-2.9224,8.2376,-0.43402,-0.15455,-0.069639
0.1806,1.6083,-3.1381,8.7279,-0.36896,-0.12401,-0.027184
0.28812,1.3533,-2.7655,9.0613,-0.2364,-0.088881,-0.0082467
0.3768,1.5495,-2.432,9.1006,-0.050702,0.031154,-0.071471
0.44,1.4318,-2.3732,8.7868,-0.04948,0.04215,-0.066584
0.47882,0.98067,-2.1182,9.179,-0.051007,0.062003,-0.072388
0.4888,0.90221,-2.1575,9.9439,-0.055894,0.091935,-0.081856
0.48666,0.98067,-2.3144,9.5713,-0.060476,0.13317,-0.09163
0.47836,1.2749,-2.589,9.179,-0.068417,0.17226,-0.096517
0.45914,1.1964,-2.4713,8.8456,-0.069333,0.18876,-0.087048
0.43881,1.3337,-2.8243,8.6887,-0.040623,0.19334,-0.074831
0.41995,1.5102,-2.9224,8.3945,0.0009163,0.20617,0.022297
0.37067,1.6475,-2.9028,7.9042,0.023824,0.20586,0.033292
0.32822,1.5887,-2.6282,8.0807,0.01405,0.17959,-0.050091
0.29514,1.3729,-2.7459,8.1199,-0.0051924,0.14019,-0.033292
0.27829,1.5298,-2.9028,8.2572,-0.0015272,0.11759,-0.030238
0.24158,1.4514,-2.7459,8.1003,0.014966,0.11087,-0.023824
0.21005,1.3925,-2.942,8.1787,0.022602,0.09163,-0.0024435
0.17679,1.0591,-2.7459,8.6299,0.023213,0.05681,0.013439
0.1546,0.80415,-2.6282,9.2575,-0.12126,0.015577,0.067195
0.12866,0.66685,-2.9028,9.3359,-0.16799,-0.026573,0.068417
0.10977,0.56879,-2.5301,9.1986,-0.16616,-0.061392,0.040317
0.080292,0.56879,-2.589,9.2575,-0.11759,-0.08491,0.040317
0.046539,0.80415,-2.3536,9.179,-0.042455,-0.087965,0.039095
0.00088501,0.74531,-2.3732,8.7475,0.022907,-0.068111,0.041233
-0.032074,1.0395,-2.6674,8.4926,-0.0015272,-0.032681,0.049175
-0.048065,0.8826,-2.6086,8.6299,-0.055894,-0.002138,0.05681
-0.056915,1.1964,-2.7459,8.6495,-0.013134,0.012217,-0.0015272
-0.047852,1.3925,-2.6674,8.5318,-0.055894,0.023824,0.015272
-0.023651,1.1768,-3.0597,8.5318,-0.068111,0.029627,0.057116
0.0092468,1.4318,-3.3539,8.6299,-0.047037,0.026573,0.051007
0.048584,1.3337,-2.9028,8.7279,-0.0054978,0.021075,0.048869
0.091705,1.3729,-2.6086,8.7083,0.045509,0.020159,0.040928
0.10416,1.5102,-2.4124,8.6887,0.044593,0.039706,0.025656
0.11981,1.3533,-2.6086,8.7475,0.026878,0.069944,0.0027489
0.1265,1.3533,-2.7459,8.8064,-0.0051924,-0.040012,0.017715
0.14734,1.1964,-3.0989,8.9044,-0.039401,-0.050396,0.011912
0.1734,1.0787,-2.5693,8.8456,-0.058032,-0.046426,0.037263
0.17719,1.2749,-2.3732,8.9437,-0.058643,-0.028711,0.032376
0.16443,1.0591,-2.432,8.8652,-0.078191,-0.025045,0.044899
0.16739,1.2356,-2.687,8.8456,-0.10599,-0.029016,0.057116
0.16733,1.0395,-2.8243,8.7475,-0.12126,-0.021075,0.045509
0.17807,1.0395,-2.7655,8.8848,-0.10568,0.0097738,0.030543
0.17633,1.0199,-2.6282,8.6299,-0.035125,0.055589,-0.075136
0.18448,0.92183,-2.5693,8.6299,-0.01405,0.083078,-0.072082
0.1908,1.118,-2.687,8.8064,0.00061087,0.094379,0.010079
0.19623,0.98067,-2.7851,8.7475,0.0076358,0.093157,-0.0030543
0.21179,1.118,-2.7459,8.7868,-0.0064141,0.085521,-0.019548
0.24316,1.0395,-2.5105,8.8652,-0.03207,0.080634,-0.03543
0.26056,0.8826,-2.5693,8.5906,-0.055589,0.076969,-0.058948
0.31311,0.90221,-2.432,8.4926,-0.061697,0.063225,-0.077274
0.34219,1.3533,-2.7459,8.4926,-0.049175,0.054672,-0.065057
0.39468,1.6083,-2.8243,8.4141,-0.035736,0.060476,-0.068722
0.47177,1.5495,-2.9028,8.6887,-0.016799,0.078191,-0.080634
0.56491,1.2945,-2.9028,8.8456,0.033598,0.10324,-0.071166
0.67572,1.4318,-2.9028,8.7083,0.10018,0.13347,-0.062003
0.79083,1.6867,-2.7459,8.7083,0.14936,0.15485,-0.068417
0.89001,1.1964,-2.687,8.7083,0.16341,0.15394,-0.067806
0.95108,1.4514,-2.7262,8.4926,0.16402,0.12828,-0.065363
0.94208,1.8633,-2.7459,8.2572,0.17593,0.095295,-0.087354
0.85339,1.824,-3.0401,8.6299,0.16616,0.075442,-0.079412
0.70819,1.3337,-3.0008,9.1594,0.1292,0.068722,-0.075136
0.51984,1.3533,-3.5304,8.8652,0.085827,0.062919,-0.074526
0.34967,1.2749,-3.4127,8.8848,0.01741,0.037263,-0.07086
0.21027,1.0395,-3.0793,8.9437,-0.054367,-0.016188,-0.065668
0.090607,0.64724,-2.8243,8.9437,-0.079412,-0.072998,-0.067501
-0.023071,0.54917,-2.5693,8.4337,-0.076053,-0.098044,-0.080634
-0.1026,0.90221,-1.9417,8.4141,0.57024,0.4725,-0.024435
-0.17401,1.0787,-1.7456,8.4926,0.64507,0.55008,-0.015577
-0.2355,0.74531,-1.2553,9.0417,0.63469,0.58796,-0.28344
-0.27444,0.49033,-2.1967,8.8456,0.50183,0.58643,-0.27428
-0.28702,0.80415,-4.2561,8.0807,0.27275,0.54062,-0.24465
-0.22986,1.824,-4.0011,8.6299,0.0073304,0.4218,-0.19395
-0.14172,0.90221,-2.6282,9.434,0.32956,0.23671,-0.12798
-0.056976,0.74531,-2.4713,9.2575,0.46212,0.027794,-0.067195
0.021362,0.76492,-3.2166,8.7083,-0.1518,-0.12645,-0.42425
0.10181,1.4514,-3.0401,8.3945,0.079718,-0.17837,-0.45693
0.18225,1.3337,-3.197,7.4531,0.40134,-0.14386,-0.041844
0.25943,1.1964,-3.3539,7.2765,0.72265,-0.012523,-0.098655
0.32632,1.1768,-3.3146,7.8649,0.97983,0.16127,-0.18143
0.38785,1.0199,-3.0008,8.4926,1.1096,0.32009,-0.25045
0.43195,0.8826,-2.6086,8.8652,-0.19426,0.47464,-0.3094
0.41415,1.3729,-2.8243,8.0022,-0.24679,0.61606,-0.37415
0.34903,1.7064,-3.2362,7.3746,0.5736,0.69364,-0.74006
0.27368,1.6867,-3.4716,8.0022,0.40989,0.69394,-0.67837
0.21143,1.1964,-3.2362,8.8064,0.39309,0.67867,-0.49724
0.15454,0.80415,-2.432,10.16,0.52565,0.68417,-0.57085
0.12619,0.56879,-1.9809,10.63,0.7141,0.71746,-0.66004
0.13708,0.76492,-2.7459,9.9439,0.88514,0.80054,-0.72785
0.21048,1.3729,-3.8246,9.0025,1.0443,0.92485,-0.75931
0.33765,1.4318,-3.8638,8.0807,0.81734,1.0299,-0.76969
0.45947,1.0199,-3.3931,7.9042,0.50427,0.1689,-0.20495
0.54395,0.98067,-2.4517,8.3749,0.51435,0.21564,-0.25992
0.57187,0.56879,-1.4906,8.7475,0.45082,0.22907,0.033292
0.55441,1.0199,-1.4318,8.8848,0.33567,0.21228,0.013744
0.53033,0.8826,-1.7848,8.6299,0.19395,0.19578,-0.0039706
0.55341,0.72569,-1.8829,8.6299,0.096822,0.21105,-0.037874
0.62592,0.43149,-1.0199,9.1202,0.10385,0.27611,-0.087354
0.69366,0.66685,-1.0199,9.434,0.1967,0.37751,-0.14203
0.74951,0.8826,-1.9809,9.3163,0.3485,0.0045815,-0.051618
0.82849,0.60801,-3.3931,8.8652,0.41936,0.081856,-0.052229
0.87668,0.60801,-3.1381,8.8064,0.4386,0.15699,-0.12278
0.89493,-0.019613,-2.2948,9.179,0.41905,0.19517,-0.10843
0.8808,0.17652,-1.5691,9.0417,0.40806,0.21166,-0.090713
0.82559,0.33343,-1.5691,9.0221,0.42486,0.23915,-0.092852
0.74786,0.098066,-0.96105,9.2575,0.39676,0.27306,-0.085521
0.64807,-0.43149,-1.1768,8.7279,0.27367,0.28222,-0.06689
0.54718,0.27459,-1.824,7.6884,0.135,0.25626,0.031765
0.47342,0.25497,-1.6671,8.1787,0.072693,0.20556,0.027794
0.42792,0.039227,-1.0199,9.0613,0.076053,0.16707,-0.048258
0.39481,-0.27459,-1.0395,9.3555,0.1011,0.15272,-0.034819
0.37161,0.039227,-1.1572,9.434,0.1179,0.14172,-0.022297
0.33157,0.27459,-1.2553,9.434,0.092241,0.11881,0.00030543
0.27676,0.27459,-1.5691,9.1202,0.03543,0.077885,0.029627
0.21283,0.41188,-2.1967,8.9044,-0.019242,0.039401,0.040928
0.17432,0.56879,-2.687,8.8848,-0.37965,-0.54459,0.4612
0.1423,0.5884,-2.4517,9.6694,-0.44074,-0.60079,0.41508
0.1347,0.39227,-1.7456,9.434,-0.45571,-0.61697,0.38423
0.15378,0.39227,-1.6475,8.9044,-0.47464,-0.61636,0.37874
0.18729,0.76492,-1.726,8.9437,-0.50488,-0.62217,0.39737
0.25323,0.66685,-1.3533,8.8064,-0.51404,-0.61911,0.43219
0.33627,0.60801,-1.3337,8.8456,-0.48472,-0.60689,0.46976
0.40533,0.17652,-1.2553,8.7475,-0.39034,-0.56077,0.49052
0.45535,0.17652,-1.0983,9.2183,-0.20708,-0.47464,-0.055589
0.48773,0.11768,-1.3533,9.3163,0.013134,-0.36438,-0.10018
0.47107,0.27459,-1.3533,9.3359,0.16952,-0.25931,0.37782
0.44519,-0.27459,-1.4906,9.6694,0.21716,-0.18357,0.31215
0.41245,0.2942,-1.6279,9.3359,0.19853,-0.13683,0.21869
0.39566,0.49033,-1.5691,8.9437,0.17776,-0.11423,0.13928
0.38333,0.39227,-1.3141,8.8456,0.18967,-0.10049,0.074831
0.38101,0.45111,-1.1768,9.0417,0.23915,-0.056505,0.0064141
0.40619,0.019613,-1.9417,9.6694,-0.13683,-0.20189,-0.051618
0.48578,0.17652,-2.2163,9.9636,-0.52137,-0.15149,-0.12737
0.61832,0.33343,-2.432,9.179,-0.97708,-0.17776,0.20831
0.77792,0.13729,-1.2553,10.16,-1.3326,-0.27489,0.26909
0.91629,0.27459,-0.5884,10.454,-1.4294,-0.41814,0.29474
0.98187,0.74531,-0.80415,9.179,-1.2333,-0.55497,0.27733
0.97592,0.41188,-0.74531,8.8064,0.075442,-0.62858,0.21075
0.89682,0.17652,-0.41188,8.9437,0.088575,-0.57299,0.082467
0.75958,0.27459,-1.0395,8.7475,0.22235,-0.39859,0.0018326
0.64697,0.8826,-1.9417,8.4926,-0.76664,-0.1909,0.0079412
0.57281,0.90221,-2.0398,8.8848,-0.41966,-0.047342,-0.15821
0.55515,0.90221,-1.824,9.0613,-0.21564,-0.010385,-0.12889
0.53415,1.0395,-1.118,9.1986,-0.14813,-0.039095,-0.048869
0.52371,0.98067,-1.4122,8.5318,-0.090713,-0.072388,0.016799
0.51709,1.216,-1.8044,8.2572,0.03543,-0.065057,0.035736
0.54272,1.1964,-1.8437,8.7868,0.16432,-0.043066,0.018937
0.56369,1.216,-2.9028,8.4926,-0.90561,-0.17746,0.33048
0.55734,1.7456,-3.3931,8.218,-0.86834,-0.14752,0.34361
0.46881,1.824,-3.5304,7.3158,-0.80695,-0.15088,0.11118
0.2529,1.0787,-2.0594,8.6887,-0.70188,-0.15638,0.16371
-0.097534,-1.5298,-1.4318,12.16,-0.55589,-0.12095,0.19028
-0.52423,-0.70608,-3.7265,9.1202,-0.38759,-0.052229,0.17807
-0.85345,1.6867,-4.158,7.7865,-0.17807,0.011912,0.19242
-0.99997,1.1768,-3.0008,8.0022,0.13195,0.1014,0.26206
-0.99997,-0.05884,-1.5102,8.4926,-0.3937,0.32681,-0.039095
-0.99997,-0.33343,-1.3337,8.2572,-1.1512,0.52046,0.092852
-0.99652,0.45111,-2.8832,7.61,-1.3604,0.17257,0.35522
-0.86374,1.5102,-4.8249,7.2765,-1.0916,-0.40836,0.37996
-0.61343,2.1575,-5.1387,8.1787,-0.64263,-0.69944,0.29871
-0.28912,1.8044,-3.6677,9.3359,-0.19945,-0.70921,0.14661
0.036407,1.3925,-2.9028,9.1006,0.4612,-0.55467,0.0082467
0.3317,1.7456,-3.197,8.5514,0.3543,-0.35644,-0.071166
0.62805,2.1378,-3.1774,8.8064,-0.30879,-0.22174,-0.27184
0.90546,1.7456,-3.7265,8.316,-0.33781,-0.23457,-0.3146
1,2.1378,-3.0008,7.2373,-0.41783,-0.20433,-0.0045815
1,1.2945,-2.5105,7.3158,-0.49633,-0.17746,-0.033903
1,0.96105,-2.1182,8.4141,-0.50121,-0.17593,-0.058643
0.89621,0.43149,-3.0793,9.3359,-0.45112,-0.18204,-0.10385
0.70334,0.5884,-4.158,8.8848,-0.35369,-0.19364,-0.1628
0.51144,1.118,-4.4914,8.6887,-0.22297,-0.21411,-0.22144
0.35156,1.4318,-3.9423,8.4141,0.018326,-0.062919,0.065973
0.20523,1.1768,-2.8243,8.6495,0.057116,-0.041233,0.058032
0.06131,1.1376,-2.5105,8.8064,0.074831,-0.03207,0.018631
-0.051514,1.1376,-2.2948,8.7279,0.051313,-0.045204,0.04215
-0.11203,1.0787,-2.687,8.7083,-0.016493,-0.067806,0.068417
-0.15005,1.1768,-2.9812,8.5514,-0.098349,-0.11545,0.083994
-0.14578,1.0591,-2.2948,8.7475,-0.14508,-0.16463,0.091935
-0.12448,1.0787,-2.2751,8.8652,-0.13592,-0.1799,0.083994
-0.094391,1.118,-2.7262,8.8456,-0.024129,-0.15944,0.020464
-0.099487,1.0787,-3.295,8.7475,0.053451,-0.12217,0.034514
-0.1286,1.1964,-3.5304,8.6495,0.11606,-0.080634,0.052229
-0.15704,1.5298,-3.1381,8.3749,0.17654,-0.028405,0.043677
-0.22482,1.3533,-2.9028,8.1787,0.17104,0.034514,0.033292
-0.27646,1.1964,-2.0594,8.4337,0.03207,0.087965,0.022602
-0.32703,0.90221,-2.432,8.8456,-0.17868,0.10385,0.023824
-0.35703,0.90221,-2.9224,9.1202,-0.35552,0.058032,0.021075
-0.32892,1.1964,-3.0989,9.1594,-0.45998,-0.022297,0.065363
-0.27524,1.1964,-3.0793,9.0221,-0.49236,-0.091324,0.035736
-0.20953,1.0395,-3.0793,8.9044,-0.44379,-0.1405,0.036041
-0.12344,0.96105,-3.2362,9.2771,-0.34239,-0.16432,0.019548
-0.065399,1.0395,-3.0793,9.3359,-0.24129,-0.1631,0.014355
-0.035065,0.60801,-3.197,9.0613,-0.1967,-0.1573,0.025351
-0.018463,0.27459,-3.9815,9.6497,-0.22388,-0.16463,0.050396
6.1035e-05,-0.039227,-4.4718,9.8066,-0.27581,-0.18998,0.071471
-0.0077209,0.098066,-3.6873,9.5321,-0.27092,-0.73212,-0.9951
0.0051575,0.11768,-3.2558,8.8064,-0.12126,-0.66126,-0.98807
-0.018219,0.56879,-3.4716,7.5903,0.14966,-0.51313,-0.98349
-0.052917,1.824,-3.8638,7.4531,0.48136,-0.3207,-1.044
-0.074768,1.9809,-3.9423,8.1003,0.75595,-0.13958,-1.065
-0.081268,1.6083,-4.3934,8.6299,0.88362,-0.01741,-1.0455
-0.048401,1.824,-4.9818,7.7865,0.85246,0.019242,-1.0214
0.031006,2.4909,-5.7467,6.9235,0.70372,-0.024435,-1.0037
0.16757,3.805,-5.884,6.5116,-0.018021,-0.11973,-0.63102
0.34201,3.5696,-5.7075,7.1589,-0.20372,-0.2306,-0.5791
0.51245,3.0597,-4.8249,7.61,-0.29383,-0.28924,-0.97341
0.66241,2.942,-4.2953,7.3746,-0.27367,-0.2697,-0.95295
0.82117,3.8442,-4.8053,6.5508,-0.17318,-0.20159,-0.92118
0.94836,4.1972,-4.9426,6.5312,-0.068111,-0.11057,-0.86437
1,4.06,-3.7658,7.4531,0.48442,-0.022907,-0.78405
1,3.4912,-2.1575,8.2572,0.22999,0.034514,-0.69669
1,3.2558,-1.0395,8.2768,-0.14783,0.042455,-0.1292
1,3.805,-1.3533,7.7865,-0.32284,0.031154,-0.070555
1,4.4718,-1.5102,6.8254,-0.49816,0.019548,-0.51985
1,4.668,-1.4318,6.747,-0.59956,-0.01069,-0.45418
1,4.0011,-1.471,7.4727,-0.59804,-0.049175,-0.39126
1,3.8638,-1.3533,7.8649,-0.51924,-0.067501,-0.32376
1,4.1188,-1.1768,7.3354,-0.012523,-0.050702,-0.24618
1,4.5111,-1.2553,6.8254,-0.038485,-0.0079412,-0.18143
1,4.5699,-1.6867,6.747,-0.21533,0.044288,0.3543
1,4.4914,-1.9417,7.4531,-0.19731,0.087048,0.4102
1,4.4326,-1.9417,7.963,-0.24618,0.098044,-0.0054978
1,4.1972,-1.8829,8.0807,-0.32345,0.092852,0.054978
1,4.668,-1.8437,7.8061,-0.39615,0.074526,0.11148
1,4.3738,-1.9613,7.8061,-0.43768,0.051007,0.17135
1,4.2561,-2.9224,8.2572,-0.41386,0.035125,0.22816
1,4.8053,-3.5696,8.3749,-0.30024,0.0094684,0.28588
1,4.9818,-3.6285,8.0807,-1.5412,-0.35675,0.54886
1,4.7464,-3.3146,8.0807,-2.044,-0.42577,0.65668
1,4.6484,-3.3931,8.0807,-2.5711,-0.58521,0.6692
1,4.5895,-3.9423,8.1787,-2.9581,-0.74984,0.71319
1,4.8053,-4.1776,7.9238,-3.1475,-0.82925,0.70494
1,5.0602,-3.8834,7.4727,-3.072,-0.81489,0.63408
1,4.6484,-2.9028,7.4531,-2.7238,-0.70738,0.55467
1,4.2561,-2.5693,7.5511,-2.2064,-0.45509,0.51832
1,4.4326,-3.1381,7.6492,-1.4019,-0.14936,0.99082
1,4.5111,-3.6285,7.3158,-1.0522,0.10171,0.89828
1,4.8053,-3.4127,6.9823,-0.68997,0.31398,0.8094
1,4.4914,-2.5693,6.8254,-0.32467,0.4667,0.93279
1,4.0403,-2.432,6.747,0.020769,0.61514,0.98258
1,4.1972,-3.6677,6.2959,0.34025,0.74739,0.98258
1,4.5111,-3.9423,6.1978,0.66309,0.81948,1.0073
0.99142,4.3738,-2.687,6.747,1.0082,0.92424,1.0403
0.91757,3.9423,-2.0006,6.6881,1.3986,1.077,0.72998
0.83261,4.158,-3.5696,5.3544,1.8234,1.2309,0.60659
0.74179,4.8837,-5.7271,4.0011,2.1704,1.3778,0.85368
0.67068,5.3152,-6.5508,2.9812,2.2996,1.489,0.85704
0.61002,5.2171,-5.5702,2.9224,2.1719,1.5394,0.85338
0.54144,5.1191,-5.3544,2.6282,1.8744,1.5589,0.83078
0.45038,4.2169,-5.4133,3.3735,1.5779,1.5751,0.81764
0.323,3.8638,-7.0019,3.6285,1.3726,1.5244,0.7981
0.20456,4.1972,-8.1787,4.3149,-0.82345,-0.37568,0.49602
0.12631,3.8638,-7.5903,5.276,-0.92638,-0.36805,0.59071
0.02594,3.3146,-6.3743,6.5901,-1.0589,-0.40348,0.38943
-0.089661,2.8635,-5.2368,5.5506,-1.1203,-0.48686,0.44104
-0.26367,1.9221,-6.0409,5.3544,-1.0953,-0.5455,0.47892
-0.43457,1.0395,-7.6296,6.6685,-1.0495,-0.52901,0.47556
-0.53705,0.90221,-7.9042,8.4141,-1.0626,-0.44868,0.43463
-0.60614,0.70608,-6.237,9.5125,-1.2141,-0.36988,0.4328
-0.68787,0.27459,-5.8252,8.9437,-0.20281,0.062003,-0.22816
-0.76825,0.098066,-5.5113,8.2768,-0.21838,0.023213,-0.26542
-0.8483,0.17652,-3.8442,9.3359,-0.30757,-0.0073304,-0.22083
-0.93423,-0.80415,-2.5105,9.8066,-0.4386,-0.043677,-0.20678
-0.99997,-0.82376,-3.0401,8.8456,-0.54978,-0.10171,-0.18723
-0.99997,0.41188,-4.8445,7.2961,-0.61148,-0.16921,-0.1741
-0.99997,0.76492,-4.2561,6.8647,-0.25534,-0.21808,-0.17593
-0.99997,0.17652,-3.2362,7.9434,-0.23091,-0.23335,-0.19578
-0.99997,0.11768,-3.2362,8.3749,-0.69883,-0.2135,-0.36591
-0.99997,0.11768,-3.5108,7.8649,-0.7703,-0.17868,-0.35461
-0.99997,0.92183,-3.7658,7.4727,-0.81245,-0.13806,-0.29383
-0.99997,1.3533,-3.6873,7.61,-0.77122,-0.09896,-0.30665
-0.99997,1.118,-3.6873,8.3749,-0.67837,-0.083078,-0.31551
-0.93982,0.66685,-3.7265,9.2575,-0.56261,-0.069944,-0.32406
-0.85092,0.039227,-4.3934,9.1594,-0.63988,-0.043677,-0.33567
-0.74213,0.27459,-4.9426,9.179,-0.66065,-0.023213,-0.35613
-0.60812,0.098066,-4.1972,9.0221,-0.219,-0.020159,-0.17318
-0.49734,0.098066,-3.4519,8.9437,-0.14508,-0.025045,-0.10873
-0.42181,-0.27459,-2.9028,8.8652,-0.073304,-0.041233,-0.33384
-0.37006,-0.33343,-3.0989,8.7868,0.012828,-0.075442,-0.30879
-0.34045,-0.19613,-3.2558,9.1202,0.10629,-0.12278,-0.27061
-0.32144,-0.33343,-3.3931,9.179,0.19334,-0.16982,-0.23518
-0.32498,0.27459,-3.8638,8.5514,-0.43371,-0.18937,-0.2135
-0.33804,0.80415,-3.8638,8.2572,-0.31398,-0.18662,-0.19884
-0.36554,1.118,-3.9423,8.0022,-0.21991,0.28894,-0.24007
-0.41901,1.0395,-4.0207,7.9238,-0.24587,0.22999,-0.23274
-0.48514,1.1964,-4.0403,7.9434,-0.23182,0.20495,-0.076053
-0.55847,1.3533,-3.55,8.1591,-0.21533,0.19028,-0.10812
-0.63925,1.4318,-3.3146,8.2768,-0.20036,0.1741,-0.14722
-0.72778,1.3337,-3.0597,8.3749,-0.19975,0.15638,-0.1854
-0.82639,1.2945,-3.55,8.1003,-0.2251,0.13225,-0.21472
-0.91922,1.3533,-2.9812,8.1591,-0.25381,0.099266,-0.23243
-0.99997,1.5495,-3.0597,7.61,0.1182,0.12278,0.015272
-0.99997,1.9613,-3.55,7.0608,0.07025,0.10965,0.018326
-0.99997,1.7456,-2.8832,7.61,0.034208,0.10049,-0.19517
-0.99997,1.5102,-3.2362,7.5315,-0.019242,0.075442,-0.14111
-0.99997,1.4318,-3.8442,7.7669,-0.085216,0.029932,-0.089186
-0.99997,1.4318,-3.6285,7.7865,-0.12767,-0.016493,-0.051313
-0.99997,1.3533,-3.5696,7.9042,-0.14355,-0.043677,-0.020464
-0.99997,1.2945,-3.295,7.6884,-0.15882,-0.045509,0.0033598
-0.99997,0.98067,-3.55,7.4923,-0.18418,-0.025962,-0.024129
-0.99997,0.74531,-3.9423,8.0022,-0.19761,-0.012217,-0.01741
-0.94901,0.8826,-4.4914,8.2572,-0.18265,-0.011606,0.018937
-0.80344,0.66685,-4.0796,8.1787,-0.15088,-0.0039706,0.020464
-0.61874,0.74531,-4.0207,8.0807,-0.11301,0.0064141,0.0082467
-0.40491,0.74531,-4.158,8.1787,-0.083994,0.021686,-0.013439
-0.20972,0.90221,-4.3345,8.4141,-0.071166,0.046426,-0.023213
-0.011749,0.92183,-4.0403,8.4141,-0.093462,0.060476,-0.026878
0.11359,0.72569,-3.55,8.3357,0.029322,0.011606,-0.039401
0.16888,0.90221,-3.3146,8.8064,0.062919,0.0079412,-0.09163
0.18375,0.98067,-3.0989,9.1006,0.14508,0.023518,0.14508
0.16647,0.74531,-2.7262,9.5713,0.20311,0.040623,0.1347
0.13193,0.98067,-2.4124,9.179,0.24221,0.058338,0.1124
0.08139,1.216,-1.9809,9.179,0.28833,0.079412,0.067806
0.0011597,0.96105,-1.4906,8.9437,0.34208,0.099571,0.032987
-0.08905,0.56879,-1.6671,9.0613,0.39981,0.1182,0.0045815
-0.16855,0.64724,-2.0986,8.7475,0.44196,0.12737,-0.24801
-0.22452,0.54917,-2.7459,8.6495,0.48472,0.13531,-0.23243
-0.233,0.66685,-2.9028,8.4729,0.51374,0.15088,-0.14722
-0.20004,0.80415,-3.0793,8.2376,0.48686,0.1631,-0.18815
-0.13684,0.80415,-3.1381,8.4141,0.43158,0.15363,-0.2135
-0.04361,1.0591,-3.2362,8.3945,0.38515,0.13103,-0.23182
0.045685,0.92183,-2.7459,8.6299,0.34056,0.12248,-0.24435
0.1358,0.8826,-2.8439,8.8652,0.27184,0.12706,-0.24923
0.22809,0.92183,-3.1381,8.6299,-0.66493,-0.28466,-0.094073
0.31616,1.2945,-3.6873,8.5318,-0.5959,-0.32376,-0.088575
0.41,1.4318,-3.197,8.4141,-0.44349,-0.28191,-0.062003
0.46664,1.0395,-2.8832,8.4926,-0.26084,-0.2251,-0.067195
0.5043,1.2749,-3.1381,8.5514,-0.062919,-0.15088,-0.075136
0.52707,1.3337,-3.2362,8.3945,0.086437,-0.039095,-0.1124
0.53372,1.4318,-3.197,8.316,-0.46792,0.089797,-0.15363
0.51486,1.5298,-3.0008,8.2768,-0.63408,0.16829,-0.14691
0.48291,1.4318,-3.1381,8.2572,0.13256,0.041539,-0.050702
0.48434,1.118,-3.0989,8.2572,0.23305,0.030849,-0.032376
0.5289,0.56879,-3.5304,8.8064,0.31062,0.0051924,-0.027794
0.57086,0.45111,-3.5304,8.6887,0.34025,-0.03543,-0.0012217
0.62753,0.11768,-3.0989,9.179,0.33903,-0.075136,-0.0042761
0.65985,0.039227,-3.0989,9.3359,0.32987,-0.10079,-0.022907
0.67545,0.27459,-3.5304,8.8848,0.33017,-0.1011,-0.041844
0.65775,0.49033,-3.1381,8.3749,0.35033,-0.062614,-0.054062
0.52713,0.66685,-2.432,8.1787,0.53878,-0.0067195,0.048564
0.3746,0.43149,-1.7456,8.3945,0.58002,0.050702,0.036957
0.14505,0.76492,-1.8044,8.5514,0.5623,0.099571,-0.013134
-0.1456,0.90221,-1.8829,8.5514,0.51557,0.12187,0.0082467
-0.46582,1.2945,-2.2948,8.5514,0.48625,0.12431,0.02474
-0.82748,1.6083,-2.7459,9.0221,0.50396,0.12523,0.03543
-0.99997,0.92183,-2.6086,10.199,0.39034,0.14294,0.040317
-0.99997,1.0395,-2.0986,10.454,0.46059,0.17837,0.042455
-0.99997,1.7456,-1.6279,9.9636,0.41966,0.21105,-0.082467
-0.99997,2.2751,-1.9613,8.2376,0.47342,0.197,-0.067501
-0.99997,2.5497,-2.3732,7.4727,0.41356,0.18937,-0.0036652
-0.99997,2.432,-2.8243,7.61,0.25137,0.2248,-0.043982
-0.99997,1.9809,-2.6282,8.0807,0.071777,0.17165,-0.033292
-0.99997,1.0787,-2.432,8.9437,-0.18937,0.060781,-0.013744
-0.96863,1.118,-2.7262,8.8652,0.53787,-0.047342,-0.072998
-0.72687,1.118,-3.2166,8.5514,0.47617,-0.16677,-0.1014
-0.4375,1.0787,-3.0793,8.218,0.27519,0.2135,0.21014
-0.14786,0.54917,-2.6086,8.218,0.32803,0.25809,0.23243
0.078308,0.019613,-1.9809,8.3749,0.28894,0.27122,-0.10507
0.21173,-0.52956,-2.3144,8.3749,0.20922,0.24374,-0.07025
0.28192,-0.21575,-3.1381,9.2183,0.13592,0.19731,-0.029627
0.28561,-0.17652,-3.7658,9.3359,0.098349,0.14264,0.016188
0.28162,-0.039227,-3.1381,9.179,0.11057,0.097433,0.068722
0.27322,-0.86299,-2.5105,10.375,0.18815,0.094073,0.14233
0.27423,-0.49033,-1.6867,10.474,0.16707,0.091935,-0.17746
0.27841,0.41188,-1.7456,8.7083,0.15791,0.08094,-0.19517
0.27417,0.45111,-2.1967,7.1589,0.23335,0.10996,-0.08491
0.27484,0.64724,-2.6086,7.2373,0.39156,0.18815,-0.13592
0.28488,0.90221,-2.5105,7.963,0.59223,0.31001,-0.17257
0.32043,0.49033,-2.3144,9.434,0.76633,0.45051,-0.19456
0.33954,0.098066,-2.2751,9.8066,0.832,0.56413,-0.19426
0.35724,0.27459,-2.5301,9.3555,0.76603,0.62064,-0.17837
0.36606,0.66685,-2.6282,8.5514,0.54367,0.60781,-0.12767
0.37778,0.74531,-2.1967,8.2572,0.47892,0.5623,-0.13317
0.37561,0.66685,-1.4906,8.2572,0.49541,0.52931,-0.21105
0.34103,0.56879,-1.8044,8.5514,0.52137,0.52229,-0.21258
0.34097,0.74531,-2.0986,9.0025,0.52076,0.51068,-0.18998
0.38135,1.118,-2.432,9.8066,0.52595,0.48075,-0.15608
0.44797,0.98067,-2.5105,9.6694,0.53145,0.44074,-0.13775
0.54053,1.0591,-2.4517,9.1202,0.49908,0.41142,-0.12981
0.61105,0.90221,-2.2751,8.3945,0.43463,0.3934,-0.16707
0.69669,0.41188,-1.8829,9.1594,0.39004,0.37202,-0.14203
0.78839,0.49033,-2.2751,9.434,0.36285,0.35797,-0.14264
0.91794,0.74531,-1.9809,8.6887,0.31826,0.32467,-0.15608
1,1.0395,-1.2749,8.0022,0.27122,0.25748,-0.15302
1,0.60801,-0.74531,8.7083,0.25687,0.18876,-0.15088
1,0.13729,-1.3729,9.7478,0.28436,0.15333,-0.16371
0.9946,0.23536,-1.824,8.8456,0.32254,0.16677,-0.17501
0.91388,-0.27459,-2.0594,9.3359,-0.26328,0.012828,-0.058338
0.83609,-0.5884,-1.5102,10.375,-0.099571,0.061087,-0.086743
0.78598,-0.21575,-0.84337,10.689,0.019242,0.10965,0.027184
0.72818,-0.05884,-1.118,9.6694,0.10354,0.1292,0.018021
0.68307,-0.33343,-1.824,8.5514,0.1463,0.1127,0.03543
0.64615,-0.13729,-2.0594,8.5318,0.20036,0.083078,0.046426
0.68283,0.27459,-1.9809,8.7868,0.31093,0.10507,0.01405
0.74655,0.45111,-1.6279,8.1787,0.45907,0.21166,-0.023518
0.81946,0.098066,-1.1572,9.3555,0.71166,0.3204,-0.25901
0.82922,0.17652,-0.72569,9.3163,0.66645,0.36866,-0.18906
0.71552,0.27459,-0.62763,8.7083,0.53359,0.36346,-0.14661
0.52164,0.13729,-1.5102,8.1787,0.28924,0.34392,-0.24312
0.30835,1.0199,-2.1378,8.0022,-0.019853,0.3259,-0.28191
0.10803,1.118,-2.2751,8.8064,-0.32254,0.26542,-0.31001
-0.088959,1.0199,-2.1575,9.6694,0.60445,0.17135,-0.32132
-0.25479,0.8826,-1.8044,9.5713,0.68264,0.083689,-0.30299
-0.40027,0.80415,-2.5105,9.2575,-0.7028,0.019548,0.21197
-0.5351,0.74531,-2.7655,8.7083,-0.64477,-0.026573,0.2865
-0.68481,0.43149,-2.6086,9.179,-0.58032,-0.055894,-0.11087
-0.86218,0.11768,-1.9809,9.179,-0.47525,-0.034514,-0.034819
-0.99057,0.41188,-0.54917,9.2575,-0.36866,0.00061087,0.039095
-0.99997,0.5884,0.23536,9.2771,-0.38698,0.0061087,0.10812
-0.99997,0.56879,0.23536,8.8848,-0.56383,0.046731,0.14813
-0.99997,0.35304,-0.56879,8.6299,-0.69119,0.08094,0.1689
-0.99997,0.49033,-1.3337,8.2572,-1.3604,-0.055283,0.22571
-0.99997,0.41188,-2.7459,9.0417,-1.2868,-0.40073,0.25015
-0.99997,-0.23536,-1.7848,10.885,-0.9447,-0.70799,0.29627
-0.99997,-2.1575,-2.1967,11.67,-0.50244,-0.82558,0.19823
-0.99997,-0.078453,-2.9028,9.9636,-0.18754,-0.77,0.081551
-0.99997,0.66685,-2.2948,9.0025,-0.1631,-0.63011,0.032376
-0.99997,0.45111,-1.1572,8.8064,-0.65454,-0.49114,0.074526
-0.99997,0.078453,-0.56879,8.1591,-1.0953,-0.39828,0.16005
-0.99997,-0.13729,-1.5298,7.7865,-0.17104,0.10263,0.15882
-0.98105,0.25497,-3.1381,8.2376,-0.13256,0.10415,0.14294
-0.67209,0.76492,-3.3146,8.5514,-0.11393,0.089492,0.051924
-0.26868,0.66685,-3.2166,9.0417,-0.098655,0.073304,0.082467
0.125,0.66685,-3.0793,9.0613,-0.086437,0.062308,0.094073
0.47723,0.5884,-3.4519,8.7083,-0.080023,0.054978,0.11148
0.78915,1.0199,-4.0011,8.3749,-0.083078,0.041844,0.1408
0.98004,1.2356,-3.8638,8.1199,-0.098044,0.018021,0.15944
1,1.3533,-3.0793,7.8061,-0.12004,-0.0067195,0.057116
1,1.0199,-2.5105,7.8649,-0.14447,-0.025045,0.043371
1,0.90221,-2.5301,8.2572,-0.16066,-0.044593,0.12798
0.99774,1.0395,-2.9028,8.4729,-0.16127,-0.055894,0.11942
0.88971,1.0199,-2.9028,8.5514,-0.13714,-0.05284,0.10446
0.75882,1.1964,-2.6086,8.5514,-0.096822,-0.036652,0.085521
0.61737,1.0199,-1.9809,8.4337,-0.070555,-0.014661,0.065973
0.45273,0.70608,-1.8829,8.4337,-0.065973,-0.010079,0.057727
0.29633,0.74531,-1.9809,8.0807,-0.07025,-0.01741,-0.044593
0.17285,0.66685,-2.1967,8.6299,-0.052229,-0.025351,-0.028405
0.10571,0.80415,-2.5693,8.7279,-0.0027489,-0.041539,0.024435
0.095856,0.66685,-2.687,8.8652,0.057116,-0.046426,0.012217
0.1268,0.74531,-2.9028,9.0417,0.11301,-0.033292,-0.0088575
0.18884,0.82376,-2.7459,9.0025,0.14844,-0.012523,-0.034514
0.25845,1.0591,-2.7459,9.0417,0.15363,0.0051924,-0.045815
0.31808,1.118,-2.9028,8.8652,0.13958,0.025656,-0.047037
0.3768,0.96105,-2.6674,9.1202,0.11759,0.056505,-0.0045815
0.43842,1.1376,-2.6086,9.1202,0.16249,0.080023,0.016799
0.48132,1.0591,-2.9028,9.2575,0.19181,0.11423,-0.087965
0.51035,1.0591,-3.0793,8.9437,0.16066,0.14355,-0.077885
0.52634,1.118,-3.0793,8.7083,0.057727,0.14997,-0.065668
0.50461,1.2749,-2.7655,8.5906,-0.076664,0.12248,-0.047647
0.46033,0.90221,-2.3732,8.6887,-0.1912,0.092852,-0.023824
0.37357,0.66685,-1.7456,9.0613,-0.24007,0.092241,-0.012217
0.25995,0.8826,-1.216,9.3752,0.085216,0.074526,-0.075136
0.14258,0.43149,-1.1768,9.3555,0.023824,0.078496,-0.071471
0.015228,0.49033,-1.7848,9.179,-0.078191,0.081551,-0.082161
-0.10123,0.5884,-2.3144,9.0417,-0.18815,0.067195,-0.081856
-0.20956,0.90221,-2.5105,8.8064,-0.23732,0.034819,-0.08491
-0.28528,0.70608,-2.9028,8.7279,-0.1854,-0.017104,-0.080329
-0.34781,0.96105,-3.4519,8.3749,0.067806,-0.064446,-0.072998
-0.3717,1.0787,-3.4716,8.2572,0.096822,-0.073609,-0.071777
-0.37418,0.80415,-2.8243,8.5514,0.043371,-0.042761,-0.11209
-0.36423,0.80415,-2.8439,8.7083,0.00030543,0.0042761,-0.12737
-0.34402,1.0199,-3.0793,8.1003,-0.076664,0.026878,-0.057116
-0.31015,0.76492,-3.5108,8.1591,-0.15149,0.0094684,-0.048564
-0.25616,0.86299,-3.2558,8.1003,-0.19975,-0.034514,-0.046731
-0.21521,0.76492,-2.9224,8.1787,-0.20953,-0.076969,-0.051924
-0.18021,0.70608,-2.9224,8.2376,-0.075747,-0.10751,-0.067806
-0.13806,0.90221,-3.1381,7.9042,0.018326,-0.10996,-0.088881
-0.079437,1.0591,-3.2558,8.0611,-0.14905,-0.066584,-0.022297
-0.024689,0.98067,-3.3146,8.4926,-0.071471,-0.026267,-0.052534
0.026398,0.8826,-3.2362,8.8456,-0.0009163,0.023518,0.04612
0.070892,0.98067,-3.2362,8.9633,0.016799,0.05284,0.040012
0.12674,1.0395,-2.8243,9.0221,-0.021686,0.054672,0.037874
0.17102,1.118,-2.2948,9.0221,-0.094073,0.03543,0.036041
0.19193,0.86299,-2.2163,9.1202,-0.16799,0.0073304,0.029016
0.21448,0.92183,-3.0401,8.8848,-0.208,-0.00030543,0.0094684
0.2189,1.0787,-3.3146,8.6495,-0.20861,0.024129,-0.082161
0.25638,1.0395,-3.0597,8.9044,-0.18204,0.060781,-0.086437
0.27194,0.76492,-2.8439,8.8652,-0.14111,0.091019,-0.067806
0.30173,0.96105,-3.0793,8.7279,-0.10324,0.11118,-0.07422
0.31451,1.3533,-3.5304,8.3945,-0.080329,0.1182,-0.072388
0.2876,1.0199,-3.1381,8.3945,-0.065668,0.11026,-0.072388
0.23083,0.82376,-2.942,8.5318,-0.036652,0.092546,-0.073915
0.14627,1.0199,-2.3144,8.5514,0.015272,0.078191,-0.075747
0.046295,0.96105,-2.5693,8.2376,0.015272,0.26176,0.029016
-0.068939,1.0199,-2.9028,7.7865,-0.17318,0.21289,0.0045815
-0.15564,1.0199,-2.432,7.6296,-0.23549,0.15333,-0.071471
-0.21188,0.64724,-2.5693,8.0218,-0.25779,0.135,-0.06017
-0.24338,0.86299,-3.0793,8.7083,-0.29444,0.10354,-0.024129
-0.24158,0.90221,-3.3931,8.6495,-0.30177,0.025351,0.041844
-0.21573,0.80415,-2.687,8.316,-0.26114,-0.053451,0.089797
-0.20923,1.0395,-2.7459,8.5514,-0.15058,-0.095906,0.07758
-0.19995,0.74531,-3.3539,9.8066,0.0067195,-0.075136,0.19303
-0.237,0.98067,-3.2166,9.8066,0.12095,-0.01741,0.16127
-0.36041,1.7456,-3.0793,8.316,0.13683,0.021075,0.039401
-0.52472,0.41188,-2.9812,10.415,0.04612,0.0030543,0.098349
-0.67709,0.66685,-2.8832,11.827,-0.075442,-0.045815,0.15455
-0.8183,1.7456,-2.0006,9.0417,-0.14966,-0.15333,0.19273
-0.94379,1.6671,-1.471,7.5315,-0.014661,-0.2587,0.21594
-0.99997,1.2945,-2.7851,7.2765,0.19609,-0.30329,0.20556
-0.99997,1.7064,-3.7265,7.0216,-0.4945,-0.32956,-0.31887
-0.93994,1.5298,-3.5696,7.8649,-0.60506,-0.33384,-0.32406
-0.77008,1.1768,-3.0597,8.4926,-0.63316,-0.33262,-0.18754
-0.53311,1.5495,-3.0008,8.6299,-0.53634,-0.26512,-0.22724
-0.29648,1.6867,-3.3146,8.4729,-0.30421,-0.14355,-0.29444
-0.099304,1.1768,-2.589,8.7279,-0.041233,-0.0009163,-0.3149
0.020447,1.118,-1.5298,8.1787,0.14752,0.11759,-0.31857
-0.0052185,1.1376,-1.6279,7.7473,0.24465,0.17623,-0.3262
-0.10745,0.74531,-2.0986,8.0022,0.25504,0.18876,-0.14691
-0.23441,0.41188,-2.1378,9.1202,0.19853,0.18021,-0.095295
-0.34564,0.66685,-3.197,9.3555,0.16005,0.16463,-0.34606
-0.41125,1.4906,-3.6285,9.1594,0.19242,0.16218,-0.35583
-0.4408,1.4514,-3.0793,9.5713,0.28253,0.17746,-0.3488
-0.42935,1.3925,-2.5105,9.8263,0.3766,0.19731,-0.31948
-0.41483,0.96105,-3.4127,9.8066,0.38607,0.23152,-0.26725
-0.42496,0.098066,-4.158,9.6694,0.25901,0.26237,-0.20739
-0.45117,0.98067,-2.6086,10.434,0.012217,-0.060781,0.065973
-0.55121,0.76492,-1.0591,9.9832,0.031765,-0.054672,0.09499
-0.69196,1.2945,-1.471,8.2572,-0.035736,-0.031154,0.0054978
-0.82971,1.9221,-1.6671,7.1785,-0.12187,-0.0018326,-0.0012217
-0.9689,1.3533,-1.9613,6.9235,-0.14447,0.0088575,0.020464
-0.99997,0.90221,-2.8832,6.9235,-0.10934,-0.010079,0.030849
-0.99997,1.0787,-2.7459,7.3158,-0.13347,-0.022297,0.030543
-0.99997,0.60801,-3.0401,7.9434,-0.058338,-0.018326,0.037874
-0.99997,0.80415,-2.6282,8.218,0.30452,0.68936,-0.10293
-0.99997,1.0199,-2.3732,8.6495,0.3091,0.67012,-0.10843
-0.99997,1.0591,-2.432,8.218,0.18692,0.51924,0.23946
-0.99997,1.2945,-2.432,7.7473,-0.010996,0.25229,0.31612
-0.99997,1.3925,-2.2555,7.8649,-0.15974,-0.018631,0.28253
-0.99997,0.74531,-1.8829,9.0025,-0.20678,-0.18295,0.17165
-0.99997,-0.70608,-3.6677,11.513,-0.21686,-0.25473,0.058032
-0.99997,-0.5884,-5.1779,11.729,-0.21319,-0.27978,-0.03543
-0.93652,1.0395,-3.7265,10.375,-0.1463,-0.26695,0.072082
-0.8548,1.9221,-1.9809,7.9238,-0.068417,-0.22144,0.11179
-0.78506,1.3533,-1.5691,6.9823,0.0281,-0.14203,-0.080634
-0.74127,0.72569,-1.471,7.1589,0.080329,-0.054978,-0.048258
-0.69641,0.50995,-1.3533,8.4141,-0.00030543,0.025656,-0.009163
-0.63867,0.80415,-1.726,8.7279,-0.093157,0.087354,0.024129
-0.54462,0.39227,-2.6086,9.1986,-0.20831,0.096211,0.044288
-0.40103,0.45111,-3.4716,9.1594,-0.1909,0.089492,0.059254
-0.2312,0.60801,-3.0989,8.8652,-0.16463,0.091019,0.17074
-0.030762,0.11768,-3.4127,8.7868,-0.17318,0.091019,0.081856
0.18619,0.90221,-3.8638,9.0613,-0.18723,0.068111,0.14508
0.40012,1.4318,-3.3146,9.1006,-0.24068,0.04612,0.16524
0.59088,1.3337,-2.6086,8.6887,-0.26267,0.06017,0.16677
0.71207,1.3533,-2.2751,8.2376,-0.20739,0.062919,0.1631
0.78952,1.3337,-2.2163,8.9437,-0.12523,0.024435,0.17837
0.82703,1.216,-2.4909,8.9044,-0.1405,-0.03207,0.197
0.84656,1.3729,-2.3732,8.8652,0.0015272,0.12737,-0.025656
0.84393,0.98067,-3.2166,8.8848,-0.0094684,0.08827,-0.051007
0.79364,1.3925,-3.6285,8.4141,0.012217,0.054367,-0.032376
0.73285,1.0395,-3.3735,8.4729,0.051924,0.03543,-0.020769
0.67496,0.66685,-2.8439,9.1006,0.072082,0.02138,-0.0094684
0.60019,1.0199,-2.4517,8.6299,0.054672,-0.00030543,0.0039706
0.5145,0.90221,-2.7655,8.7083,0.016188,-0.033292,0.0027489
0.43594,0.98067,-2.7851,8.7083,-0.020159,-0.074526,-0.009163
0.3689,1.0395,-2.9224,8.7475,-0.047037,-0.1014,-0.063835
0.3118,1.1768,-2.6086,8.316,-0.03543,-0.095906,-0.058643
0.26062,1.118,-2.432,8.4926,0.014355,-0.065668,-0.076053
0.19516,0.98067,-2.2163,8.5514,0.081551,-0.03146,-0.076664
0.16833,0.80415,-2.7459,9.0417,0.14416,0,-0.072082
0.16763,0.60801,-3.2362,9.2183,0.17471,0.025656,-0.07086
0.19821,0.66685,-3.1381,9.3359,0.1631,0.039706,-0.069333
0.23419,0.60801,-2.7851,9.179,0.12309,0.050396,-0.06689
0.23489,0.80415,-2.7459,8.7475,0.047342,0.065668,0.15669
0.25293,0.56879,-2.7459,8.2376,0.0045815,0.097738,0.16829
0.24121,0.66685,-2.687,8.316,-0.032681,0.13011,-0.04948
0.23242,0.76492,-2.2751,8.4926,-0.055589,0.14539,-0.025962
0.25433,0.80415,-2.1378,8.316,-0.06353,0.13836,0.013744
0.29773,0.74531,-1.9809,8.4141,-0.050396,0.11087,0.057421
0.36316,0.74531,-2.0986,8.9437,-0.019242,0.07758,0.094684
0.41522,0.5884,-2.3732,9.434,0.019853,0.099571,0.12584
0.39551,0.35304,-2.5105,7.7865,-0.028711,0.20953,0.016493
0.29703,-0.52956,-1.9809,9.0417,-0.23579,0.17685,0.081856
0.20639,-0.35304,-2.0594,9.2575,-0.44807,0.016188,0.16738
0.13879,0.50995,-3.0008,8.0022,-0.61117,-0.11606,0.094684
0.13113,1.118,-3.4127,9.3359,-0.57269,-0.21197,0.032987
0.19632,1.6867,-3.2362,8.8064,-0.34453,-0.20769,0.045509
0.27255,1.6475,-2.432,7.7865,-0.13134,-0.11454,0.027184
0.27921,-0.49033,-3.0008,10.925,-0.0064141,0.01069,0.0067195
0.22437,-0.84337,-3.2362,11.552,0.03879,0.14997,0.052534
0.17773,0.76492,-1.9417,9.179,0.03879,0.13958,0.07422
0.12518,0.41188,-2.5105,6.8254,0.028405,0.098044,0.12034
0.10699,0.66685,-2.7851,6.6489,0.0085521,0.043371,0.12523
0.14545,0.74531,-2.2948,7.2373,-0.0048869,-0.013439,0.10018
0.23923,0.33343,-2.0594,8.7083,0.014966,-0.049175,0.08094
0.38904,0.17652,-2.7262,8.9437,0.066279,-0.039401,0.065057
0.55487,0.90221,-3.6677,8.316,0.13408,0.013744,0.048869
0.74823,1.6867,-4.2561,7.963,0.32162,0.067806,0.002138
0.92889,2.0594,-3.6285,7.6884,0.50366,0.087965,-0.12706
1,1.8633,-3.1381,7.9434,0.65027,0.097433,0.093768
1,1.3925,-3.6285,8.1591,0.33109,0.17562,0.1182
1,1.6867,-4.2561,8.218,-0.31398,0.40348,0.1405
1,1.8044,-3.9227,8.4141,-0.61667,0.42455,0.15272
1,1.5495,-3.3931,8.0807,0.19853,-0.015272,0.20067
1,1.216,-3.0793,8.2572,0.23518,-0.39615,0.16341
1,0.80415,-3.6873,8.8064,0.061087,-0.46029,-0.3485
1,0.98067,-4.0011,8.7475,0.090408,-0.33995,-0.44196
0.94598,1.2356,-4.2561,8.7083,-0.17257,-0.16188,-0.20708
0.86285,1.3925,-3.8442,8.5514,-0.69975,0.012828,-0.2642
0.73615,1.5495,-3.5696,7.8649,-1.3885,0.082772,-0.24526
0.47089,2.1575,-2.942,6.8254,-2.1454,0.015577,-0.19823
0.10986,-1.1768,-2.3536,11.846,-0.4664,-0.14539,-0.22113
-0.34744,-1.4514,-4.6287,9.6497,-0.17043,-0.33537,-0.27978
-0.67578,1.118,-4.8249,7.6296,-2.1393,-0.51801,-0.53634
-0.78534,1.2945,-3.0008,7.1392,-3.1053,-0.71502,-0.70585
-0.75336,-0.039227,-1.5102,9.1006,-3.7916,-0.89706,-0.90683
-0.66534,-0.21575,-1.3729,11.199,-4.2272,-0.97861,-1.0907
-0.56595,-0.11768,-1.9809,12.337,-4.3167,-0.9444,-1.1668
-0.49277,0.66685,-3.8442,11.317,-4.1701,-0.85277,-1.0183
-0.42371,2.2948,-5.7271,9.5713,-3.7614,-0.71257,-0.75656
-0.37454,2.9028,-6.2174,7.8061,-3.0329,-0.53298,-0.62094
-0.33594,2.4517,-7.7865,5.7075,0.30207,-0.19273,0.48839
-0.34283,2.9224,-7.2373,4.1384,0.26786,-0.28039,0.41447
-0.40451,2.8635,-5.2368,3.5108,0.23091,-0.31826,0.53512
-0.52704,2.8047,-5.0798,2.6674,0.15821,-0.32956,0.55558
-0.63525,2.1575,-5.4917,2.6674,0.044593,-0.33139,0.57696
-0.69254,1.8044,-5.1975,3.2362,-0.072388,-0.33078,0.5901
-0.72531,2.1378,-4.3934,3.6873,-0.13042,-0.33842,0.58032
-0.74017,2.079,-4.8053,3.9815,-0.097128,-0.35858,0.54428
-0.73029,1.1768,-5.021,5.1779,0.025045,-0.36011,0.1576
-0.69012,1.0395,-4.5503,6.3743,0.21747,-0.29352,0.1066
-0.62006,0.80415,-4.668,6.6097,0.40287,-0.16768,0.32009
-0.5321,1.0199,-4.9229,6.3351,0.50121,-0.010385,0.25779
-0.41864,1.4318,-4.6287,6.6097,0.51618,0.1179,0.24801
-0.26782,1.6671,-3.295,7.9434,0.46976,0.18662,0.2306
-0.15192,1.118,-2.687,9.3359,0.38362,0.21228,0.20189
-0.077179,0.66685,-2.5693,9.8066,0.28497,0.18906,0.18448
-0.04007,0.49033,-2.6086,9.2183,0.19334,0.13867,-0.021075
-0.02948,0.49033,-2.4909,10.003,0.13744,0.094073,-0.06353
-0.011353,0.50995,-3.0793,9.9636,0.13806,0.061392,0.054672
0.018585,0.70608,-3.2166,9.9439,0.19487,0.036957,0.027184
0.058197,0.90221,-3.295,9.6694,0.28802,0.04612,0.0048869
0.11667,0.66685,-3.0401,9.3752,0.36011,0.10751,-0.031765
0.18417,0.72569,-3.5108,8.8652,0.36224,0.16921,-0.051007
0.30313,1.4906,-3.6873,8.6495,0.31276,0.1799,-0.030238
0.44373,1.4318,-3.4519,8.8064,1.5864,0.55039,0.4667
0.58414,1.1376,-2.7459,8.8064,1.4639,0.48472,0.50702
0.68353,0.8826,-2.6086,9.434,1.263,0.37049,0.20983
0.71799,0.49033,-2.7851,9.4732,1.018,0.27214,0.2474
0.70966,0.80415,-3.0793,9.0417,0.79168,0.16493,0.26267
0.67126,1.2945,-3.4127,8.218,0.63591,0.058032,0.30849
0.60147,0.98067,-2.8439,8.7083,0.55253,0.007025,0.37538
0.4852,1.0395,-2.8243,8.7083,0.45723,-0.071777,0.42364
0.36868,1.2356,-2.9028,8.6299,-0.32987,-0.14936,0.059559
0.25986,1.5495,-2.6282,8.2768,-0.36835,-0.18021,0.036957
0.19608,1.2749,-2.3732,8.6495,-0.35522,-0.21441,0.10507
0.14761,1.3925,-2.589,8.7083,-0.26176,-0.25168,0.11759
0.14227,1.6083,-3.0008,8.8652,-0.10201,-0.27336,0.12492
0.18256,1.6475,-2.9028,9.0417,0.067195,-0.26298,0.11545
0.24176,1.1964,-2.5105,9.3752,-0.208,-0.2193,0.097738
0.30884,0.90221,-2.432,9.0417,-0.27061,-0.12401,0.080634
0.38956,1.1964,-2.5105,8.3749,0.33139,0.021991,-0.17104
0.38937,1.118,-2.0594,7.9434,0.33231,0.17074,-0.14844
0.40363,0.56879,-1.471,8.5514,0.39279,0.24648,0.021991
0.37027,0.19613,-1.6671,9.179,0.56902,0.24618,0.0048869
0.25024,-0.039227,-2.1967,9.2771,0.76816,0.25045,-0.032376
0.0038147,-0.21575,-2.3144,6.9823,0.89095,0.2981,-0.089492
-0.32266,-1.7652,-1.8829,9.3163,0.20281,0.35461,-0.13775
-0.63239,-2.0986,-2.432,11.219,0.29047,0.39309,-0.16493
-0.89871,-0.68647,-2.5301,10.199,-0.027794,0.043677,-0.031154
-0.99997,-0.21575,-2.432,8.1199,-0.048564,0.066279,-0.049175
-0.99997,0.41188,-2.0986,7.8649,0.010385,0.14416,0.18876
-0.99997,0.41188,-2.2948,7.7473,0.19609,0.32926,0.22297
-0.99997,0.56879,-2.6086,8.5514,0.16127,0.26084,0.208
-0.88602,0.66685,-2.7655,9.5125,-0.030849,0.026573,0.20067
-0.65692,0.8826,-2.589,9.4928,-0.20433,-0.18112,0.076053
-0.45911,1.0395,-2.8832,9.179,-0.41294,-0.33048,-0.011606
-0.32764,0.98067,-3.3146,8.7083,-0.52809,-0.38973,0.07025
-0.24258,1.5298,-3.0793,7.6296,-0.46151,-0.37507,0.091019
-0.19351,1.4318,-1.8437,6.9235,-0.37874,-0.32529,-0.027794
-0.19186,1.216,-2.3536,7.6296,-0.2303,-0.28558,-0.0094684
-0.19757,1.0395,-2.7655,9.3752,-0.13744,-0.25351,-0.0085521
-0.20065,1.4906,-2.8832,9.8459,-0.15241,-0.18326,-0.010385
-0.21045,2.1182,-1.6475,9.3359,-0.56383,-0.12889,0.0009163
-0.2363,1.6083,-0.94144,8.8652,-0.59132,-0.12248,0.039401
-0.31815,1.118,-0.8826,9.1006,-0.17318,-0.16677,0.083994
-0.44949,0.74531,-2.1378,10.297,-0.12401,-0.16554,0.076969
-0.54465,1.3533,-2.687,10.219,-0.078191,-0.15791,0.042455
-0.62943,0.90221,-2.3732,10.454,-0.059559,-0.15058,0.054062
-0.67191,1.4514,-1.9417,8.9044,-0.074831,-0.14844,0.069639
-0.70438,1.1376,-0.72569,8.3749,-0.11026,-0.14905,0.081245
-0.75131,0.35304,-1.1964,9.1202,-0.14722,-0.13561,0.094379
-0.79715,1.0591,-2.1967,8.8064,-0.1576,-0.10476,0.094379
-0.78842,0.74531,-2.2163,8.7279,-0.18754,-0.098349,0.067806
-0.74042,0.49033,-1.5691,8.7083,-0.24221,-0.10232,0.08491
-0.69943,0.35304,-1.4906,8.7083,-0.27947,-0.087048,-0.0082467
-0.63394,0.49033,-2.0594,8.7083,-0.27184,-0.065057,-0.018937
-0.55719,0.74531,-2.2163,8.7083,-0.21686,-0.0281,-0.019548
-0.48203,0.80415,-2.0986,8.8064,-0.17471,0.018326,0.0051924
-0.41611,0.60801,-1.5102,8.6887,-0.17562,0.047953,0.032681
-0.37134,0.45111,-1.1768,8.7475,-0.21716,0.055894,0.053451
-0.35287,0.54917,-1.5691,8.6299,-0.28466,0.045204,0.069944
-0.33151,0.60801,-2.6086,8.5514,-0.36408,0.022602,0.065668
-0.29626,0.54917,-2.942,9.0221,-0.45876,-0.0085521,0.1011
-0.24664,0.56879,-2.5105,9.7478,-0.48411,-0.040623,0.10965
-0.20004,0.27459,-1.7848,9.6301,-0.38698,-0.02474,0.10354
-0.15683,0.56879,-1.8829,9.2771,-0.2138,0.034208,0.079412
-0.12723,1.1964,-1.7456,9.1202,-0.051313,0.08491,0.061697
-0.11856,0.74531,-1.6867,9.5713,0.026267,0.087965,0.063835
-0.11044,0.66685,-1.9809,9.3555,-0.022602,0.047342,0.034819
-0.087799,0.86299,-1.9809,9.179,-0.043371,-0.018631,0.041844
-0.052185,0.56879,-1.9613,9.179,-0.022907,-0.074526,0.060476
-0.013855,0.82376,-2.0594,8.6299,0.0045815,-0.081245,0.051313
0.022461,0.90221,-2.2555,8.218,-0.0018326,-0.052534,0.035736
0.050842,0.80415,-2.0986,8.4337,-0.073304,-0.043677,0.033292
0.068512,0.80415,-2.3144,9.0417,-0.15882,-0.08094,0.043677
0.09317,0.98067,-2.6086,8.8064,-0.19334,-0.13806,0.037263
0.12506,1.1376,-2.5693,8.8456,0.074831,0.12706,0.021075
0.1756,1.0787,-2.2751,8.4926,-0.012523,0.13928,0.036652
0.2193,0.74531,-1.9613,8.7083,-0.10415,0.11454,0.062003
0.24371,0.74531,-2.1967,9.179,-0.14111,0.079718,0.055894
0.26855,0.66685,-2.1378,9.179,-0.13011,0.059559,0.025656
0.27914,0.80415,-2.2948,9.0417,-0.12981,0.073915,-0.0048869
0.28986,1.2749,-2.432,8.7083,0.047037,0.13011,-0.019242
0.2966,1.2945,-2.4124,8.4141,0.10568,0.15974,-0.007025
0.28415,1.1964,-2.6282,8.7083,-0.39706,-0.21747,-0.054367
0.28125,0.96105,-2.8832,9.6497,-0.34728,-0.1854,-0.062919
0.28931,1.0395,-2.687,10.062,-0.23671,-0.15302,-0.044899
0.25787,0.96105,-1.9613,9.7478,-0.11881,-0.091324,-0.045204
0.18927,0.80415,-1.7456,9.3359,-0.0036652,-0.01405,-0.062308
0.089996,0.90221,-1.8044,8.8652,0.060476,0.020159,-0.062308
-0.020355,1.0591,-1.9809,8.2768,0.064446,0.016799,-0.022907
-0.10532,1.2945,-2.5693,8.5514,0.027184,-0.002138,-0.020464
-0.16956,1.5495,-2.5105,8.4141,-0.15455,-0.023518,0.035125
-0.1788,1.118,-2.3732,8.8652,-0.1518,-0.055589,0.047953
-0.15067,1.1964,-2.3732,9.1202,-0.12187,-0.095295,-0.047647
-0.09848,1.0199,-2.3732,9.1202,-0.1066,-0.11576,-0.041233
-0.04892,1.216,-2.2751,8.9437,-0.10324,-0.11332,-0.040623
-0.015442,1.1964,-2.1182,8.7868,-0.10385,-0.1066,-0.017715
-0.027588,1.3729,-1.9613,8.5514,-0.038179,-0.096517,0.013439
-0.047302,1.4318,-1.7848,8.1199,-0.10996,-0.078802,0.026267
-0.084839,1.2356,-1.824,7.9238,-0.21716,-0.047342,0.05681
-0.1167,1.3533,-2.2948,8.0807,-0.29505,-0.0051924,0.059559
-0.11655,0.92183,-3.0597,8.4337,-0.32987,0.019242,0.060476
-0.051117,0.76492,-3.3539,8.5514,-0.30268,0.02138,0.062308
0.034119,0.50995,-3.0008,9.1202,-0.21166,0.02138,0.054367
0.12747,0.60801,-2.9028,8.8652,-0.07422,0.033292,0.047342
0.20239,0.8826,-2.7459,8.1787,-0.11454,0.058948,0.046731
0.24533,0.98067,-2.5105,7.8649,-0.15119,0.091935,0.050702
0.25876,0.45111,-2.4124,8.3945,-0.15088,0.066584,0.083994
0.27567,0.41188,-3.0793,9.179,-0.12156,0.094684,0.053756
0.31885,0.11768,-2.9028,9.6497,-0.051618,0.15577,-0.010079
0.35999,0.66685,-2.9224,8.5514,0.0058032,0.21838,-0.0009163
0.45709,0.80415,-3.3931,8.5906,0.016188,0.2642,0.029322
0.60944,0.098066,-3.3931,10.062,-0.013439,0.24679,0.068417
0.75583,0.56879,-2.1967,10.199,-0.073915,0.16127,0.10751
0.83957,0.96105,-1.7848,8.6299,-0.13164,0.075442,0.11515
0.80612,1.118,-2.2163,7.1785,-0.17287,0.040623,0.089186
0.66632,1.5298,-2.9224,7.3158,-0.13164,0.03207,0.083994
0.49933,1.6475,-3.5304,8.0807,-0.011301,0.02138,0.051924
0.35867,1.4318,-3.0793,8.4926,0.15791,0.034819,0.069028
0.26843,1.2356,-3.3539,8.5318,0.35186,0.092546,0.083994
0.26089,1.7456,-3.3931,8.0022,0.43066,0.20678,0.084605
0.32062,1.7456,-3.197,7.7865,0.23854,0.35827,0.062308
0.42105,1.1964,-2.5301,8.316,-0.066279,0.34697,0.054367
0.50009,0.27459,-3.197,9.0025,-0.2416,0.13561,0.068417
0.55029,0.54917,-3.5304,8.8848,-0.24618,-0.044899,0.069028
0.57895,0.82376,-4.0796,8.7475,-0.1741,-0.11332,0.03879
0.53726,0.72569,-3.8246,8.316,-0.087048,-0.091935,-0.0073304
0.39053,0.70608,-3.2558,7.4531,-0.0009163,-0.04215,-0.034819
0.17941,-0.23536,-1.4906,9.179,0.079107,0.012217,-0.0042761
-0.040344,-0.45111,-2.7459,9.0613,0.12278,0.06689,0.03207
-0.1781,1.0395,-3.5304,8.6495,0.087965,0.098655,0.049786
-0.22522,1.118,-3.1381,8.0807,-0.016799,0.10293,-0.039401
-0.20959,0.90221,-2.7851,8.2768,-0.12981,0.07025,-0.035736
-0.1373,1.0199,-2.942,8.7868,-0.18631,0.0085521,0.052534
-0.011719,0.80415,-3.5304,9.5909,-0.12278,-0.046731,0.042455
0.1308,0.8826,-3.8638,9.3752,0.051313,-0.065668,0.036346
0.3335,1.2945,-3.8638,8.8652,0.2306,-0.04612,0.023824
0.54449,1.8437,-3.2166,7.7669,0.30085,0.0054978,-0.011606
0.69437,1.4318,-2.9028,7.2961,0.24679,0.076358,-0.043982
0.74786,0.49033,-2.9224,9.0025,0.20403,0.26512,-0.11209
0.74081,0.41188,-2.9224,10.199,0.10049,0.36469,-0.072998
0.68735,0.56879,-3.7069,11.062,-0.047342,0.39706,-0.029016
0.50189,1.4318,-3.8638,8.8652,-0.17226,0.35888,-0.037568
0.17468,2.687,-2.432,6.2959,-0.1857,0.26359,-0.03146
-0.2699,-0.54917,-0.70608,10.375,-0.05681,0.14783,-0.025656
-0.66931,-0.84337,-4.9426,8.0022,0.3769,0.076358,-0.06353
-0.8074,0.80415,-4.7072,7.3158,0.27917,0.083078,-0.10965
-0.71991,1.0395,-2.5693,7.4531,0.37507,0.13042,0.027489
-0.52466,0.45111,-1.9417,7.4531,0.27978,0.17074,0.025351
-0.272,0.45111,-3.4127,7.8649,0.10873,0.16677,-0.018326
0.035034,1.2945,-3.6677,8.0611,-0.052229,0.10812,0.032376
0.3259,1.6867,-3.0793,8.0807,-0.13653,0.011606,0.06017
0.57059,1.6475,-2.4713,8.3357,-0.13744,-0.076053,0.061392
0.70724,1.8044,-3.4127,7.963,0.15119,-0.11637,0.05284
0.72345,2.1575,-3.3735,8.1003,0.32651,-0.11057,0.039095
0.59207,1.9221,-2.589,7.9434,0.029627,-0.078191,0.0085521
0.3692,1.216,-1.8044,7.3158,0.077274,-0.036041,-0.02138
0.14703,0.76492,-2.2751,8.316,0.12889,0.0064141,0.01741
-0.019196,1.1964,-3.3146,9.4928,0.16554,0.041233,0.0088575
-0.12253,1.3533,-3.8638,9.5713,0.14111,0.076969,0.0042761
-0.1553,0.90221,-3.2166,9.8066,0.072998,0.11118,0.0042761
-0.15671,0.82376,-2.3732,9.434,-0.089797,0.11668,0.013744
-0.19232,0.90221,-2.2751,9.0417,-0.0281,0.080329,0.018631
-0.22534,0.72569,-2.6086,8.6887,0.24312,-0.026267,-0.037263
-0.27292,1.2749,-2.942,8.3749,0.15424,-0.014966,-0.031154
-0.30319,1.3533,-3.0793,8.2572,0.046731,-0.016188,-0.19884
-0.34354,1.3533,-2.9028,8.316,0.04215,-0.021991,-0.17226
-0.39108,1.0787,-2.589,8.6887,0.18143,-0.0030543,-0.10507
-0.45041,0.98067,-2.7851,8.7279,0.33964,0.04948,-0.014966
-0.50629,1.4318,-3.0793,8.8064,0.44074,0.11576,0.01741
-0.56354,1.2749,-3.0793,8.8456,0.45051,0.17685,-0.018021
-0.61594,1.1768,-2.6086,8.3357,0.081856,0.031154,-0.068417
-0.66217,0.74531,-2.7262,8.316,0.051924,0.056505,-0.08491
-0.6763,0.74531,-2.7262,8.7083,-0.0073304,0.090713,-0.0033598
-0.67517,0.92183,-2.7655,8.9633,-0.049175,0.12767,-0.00061087
-0.65643,1.1376,-2.589,8.7475,-0.04612,0.15027,-0.021991
-0.64758,1.4906,-2.432,8.2572,-0.01405,0.1576,-0.035736
-0.63867,1.3337,-2.9028,8.3749,0.048869,0.14936,-0.033292
-0.61981,0.92183,-3.0008,8.8848,0.13195,0.14142,-0.042455
-0.62305,0.92183,-2.942,9.179,0.1799,0.16249,-0.19884
-0.61392,1.0787,-2.7459,9.1202,0.17623,0.20708,-0.2025
-0.60336,1.3533,-2.5105,8.7279,0.15272,0.23885,-0.078496
-0.59171,1.3533,-2.6282,8.2376,0.12828,0.24648,-0.074831
-0.58899,0.98067,-2.6086,8.4926,0.10263,0.22571,-0.097433
-0.5921,0.92183,-2.7262,8.6887,0.08094,0.17654,-0.12584
-0.59882,1.0591,-2.8832,8.4926,0.091935,0.10507,-0.14966
-0.61987,0.90221,-2.6674,8.3749,0.13744,0.047647,-0.1744
-0.64603,0.5884,-2.6282,8.218,0.044288,0.026573,-0.010079
-0.70593,0.27459,-2.6282,8.8652,0.16493,0.014355,-0.19181
-0.77579,0.54917,-2.7655,8.9633,0.21075,0.009163,-0.17837
-0.82251,1.1768,-2.6282,8.7868,0.22327,0.014661,-0.14752
-0.85486,1.2356,-2.5105,8.2572,0.19639,0.023213,-0.11148
-0.88541,1.6671,-2.3732,8.0807,0.15455,0.027794,-0.082161
-0.89124,1.5298,-2.8832,8.7868,0.11484,0.016188,-0.047037
-0.88065,1.7456,-3.2362,9.2575,0.078802,-0.012217,-0.015272
-0.8522,1.8437,-3.0989,9.1202,0.035125,0.06689,0.0009163
-0.81946,1.8044,-2.9028,8.7279,-0.0042761,0.10476,-0.010079
-0.82373,1.1768,-2.4124,9.2575,-0.067195,0.11484,0.036652
-0.82883,1.216,-3.0008,9.5125,-0.081856,0.094684,0.05284
-0.84943,1.0395,-2.9028,9.3163,-0.044288,0.076053,0.05284
-0.85876,1.1964,-2.9028,8.8652,-0.0009163,0.062003,0.03879
-0.87228,0.74531,-2.1967,8.6299,0.032987,0.040317,0.023824
-0.87646,0.74531,-1.9809,8.8652,0.058032,0.022602,0.013439
-0.84991,0.41188,-1.9809,9.3752,-0.87262,-0.43249,0.35613
-0.78217,0.13729,-2.5693,9.1594,-0.8323,-0.42669,0.36163
-0.67133,0.41188,-3.6873,7.7865,-0.63102,-0.40225,0.037568
-0.56302,0.41188,-2.7655,9.434,-0.27978,-0.36133,0.090408
-0.48749,0.17652,-1.3141,10.728,0.17929,-0.26023,0.15944
-0.49911,1.0395,-1.5691,8.8456,0.28741,-0.075747,0.21625
-0.57401,1.3337,-2.1967,7.2373,-0.63041,0.23121,0.25015
-0.68024,1.2945,-1.6475,7.2373,-0.7816,0.51282,0.30818
-0.80466,1.0787,-1.8044,7.3354,-1.036,0.29596,-0.10537
-0.95026,1.5298,-2.6282,8.0807,-0.63805,-0.20769,-0.08827
-0.99997,1.118,-3.4519,8.1003,-0.092546,-0.4215,0.25534
-0.99997,0.098066,-3.3735,9.3359,0.33201,-0.32651,0.048564
-0.99997,-0.98067,-3.4127,11.631,0.40378,-0.064446,-0.14936
-0.99997,0.80415,-3.2362,10.12,0.13317,0.18784,-0.25962
-0.99997,0.86299,-1.3533,8.0807,-0.29352,0.29444,-0.21502
-0.99997,0.27459,-0.39227,6.8647,-0.97494,0.2364,-0.13531
-0.99997,0.11768,-1.7456,7.1589,-0.15272,-0.22174,-0.036346
-0.99997,0.8826,-2.6674,8.7083,-0.22419,-0.16493,0.036652
-0.99997,0.76492,-2.7655,9.179,-0.39126,-0.13042,-0.019242
-0.99997,0.90221,-2.3144,10.454,-0.57818,-0.15852,-0.0088575
-0.99997,0.90221,-1.1768,11.552,-0.60506,-0.15669,0.017715
-0.99997,0.60801,-1.6279,11.376,-0.45509,-0.094684,0.033598
-0.99997,1.5495,-1.3533,9.8066,-0.21686,0.0061087,0.011606
-0.99997,2.1771,-0.94144,8.0807,0.1347,0.15241,-0.034514
-0.99997,2.334,-2.1575,7.0608,0.89247,0.23182,0.0073304
-0.99997,1.824,-3.4127,5.7271,0.84422,0.25687,0.0033598
-0.99997,0.72569,-2.687,8.2376,0.57574,0.28894,0.076969
-0.99997,-1.4514,-2.9224,10.434,0.23243,0.29383,0.085521
-0.99997,0.17652,-5.6486,8.0611,-0.10415,0.15363,0.06689
-0.99997,1.6671,-4.6484,7.0019,-0.40073,-0.056505,0.045509
-0.99997,0.56879,-2.2555,7.9238,0.4664,-0.24587,0.05681
-0.87189,0.039227,-0.90221,9.6497,0.72785,-0.37813,0.034819
-0.5224,0.27459,-1.5691,9.5321,-0.019548,0.12981,0.10751
-0.098358,0.98067,-3.8834,8.6887,0.077274,0.13897,0.12004
0.36374,2.1182,-3.3539,8.8064,0.22999,0.1631,-0.051313
0.7713,1.6671,-2.4713,9.5321,0.38026,0.19609,-0.073915
0.99628,1.1964,-2.2948,9.8066,0.43371,0.24343,-0.069333
1,1.3337,-2.9028,9.4144,0.3653,0.26053,-0.044899
1,1.7064,-3.7069,8.316,0.21961,0.208,0.0073304
1,1.9809,-3.5304,7.0608,0.068722,0.1069,0.067195
1,1.6867,-3.0989,7.4923,0.55619,0.30146,-0.05284
1,1.1964,-3.3539,8.218,0.52718,0.26267,-0.033903
1,1.6083,-3.8638,8.4337,0.38423,0.15516,-0.053145
1,1.1964,-4.0011,8.0218,0.19609,0.03543,-0.043066
1,0.8826,-2.687,8.1787,0.052229,-0.055283,-0.037568
1,0.23536,-1.9809,9.0417,0.0088575,-0.085216,-0.03543
1,0.49033,-1.9809,9.1202,0.041539,-0.045815,-0.050702
1,0.90221,-2.5105,8.4141,0.058032,0.023213,-0.066584
0.92416,1.3533,-2.5301,7.9434,-0.009163,0.068417,0.0054978
0.83902,1.1964,-2.1575,8.2572,-0.043371,0.081551,0.009163
0.74805,0.66685,-2.432,8.8064,-0.062614,0.090713,-0.029322
0.67273,0.90221,-2.4713,8.6299,-0.055894,0.10201,-0.018326
0.57895,0.98067,-2.5105,8.6887,-0.046731,0.11851,-0.0012217
0.48587,1.0395,-2.5693,8.8652,-0.064141,0.13134,0.0027489
0.39548,1.3337,-3.0597,9.0417,-0.075136,0.12187,0.0009163
0.32932,1.3729,-2.7851,8.8064,-0.062003,0.1011,0.0024435
0.267,1.3337,-2.2948,8.6887,-0.035736,0.09163,0.0039706
0.20612,1.6083,-2.2948,8.8456,-0.015577,0.094073,-0.017104
0.17032,1.9613,-3.3146,8.6887,0.0073304,0.09896,0.015577
0.21457,1.4318,-3.5108,9.0025,0.020159,0.11087,0.018631
0.32785,0.74531,-2.5105,9.5125,0.018631,0.12553,0.012828
0.43097,0.39227,-1.216,9.2183,0.0051924,0.135,0.0061087
0.50021,0.078453,-1.6867,9.3359,-0.032681,0.13928,0.012217
0.51639,0.56879,-2.5105,8.8064,-0.055589,0.13714,0.014355
0.5184,1.0591,-2.687,7.963,-0.032987,-0.0018326,0.016188
0.48111,1.216,-2.6282,7.7473,0.012217,-0.010385,-0.010996
0.36102,0.49033,-2.3732,7.6296,0.059559,-0.00030543,0.11515
0.2113,0.13729,-2.0006,9.8066,0.10476,0.019242,0.093157
0.079773,-0.27459,-2.1967,10.277,0.15424,0.058948,0.069639
-0.04184,0.41188,-2.0594,9.6694,0.19914,0.12462,0.044593
-0.14108,0.98067,-1.824,8.1787,0.22297,0.17349,0.037568
-0.21292,0.56879,-1.5691,7.6884,0.22449,0.18357,0.036346
-0.21863,0.80415,-2.687,8.6495,0.38668,0.15547,-0.11393
-0.17459,0.74531,-2.5693,9.1202,0.42944,0.11454,-0.12492
-0.052673,0.74531,-2.6282,9.7478,0.44318,0.087965,-0.032987
0.08139,0.80415,-2.9028,9.4928,0.44746,0.059254,-0.044288
0.21292,0.92183,-3.0008,9.1202,0.47709,0.011912,-0.047342
0.30429,1.1964,-3.0989,8.5514,0.52168,-0.057727,-0.055894
0.34299,1.118,-2.6086,8.4926,0.24709,-0.094073,-0.05681
0.319,0.76492,-2.3732,8.8064,0.29993,-0.073304,-0.083078
0.24371,0.56879,-2.7459,9.7478,0.11332,-0.053756,-0.095906
0.12717,0.74531,-2.9028,10.12,-0.15272,-0.086437,-0.064752
0.0028687,0.82376,-2.8243,9.6497,-0.36285,-0.15852,-0.12798
-0.091797,0.86299,-2.687,9.4928,-0.45509,-0.23763,-0.13744
-0.17874,0.90221,-1.5691,9.5713,-0.41875,-0.29016,-0.15272
-0.25369,0.56879,-1.0003,9.179,-0.29108,-0.3091,-0.16218
-0.35217,0.56879,-1.1572,8.5514,0.48503,-0.30146,-0.14447
-0.42728,0.8826,-1.8044,8.0611,0.34544,-0.26725,-0.12309
-0.45535,0.92183,-2.5105,8.4141,0.0042761,-0.21564,0.025962
-0.40866,1.2945,-2.4517,8.5514,0.021686,-0.15882,0.022907
-0.3331,0.86299,-2.1967,8.8064,-0.01069,-0.12278,-0.047953
-0.27789,0.92183,-1.8829,8.6299,-0.07758,-0.10049,-0.026573
-0.21558,0.90221,-2.0398,8.4926,-0.14966,-0.090103,0.0094684
-0.16544,1.0395,-2.432,8.3945,-0.18754,-0.10263,0.025656
-0.091431,1.118,-2.432,8.7083,-0.1631,-0.12889,0.036652
-0.01474,1.0591,-2.3732,8.7475,-0.066584,-0.15088,0.035736
0.055389,1.118,-2.2751,8.4926,-0.0082467,0.049175,0.0073304
0.12469,0.90221,-2.6674,8.9437,-0.030849,0.066279,0.007025
0.2077,1.118,-2.2163,8.9633,-0.058338,0.068722,-0.0036652
0.25729,1.4514,-2.1967,8.8456,-0.066584,0.073915,-0.016493
0.3031,1.5495,-2.3144,8.5514,-0.055589,0.082467,-0.021075
0.32529,1.3533,-2.0594,8.7279,-0.043066,0.087048,-0.020464
0.34317,0.98067,-1.9809,8.8652,-0.03879,0.082772,-0.0088575
0.36398,1.0787,-2.1967,8.8064,-0.052229,0.067501,0.0036652
0.39169,1.0395,-2.687,8.8652,-0.082772,0.048258,0.0045815
0.40497,1.1964,-2.7459,8.6887,-0.071471,0.029932,0.0042761
0.41425,0.80415,-2.5105,8.7475,-0.04215,0.025351,0.0058032
0.42267,0.74531,-2.3732,8.8848,-0.020769,0.033292,0.0015272
0.42874,0.72569,-2.5693,9.0417,-0.014966,0.030849,-0.0018326
0.42105,0.80415,-2.5693,8.9437,-0.014966,0.017715,0.0061087
0.41055,1.0787,-2.6086,8.6495,-0.031154,0.0030543,0.014966
0.39249,1.0395,-2.432,8.4141,-0.060476,-0.0045815,0.012523
0.37149,0.80415,-2.4124,8.5318,-0.081856,-0.0058032,0.056505
0.35535,0.86299,-2.3732,9.0221,-0.10537,-0.011301,0.057116
0.34543,0.90221,-2.687,9.1594,-0.12126,-0.02138,0.0085521
0.32178,0.80415,-2.5301,8.8652,-0.1069,-0.032376,0.013134
0.30478,0.80415,-2.432,8.7868,-0.076358,-0.035125,0.018631
0.27356,0.80415,-2.4124,9.1202,-0.04948,-0.034514,0.027184
0.25223,0.74531,-2.432,8.9437,-0.030238,-0.029322,0.037874
0.21835,1.0395,-2.2751,8.8456,-0.021075,-0.025656,0.047647
0.18896,0.92183,-2.1967,8.7475,-0.060476,-0.029932,0.048258
0.16647,0.82376,-2.5693,8.9044,-0.014966,-0.025351,0.036957
0.1546,1.0591,-2.4517,8.9437,-0.0018326,-0.018631,0.020464
0.15216,0.86299,-2.4713,9.0221,-0.0061087,-0.017104,-0.0024435
0.16098,1.0787,-2.6282,8.8064,-0.022907,-0.012217,-0.017715
0.13885,1.1768,-2.7459,8.6299,-0.03146,-0.0061087,-0.025656
0.1153,1.3337,-2.687,8.7083,-0.033903,-0.0051924,-0.030849
0.10648,1.3925,-2.6282,8.8848,-0.043982,-0.0076358,-0.036957
0.063354,1.6475,-2.5105,8.8652,-0.15363,0.087965,-0.00061087
0.080109,1.6083,-2.7851,8.6887,-0.30727,-0.0027489,-0.050702
0.050415,1.5298,-2.687,8.5514,-0.37507,-0.08094,0.043371
0.011169,1.1964,-2.6086,8.7868,-0.2697,-0.1179,0.050702
-0.011139,0.92183,-2.432,9.1202,-0.032681,-0.12645,0.055589
-0.025421,1.0395,-2.4713,8.8456,0.19578,-0.087965,0.057116
-0.02063,1.0395,-2.6282,8.2572,0.11332,0.02474,0.057116
-0.049957,0.74531,-2.4124,8.2572,0.0027489,0.10782,0.047647
-0.045074,0.35304,-1.824,8.9044,0.071777,0.1069,-0.096211
-0.041168,0.17652,-1.9809,8.9437,-0.28069,0.057421,-0.090408
-0.03479,0.90221,-2.5301,8.6299,-0.55864,-0.060781,-0.035736
-0.010223,0.74531,-2.7262,8.3945,-0.65729,-0.21166,-0.035125
0.042938,0.43149,-2.432,8.7083,-0.57849,-0.3259,-0.061087
0.077057,0.17652,-2.2751,8.7279,-0.36438,-0.34697,-0.082467
0.084442,0.56879,-2.7262,8.4141,0.34575,-0.29993,-0.091019
0.089478,1.118,-3.0401,8.2572,0.31093,-0.20189,-0.093768
0.12814,1.1376,-2.687,9.0417,0.18998,-0.074831,-0.02138
0.16626,0.56879,-2.0594,9.9636,0.10263,0.019853,-0.03879
0.21609,0.8826,-2.2751,9.9047,-0.0039706,0.062308,-0.072693
0.23779,1.5495,-2.4713,8.8456,-0.1347,0.0562,-0.033598
0.25806,1.6083,-3.0597,7.4334,-0.23305,0.021075,-0.0082467
0.3082,1.0591,-3.5696,8.316,-0.25107,-0.036346,0.025351
0.40536,0.56879,-3.0793,10.356,-0.087048,-0.079718,0.059254
0.4776,1.1964,-1.9809,10.199,0.13103,-0.087965,0.021991
0.48108,1.5495,-2.1182,8.4141,0.046731,0.1066,-0.0045815
0.40384,1.6867,-2.8832,7.2765,-0.0042761,0.075136,0.026573
0.26056,1.3533,-3.0989,7.6492,-0.067195,0.052534,-0.0054978
0.13263,1.3337,-2.942,8.9044,-0.084299,0.047647,-0.03879
-0.0085754,0.90221,-2.1378,8.9437,-0.02474,0.077274,-0.072388
-0.1427,0.49033,-2.432,8.7279,0.06689,0.12492,-0.096517
-0.25616,0.92183,-2.9028,8.1787,0.13928,0.15882,-0.078802
-0.33008,1.118,-3.0793,7.9434,0.16005,0.14783,-0.041539
-0.36865,0.90221,-2.6086,8.4141,1.4597,0.44746,-0.045509
-0.35638,0.74531,-2.589,9.0417,1.2788,0.51679,-0.019853
-0.32724,1.118,-2.432,8.8652,1.0101,0.50091,0.07086
-0.28442,1.0395,-2.7459,8.8652,0.76236,0.43066,0.078496
-0.22583,0.92183,-2.589,9.434,0.6408,0.3485,0.067501
-0.13721,0.70608,-1.7848,10.12,0.67653,0.28253,0.033598
-0.049408,-0.05884,-2.432,9.689,0.82986,0.26512,0.00061087
0.027374,0.17652,-3.8638,9.3555,1.0363,0.3207,-0.034819
0.11313,0.90221,-5.1191,8.5318,1.2217,0.40195,0.044593
0.21069,1.0395,-5.7271,7.4334,1.3494,0.4725,0.076358
0.2879,2.1182,-6.1782,6.492,1.3986,0.52198,-0.0079412
0.36398,2.7066,-6.1978,5.9232,1.3967,0.54,-0.015272
0.41138,2.8047,-5.6486,5.5702,1.39,0.51679,-0.0054978
0.38818,2.8635,-5.4133,5.3544,1.3824,0.4945,0.014966
0.32312,2.8047,-6.5312,4.668,1.3451,0.50121,0.018021
0.21231,3.1774,-7.2765,4.2365,1.2654,0.50549,0.020159
0.10144,3.0008,-6.5312,4.158,-2.8793,-1.0864,-0.11545
0.0050354,2.6086,-5.7663,4.4914,-2.7376,-0.99602,-0.037568
-0.095642,2.3732,-5.9232,4.0992,-2.5791,-0.94501,-0.094073
-0.17047,2.687,-7.2961,3.7854,-2.325,-0.90225,-0.087354
-0.21643,2.7459,-7.0216,4.7856,-1.9444,-0.8375,-0.0956
-0.24374,2.3732,-5.9036,5.9036,-1.4835,-0.72785,-0.11454
-0.2756,2.0006,-5.3348,6.1782,-0.99052,-0.57635,-0.14936
-0.3096,1.9809,-6.1978,5.4917,-0.53695,-0.40928,-0.16188
-0.34549,2.2359,-6.5901,5.1191,0.019242,-0.25534,0.012828
-0.37,2.4909,-6.4528,5.6682,0.16982,-0.13622,0.051313
-0.38052,2.5497,-5.6486,6.3547,0.24679,-0.067501,0.027184
-0.38425,2.334,-5.2564,6.5508,0.36499,-0.039401,0.055283
-0.37143,2.2359,-5.1387,6.8254,0.60812,-0.018937,0.07025
-0.3689,2.0202,-4.9426,7.0608,0.93493,0.036652,0.07086
-0.35782,1.824,-4.8053,7.61,1.2541,0.15516,0.035736
-0.34549,1.7456,-4.9818,7.4923,1.4569,0.31001,-0.0015272
-0.32401,2.2359,-5.4525,7.1589,0.22785,0.18173,-0.077274
-0.27878,2.1771,-5.1387,7.2961,0.2364,0.16493,-0.065668
-0.22302,2.2751,-4.7268,7.4727,0.25076,0.146,-0.038485
-0.18127,1.9613,-4.3934,7.8061,0.25931,0.12156,-0.047342
-0.14371,1.6867,-4.4914,7.8649,0.25412,0.096822,-0.057727
-0.10513,2.0202,-4.4718,7.5315,0.22174,0.072998,-0.072388
-0.065002,2.0202,-4.4718,7.5903,0.25137,0.053145,-0.081856
-0.0020752,1.6083,-4.3542,7.7473,0.23396,0.041539,-0.081856
0.035614,1.6083,-4.5699,7.61,0.33567,0.13653,0.029627
0.099609,1.6867,-4.158,7.8061,0.26756,0.1014,0.047342
0.14236,1.5495,-3.8638,8.1787,0.23335,0.07025,0.02138
0.16043,1.2356,-3.7658,8.0611,0.23488,0.057116,0.011301
0.17572,1.5298,-4.2561,8.0022,0.26725,0.062003,0.002138
0.1774,1.2945,-4.0403,8.1003,0.31185,0.078496,-0.0030543
0.17191,1.118,-3.8442,8.316,0.33475,0.086132,0.0012217
0.16376,1.3729,-3.3735,8.1787,0.32559,0.087354,0.014966
0.15076,1.3925,-3.3931,8.1199,0.29169,0.096211,0.047647
0.13306,1.5298,-3.8246,8.1787,0.23915,0.1066,0.044288
0.12579,1.7064,-4.158,7.9434,0.15424,0.077274,0.07086
0.13937,1.8437,-3.9815,7.7865,0.067195,0.023213,0.08491
0.15427,1.824,-3.7265,7.7669,0.020769,-0.011606,0.069944
0.1748,1.9613,-4.0207,7.7473,0.035736,-0.014355,0.053451
0.19104,1.9613,-3.8638,7.9434,0.10782,0.011912,0.047953
0.17743,2.0006,-4.3345,8.1787,0.20128,0.047953,0.045815
0.15674,1.6083,-4.158,8.4141,0.31612,0.083689,-0.016188
0.13937,1.3729,-4.0207,8.6299,0.31124,0.11545,-0.027489
0.13379,1.1964,-3.8442,8.7083,0.3036,0.13775,0.041844
0.1221,1.5298,-3.5304,8.4337,0.30238,0.15424,0.043066
0.1152,1.5102,-3.1381,8.4337,0.29505,0.16585,0.034208
0.10059,1.118,-3.1381,8.316,0.27275,0.17776,0.02138
0.058929,1.1964,-3.0989,8.3945,0.27489,0.19364,0.007025
0.016052,1.3533,-3.3931,8.2572,0.3091,0.19517,-0.0064141
-0.018341,1.1964,-3.1577,8.316,-0.19456,0.038485,0.17807
-0.036987,1.118,-3.5696,8.3749,-0.18754,0.036652,0.19731
-0.034485,1.4318,-3.4716,8.0807,-0.15149,0.046731,0.07422
-0.026428,1.5298,-3.3931,8.218,-0.099571,0.068722,0.097433
-0.0069885,1.6671,-3.4519,8.0022,-0.010079,0.088881,0.1179
0.0087891,1.7064,-3.3146,8.0611,0.15608,0.11362,0.14233
0.043213,1.6083,-3.2558,8.0611,0.35552,0.19181,0.16157
0.069275,1.6083,-3.3146,8.3749,0.55528,0.30085,0.16646
0.11673,1.5298,-3.6873,8.1787,-0.075136,0.0281,-0.045815
0.19556,1.5298,-4.1776,8.0022,-0.012523,0.036957,-0.034819
0.27631,1.4318,-3.7658,8.2376,0.046731,0.055283,-0.041233
0.36127,1.216,-3.3146,8.5514,0.0956,0.087048,-0.039095
0.40491,1.216,-3.1577,8.4141,0.11301,0.10996,-0.037263
0.42667,1.1964,-3.3931,8.3749,0.065363,0.10263,-0.023824
0.46072,1.2356,-3.6285,8.2768,-0.014355,0.083383,-0.018631
0.47495,1.2945,-3.3735,8.2572,-0.068111,0.068722,-0.039401
0.51746,1.4318,-3.1381,8.4337,-0.063225,0.065668,-0.022907
0.52142,1.216,-3.197,8.218,-0.054062,0.064141,-0.025351
0.51776,1.1964,-3.295,8.3749,-0.053145,0.041539,-0.025045
0.51431,0.90221,-3.295,8.7083,-0.04948,0.007025,-0.014355
0.48828,1.2945,-3.6677,8.2572,-0.026878,-0.0064141,-0.012523
0.45584,1.5298,-3.6677,8.0807,0.0094684,0.0088575,-0.020159
0.42999,1.2945,-3.3931,8.1199,0.03146,0.039095,-0.025656
0.4021,1.216,-3.197,8.316,0.029322,0.068417,-0.022907
0.3699,1.216,-3.2558,8.4926,0.010385,0.078496,0.029932
0.35599,1.2945,-3.3146,8.2572,-0.023213,0.065057,0.052229
0.34677,1.1768,-3.0793,8.0022,-0.056505,0.048564,-0.022602
0.34747,1.216,-2.9028,7.7865,-0.084605,0.034208,-0.021991
0.32367,1.4318,-3.0793,7.7865,-0.1014,0.026267,-0.026573
0.32001,1.3533,-3.4519,8.3749,-0.10629,0.023518,-0.021686
0.29517,1.6475,-3.8442,8.0218,-0.12462,0.033292,-0.007025
0.2576,2.1182,-3.8834,6.9235,-0.16646,0.043066,0.009163
0.15891,0.49033,-3.3931,10.689,0.19823,0.0027489,-0.13011
-0.017853,-0.80415,-5.0798,10.375,0.25076,0.057116,-0.13897
-0.13934,0.8826,-5.0995,8.9044,0.31215,0.10751,-0.029322
-0.18848,1.6475,-3.295,7.963,0.30543,0.12156,-0.015272
-0.16248,0.66685,-2.5105,7.6884,0.18937,0.076969,0.021686
-0.11105,0.35304,-2.5105,7.7865,0.061392,0.018021,0.022907
-0.02771,0.74531,-3.0401,8.0807,-0.0015272,-0.0082467,-0.039706
0.066864,1.0395,-3.3931,8.2572,0.027489,0.022602,-0.10201
0.16666,1.0003,-3.2362,8.9437,0.36377,0.097128,-0.072082
0.24191,0.80415,-3.0989,9.434,0.42852,0.17898,-0.043982
0.30026,1.0395,-3.3931,8.9437,0.41722,0.24038,-0.13714
0.33032,1.6671,-3.7658,8.316,0.35064,0.26542,-0.1179
0.34299,1.824,-3.5696,8.1787,0.27855,0.23518,-0.08491
0.30161,1.824,-2.7655,7.6884,0.2251,0.16921,-0.057421
0.22397,1.2749,-2.6086,8.8848,0.12523,0.1124,-0.059559
0.13684,1.3533,-3.3931,8.8652,0.25168,0.10415,-0.075442
0.04715,2.0006,-3.8638,8.1591,0.27489,0.12309,0.076053
-0.015472,2.1378,-3.7265,7.9238,0.33628,0.17226,-0.068722
-0.08493,1.5298,-2.9028,8.2572,0.30146,0.2474,-0.0036652
-0.18665,0.90221,-2.6086,8.9633,0.21411,0.29077,0.056505
-0.30579,0.98067,-2.7262,8.7868,0.053145,0.26542,0.12126
-0.4353,1.5102,-2.7459,7.9434,-0.16921,0.24099,0.1686
-0.56177,1.3533,-2.6086,7.7473,0.18051,0.17654,0.18387
-0.71558,0.49033,-2.4517,8.9437,0.1912,0.014661,0.16493
-0.91623,-0.13729,-2.687,8.4337,-0.38576,-0.12859,0.0097738
-0.99997,-0.82376,-3.6873,10.003,-0.33842,-0.24038,0.026267
-0.99997,0.17652,-3.4519,10.062,-0.2193,-0.31185,-0.15516
-0.99997,0.74531,-3.1381,8.7279,-0.083994,-0.32742,-0.17532
-0.99997,0.80415,-2.5105,7.9434,0.0027489,-0.29749,-0.14722
-0.99997,0.56879,-1.8044,8.1787,0.0051924,-0.23976,-0.10904
-0.99997,0.72569,-1.9809,8.3945,-0.28619,-0.20189,-0.065668
-0.99997,0.74531,-2.6282,8.7475,-0.34911,-0.19639,-0.020159
-0.99997,1.1964,-3.1381,8.8848,0.014661,0.047647,-0.0094684
-0.99298,1.4906,-3.6677,8.4926,0.053756,0.071471,-0.023824
-0.81897,1.9025,-3.2362,8.1591,0.04215,0.07758,-0.0076358
-0.5574,1.7456,-3.0793,8.0807,0.0094684,0.069333,0.0051924
-0.32925,1.6671,-3.0989,8.316,-0.030238,0.051618,0.012523
-0.13199,1.6083,-3.0989,8.1787,-0.083689,0.017715,0.021991
-0.0026245,1.7456,-3.0401,8.1787,-0.14233,-0.023213,0.024435
0.064972,1.5298,-3.0401,8.2768,-0.16738,-0.04948,0.01069
0.10828,1.1964,-3.0793,8.4337,-0.075747,-0.038179,0.032376
0.12564,1.5298,-3.3539,8.4337,0.023518,0.0094684,0.018631
0.15976,1.5495,-3.5108,8.4141,0.096211,0.060476,-0.020159
0.20508,1.4906,-3.3931,8.4337,0.1011,0.09163,0.0012217
0.24701,1.2945,-3.0793,8.7868,0.045204,0.093462,0.022907
0.3067,1.6083,-3.0793,8.5514,-0.032987,0.07422,0.034514
0.36322,1.3729,-3.3735,8.4337,-0.1011,0.049175,0.036652
0.44757,1.5102,-3.5108,8.1003,-0.15974,0.025656,0.038485
0.52917,1.3729,-3.0793,8.4926,-0.17501,-0.0067195,-0.012217
0.60507,1.0787,-2.8243,8.5318,-0.12828,-0.018937,-0.017715
0.6485,1.1964,-2.7851,8.5514,-0.050091,-0.014966,-0.0027489
0.67386,1.1964,-3.2166,8.4926,0.042455,0.010079,-0.013439
0.66751,1.7064,-3.8834,8.0807,0.10843,0.050091,-0.028711
0.64877,1.6083,-3.4127,8.2572,0.12004,0.076358,-0.037263
0.61234,1.3729,-3.0793,8.4141,0.079412,0.074526,-0.022907
0.52869,1.2945,-3.0793,8.316,0.0054978,0.04612,-0.01069
0.43866,1.0395,-3.2558,8.4926,0.03543,0.055589,-0.032376
0.37296,1.3337,-3.7069,8.5514,0.0039706,0.050396,-0.025656
0.35693,1.2945,-3.7658,8.6299,-0.059559,0.029016,0.021075
0.35773,1.3533,-3.3931,8.6495,-0.12889,0.0018326,0.018937
0.34232,1.118,-2.9028,8.8456,-0.18448,-0.017715,0.013439
0.32953,0.80415,-2.8832,8.8064,-0.19792,-0.026267,-0.00030543
0.29611,1.0395,-3.0008,8.5514,-0.15241,-0.018021,-0.014355
0.27838,0.90221,-3.3539,8.4926,-0.069333,0.010079,-0.025351
0.25714,1.1964,-3.295,8.1591,-0.10446,0.23671,0.040623
0.24924,1.2945,-3.3146,8.0807,-0.25931,0.16188,0.047342
0.22934,1.2945,-2.9028,8.1199,-0.33384,0.073915,-0.013744
0.22256,1.4906,-3.0401,8.0022,-0.32834,-0.0088575,0.0009163
0.17761,1.5887,-3.2558,8.1199,-0.2755,-0.069944,0.0051924
0.15146,1.4318,-3.4519,8.316,-0.2193,-0.090103,0.0054978
0.13354,1.4318,-3.4127,8.4141,0.31857,-0.076358,0.009163
0.10706,1.3533,-3.5304,8.5906,0.10507,-0.04948,0.022297
0.10818,1.3337,-3.3146,8.5318,-0.47647,0.0058032,0.19914
0.088104,1.118,-3.3931,8.5514,-0.65729,0.075442,0.18662
0.089478,1.3729,-3.4519,8.2768,-0.90042,0.063835,0.054978
0.089294,1.4906,-3.5696,8.2572,-1.2098,-0.032987,0.078191
0.088837,1.1964,-3.0793,8.316,-1.536,-0.16493,0.10415
0.098114,0.96105,-2.8243,8.2572,-1.8014,-0.30085,0.12492
0.10458,1.3729,-2.942,7.9238,-0.21472,-0.44746,0.14875
0.13452,1.216,-3.6285,7.8649,-0.31307,-0.60781,0.17654
0.20441,1.6867,-4.0207,8.0218,-1.909,-0.73182,-0.03146
0.29727,1.6671,-3.55,8.5514,-1.9514,-0.77274,-0.12278
0.38583,1.216,-2.7262,8.9437,-1.8934,-0.73029,0.12737
0.44968,1.1376,-2.2163,9.0613,-1.7404,-0.66248,0.081551
0.49789,0.8826,-2.687,9.0025,-1.6371,-0.63591,0.078802
0.52435,0.82376,-3.2362,8.8652,-1.6674,-0.66462,0.08491
0.54642,1.1964,-3.6285,8.6299,-1.7962,-0.72693,0.068722
0.5564,1.1964,-3.2166,8.3357,-1.9056,-0.75961,0.029016
0.57294,1.1768,-2.432,7.6884,-0.10873,0.0562,-0.039095
0.58749,0.60801,-2.2751,8.8064,-0.057116,0.063225,-0.026267
0.62219,0.98067,-3.0401,9.787,0.045509,0.082161,-0.066279
0.70557,0.90221,-3.9423,9.179,0.18906,0.13164,-0.083078
0.85046,1.5298,-5.5898,7.9238,0.34819,0.20525,-0.098349
0.99283,1.6867,-5.4917,7.6884,0.47525,0.27367,-0.098655
1,1.3729,-5.4525,7.8649,0.52993,0.30635,-0.079107
1,0.92183,-5.1387,7.3942,0.47434,0.29169,-0.054672
1,1.824,-5.4329,6.747,0.22174,0.1179,-0.0281
1,2.1575,-6.0409,6.0605,0.22602,0.11515,-0.042761
1,2.0594,-5.8644,5.8055,0.23091,0.11148,0.033903
1,2.0006,-5.4329,6.2959,0.23854,0.10782,0.029932
1,2.6086,-4.3345,6.9627,0.24893,0.11118,0.025656
0.99347,2.1575,-3.3931,7.3354,0.27611,0.13073,0.018631
0.74008,1.7652,-3.3146,7.2373,0.30543,0.17013,0.002138
0.34909,1.3533,-3.1577,7.4334,0.31337,0.20922,-0.013744
-0.050659,1.5495,-3.4716,8.0022,0.30513,0.22327,-0.13042
-0.39587,1.5298,-3.5304,8.5514,0.29047,0.22358,-0.13103
-0.68964,1.3533,-4.1384,8.316,0.27122,0.21869,-0.060781
-0.90445,1.4318,-4.7072,8.0807,0.26145,0.21105,-0.083994
-0.99997,1.2945,-4.413,7.6884,0.25717,0.20983,-0.10415
-0.99997,1.1964,-4.0207,8.316,0.24221,0.22388,-0.11423
-0.99997,0.8826,-3.8638,8.4141,0.22633,0.23824,-0.11912
-0.99997,1.4514,-3.7265,8.1199,0.23885,0.23152,-0.12553
-0.99997,1.2945,-3.8638,8.0022,0.92302,0.35003,0.075442
-0.99997,1.1964,-3.5696,7.9434,0.80084,0.28955,0.080634
-0.9476,1.118,-3.6285,8.0022,0.65332,0.22449,0.072998
-0.84888,1.1768,-3.5304,8.3945,0.5006,0.16157,0.06017
-0.74615,1.0395,-3.4519,8.1787,0.38393,0.11393,0.052534
-0.62985,1.1964,-3.6285,8.1003,0.32254,0.09163,0.054978
-0.52847,1.3533,-3.4716,8.4141,0.30727,0.098349,0.060476
-0.44739,1.216,-3.5108,8.2572,0.30635,0.10537,0.066279
-0.37576,1.4906,-3.3931,8.316,0.32865,0.098655,0.015272
-0.32837,1.6867,-3.3931,8.1787,0.33628,0.098655,0.025962
-0.28601,1.6867,-3.2362,8.4141,0.32651,0.11057,0.075136
-0.26675,1.6083,-3.1381,8.4926,0.29444,0.12645,0.061087
-0.2619,1.824,-3.0008,8.7475,0.25656,0.12981,0.058338
-0.26608,1.6671,-3.197,8.6299,0.23274,0.11332,0.054672
-0.27545,1.5298,-3.0008,8.2572,0.219,0.099876,0.038485
-0.2728,1.216,-3.0008,8.3749,0.21594,0.10812,0.020769
-0.25882,1.118,-2.9028,8.5318,0.057727,-0.19364,0.089186
-0.2272,0.86299,-2.6086,8.5514,-0.0051924,-0.13073,0.11301
-0.18625,0.86299,-2.5105,8.3749,-0.061697,-0.12553,-0.029627
-0.14975,0.27459,-2.5105,8.6299,-0.095906,-0.13775,-0.028711
-0.11139,-0.05884,-2.5301,8.8652,-0.10965,-0.16127,-0.025045
-0.061462,0.019613,-2.6086,8.8652,-0.11637,-0.19242,-0.0024435
-0.016174,0.11768,-2.8243,9.0025,0.081856,-0.21991,0.029016
-0.00177,0.35304,-2.5693,8.5906,0.1066,-0.23854,0.063225
0.033752,0.17652,-2.432,8.7083,-0.07025,0.051313,0.048258
0.052399,0.39227,-2.5105,8.9437,-0.066279,0.049175,0.075136
0.07254,0.39227,-2.7459,8.7868,-0.049175,0.036957,0.065057
0.09903,0.80415,-2.6086,8.8064,-0.037874,0.019548,0.068417
0.12891,0.8826,-2.3732,8.6299,-0.026878,0.018326,0.06353
0.14398,0.66685,-2.4517,8.7083,0,0.036041,0.054672
0.16672,0.90221,-2.687,8.7475,0.022907,0.055283,0.04612
0.18536,1.1376,-2.8832,9.0221,0.014355,0.068722,0.040623
0.20874,1.2749,-2.6086,8.9437,-0.12767,0.067195,0.014355
0.20078,1.1964,-2.8243,8.7279,-0.06017,0.052534,0.0097738
0.13791,1.1768,-3.8638,8.4337,0.16829,0.017104,0.10476
0.045868,0.41188,-4.668,9.8263,0.47525,-0.028405,0.10599
-0.075562,-0.2942,-3.197,11.552,0.61942,0.018021,0.082161
-0.26077,-0.13729,-1.9809,10.454,0.58215,0.10568,0.06353
-0.50089,-0.21575,-2.2163,8.218,-0.031765,0.081245,0.073915
-0.73474,-0.05884,-2.6086,7.1589,-0.097128,-0.0054978,0.069333
-0.93292,0.078453,-3.0008,7.2961,-0.22785,-0.18418,-0.087965
-0.99997,0.39227,-2.6086,7.4531,-0.36591,-0.38515,-0.064446
-0.99997,0.43149,-2.5105,8.0807,-0.35736,-0.51679,0.032376
-0.93692,0.41188,-2.2948,8.8456,-0.24709,-0.57177,0.023213
-0.75528,0.76492,-2.1967,9.179,-0.11759,-0.551,-0.0045815
-0.56522,1.5298,-2.432,9.1202,-0.017715,-0.47861,-0.047342
-0.38373,2.1182,-2.589,8.6299,0.35888,-0.38637,-0.079412
-0.28336,2.3732,-3.0793,8.3357,0.040012,-0.29688,-0.089186
-0.29431,2.2751,-2.687,8.0022,0.24435,0.14539,-0.057116
-0.35074,1.3533,-2.3144,8.2768,0.28405,0.11118,-0.074526
-0.42508,1.3533,-2.0986,8.8064,0.22571,0.047342,-0.12614
-0.51053,1.5298,-2.7851,9.0025,0.03207,-0.050396,-0.098044
-0.5643,1.6867,-3.0793,8.5514,-0.21564,-0.13989,-0.083078
-0.58984,1.4318,-2.6086,8.7083,-0.42272,-0.19181,-0.081245
-0.61612,1.3533,-2.0594,8.7868,-0.53206,-0.20647,-0.06017
-0.65485,1.118,-2.1182,8.8652,-0.51099,-0.19884,-0.045509
-0.7034,1.6867,-2.8243,8.4926,-0.38332,-0.1689,0.099876
-0.74298,1.8633,-3.2166,9.1202,-0.20892,-0.10263,0.099266
-0.79489,1.4318,-3.0989,9.6694,0.0024435,0.011606,-0.1124
-0.85486,1.216,-2.2948,10.062,0.14416,0.09163,-0.11942
-0.89282,1.3533,-1.8044,9.9439,0.17685,0.10721,-0.063225
-0.91556,1.1964,-1.4906,8.7083,0.085216,0.056505,-0.0082467
-0.8912,1.3337,-2.0594,7.5511,-0.097128,-0.058643,0.038485
-0.80627,1.4318,-3.1381,7.6884,-0.28344,-0.18876,0.078191
-0.66849,1.5298,-3.0793,8.1787,-0.47342,-0.27794,0.050091
-0.47443,0.74531,-2.6086,9.0417,-0.51435,-0.32773,0.017715
-0.27902,0.35304,-2.0398,9.8459,-0.50121,-0.34911,0.097433
-0.12155,0.11768,-2.0398,9.4732,-0.44196,-0.33414,0.089797
-0.0019226,0.98067,-2.432,8.8652,-0.36072,-0.27245,0.076358
0.10318,1.216,-2.8832,8.4141,-0.28588,-0.1741,0.060781
0.1828,1.9025,-3.0008,7.9238,-0.23457,-0.066279,0.048564
0.2356,1.5298,-2.7459,7.8649,-0.19151,0.015577,0.051924
0.27164,1.1964,-2.7459,8.2572,-0.13042,0.064752,-0.067501
0.29495,1.6475,-2.7851,8.7475,-0.082772,0.092852,-0.078802
0.30603,1.5298,-2.9812,9.0417,-0.058032,0.10568,-0.014966
0.30502,1.9221,-2.9224,9.0417,-0.031154,0.10904,-0.036346
0.29126,1.9809,-2.8832,8.8652,0.02474,0.10537,-0.054367
0.26517,1.6083,-3.1381,8.5906,0.10415,0.11484,-0.060476
0.24609,1.6475,-3.4716,8.2572,0.16157,0.14172,-0.06353
0.22546,1.4318,-3.0008,8.6887,0.16799,0.16616,-0.065668
0.20496,1.216,-2.3732,8.8652,0.039095,0.18509,0.1408
0.19144,1.1964,-2.1967,9.0025,0.00061087,0.16188,0.15088
0.18951,0.98067,-2.6086,8.9437,-0.020464,0.14447,0.04612
0.18674,0.82376,-2.687,8.9437,-0.014355,0.12859,0.055894
0.17966,0.80415,-2.9028,8.4141,-0.002138,0.11209,0.073915
0.16528,0.66685,-2.3536,8.1199,-0.0054978,0.10751,0.1014
0.15082,0.66685,-2.4713,8.2572,-0.033598,0.12767,0.11545
0.12994,0.54917,-2.432,8.5318,-0.097433,0.16035,0.12614
0.09375,0.39227,-2.5693,8.8652,0.11118,0.18662,-0.029016
0.054199,0.60801,-2.5693,8.4926,0.25962,0.20861,-0.068111
0.005127,0.56879,-2.589,8.7279,0.208,0.25412,0.16799
-0.0075989,0.74531,-2.7459,8.5514,0.085827,0.27428,0.17746
-0.013184,1.0395,-2.7459,8.218,-0.023518,0.15058,0.17013
0.012146,0.86299,-2.5105,8.5318,-0.13317,-0.0082467,0.13531
0.080536,0.8826,-2.432,8.8652,-0.15791,-0.12248,0.0562
0.17117,0.80415,-2.4517,9.0025,-0.08827,-0.1857,0.0054978
0.2789,0.90221,-2.7851,9.1202,-0.027184,-0.19853,-0.048258
0.38794,1.4318,-2.6086,8.2572,0.14172,-0.16768,-0.048258
0.46472,1.4318,-2.7459,8.218,0.25717,-0.10782,-0.077885
0.45474,0.56879,-3.2166,8.1199,0.28222,-0.013134,-0.092241
0.34509,0.098066,-3.3146,10.297,0.24038,0.08491,-0.1014
0.22229,0.41188,-3.3146,10.787,0.17135,0.13928,-0.075442
0.095123,1.216,-2.6086,9.2575,-0.18204,0.15608,-0.075442
-0.034454,1.0199,-2.3732,7.6296,-0.14019,0.15547,-0.071166
-0.15262,1.0395,-2.0986,7.61,0.053756,0.14752,-0.024129
-0.2489,1.0787,-2.0986,8.1787,0.047953,0.12095,-0.030238
-0.29059,0.86299,-2.1967,8.7475,0.058338,0.086743,-0.058948
-0.32117,0.66685,-2.2163,9.1594,0.087354,0.083383,-0.073609
-0.30573,0.74531,-2.5301,9.0025,0.13378,0.10599,-0.076664
-0.26953,1.118,-2.687,8.3945,0.16371,0.13317,-0.064141
-0.19849,0.86299,-2.5693,8.4729,0.12645,0.14966,-0.052534
-0.12189,0.74531,-2.3732,8.7475,0.086743,0.15455,-0.034514
-0.038849,0.98067,-2.6086,8.9633,-0.060476,-0.055283,-0.0061087
0.036682,0.92183,-2.589,8.7475,0.024435,0.0039706,-0.012217
0.021576,1.0395,-2.4713,7.7865,0.066279,0.044899,0.07025
-0.046844,-0.05884,-2.5105,9.6497,0.053451,0.071471,0.067806
-0.095917,-0.49033,-2.687,11.14,0.012828,0.073304,0.04948
-0.14188,0.33343,-2.4517,9.8459,-0.023213,0.043677,0.042455
-0.17459,0.5884,-1.8044,8.3749,-0.04215,-0.0015272,0.035736
-0.22217,0.39227,-1.7456,7.4334,-0.047342,-0.040623,0.01405
-0.25797,0.2942,-1.824,7.2765,-0.039401,-0.06353,0.038179
-0.21814,-0.43149,-2.2555,8.0611,-0.037874,-0.06353,0.033598
-0.032715,0.078453,-2.4124,9.9636,-0.038485,-0.043677,-0.0045815
0.2775,0.35304,-1.9809,10.925,-0.018937,-0.019242,0.0045815
0.61545,0.90221,-1.9809,10.317,0.021075,0.013134,-0.0012217
0.92911,1.5495,-2.1575,8.8456,0.041233,0.042761,-0.0073304
1,1.5495,-2.1967,8.0611,0.017715,0.048258,0.0033598
1,1.0395,-2.432,8.0022,-0.027489,0.022907,0.02474
1,1.1768,-3.3539,8.2572,-0.059865,-0.0082467,-0.0015272
1,1.5298,-3.3146,8.8064,-0.057116,-0.014355,-0.0076358
1,1.3337,-3.0793,9.0613,-0.019242,0.015882,0.018937
1,1.0395,-2.5693,9.0417,0.031154,0.078802,0.0058032
1,0.74531,-2.2948,8.8848,0.060476,0.14875,0.0039706
1,0.98067,-2.5105,8.9437,0.065973,0.19578,0.01069
1,1.3925,-2.687,8.7475,0.081551,0.20922,0.010385
1,1.2945,-2.7655,8.6887,0.12126,0.19731,0.0036652
1,1.1964,-2.6282,8.7083,-0.54398,-0.32162,0.14142
1,0.74531,-2.0594,8.9044,-0.61514,-0.33598,0.090713
1,0.96105,-2.6086,8.5514,-0.58704,-0.28894,-0.041539
1,1.1964,-2.6674,8.0022,-0.50977,-0.2306,0.0015272
