-0.072601,2.7655,-4.2561,7.5511,-0.0067195,0.020769,0.010079
-0.074036,2.9224,-4.3934,7.4334,-0.00061087,0.020159,0.0085521
-0.072052,3.0008,-4.6091,7.4334,-0.0051924,0.021686,0.0094684
-0.087524,3.0008,-4.3934,7.4727,-0.016799,0.022297,0.011912
-0.097595,2.9224,-4.3345,7.4334,-0.02474,0.019853,0.011606
-0.10596,2.9224,-4.3542,7.4923,-0.030543,0.018937,0.0085521
-0.11197,2.9224,-4.5111,7.4531,-0.032376,0.02138,0.009163
-0.11475,2.9224,-4.3345,7.4531,-0.03207,0.021075,0.010079
-0.11136,2.7851,-4.3934,7.3354,-0.035125,0.0064141,0
-0.10873,2.687,-4.3542,7.4334,-0.028405,0.021686,-0.013134
-0.10922,2.6086,-4.3542,7.5511,-0.012217,0.037263,-0.0085521
-0.11066,2.7655,-4.4914,7.4531,0.0012217,0.050091,-0.010996
-0.11646,2.7851,-4.3542,7.3354,0.0088575,0.051618,0.0088575
-0.11905,2.8047,-4.3345,7.4531,-0.022907,0.04612,0.022297
-0.12064,2.7851,-4.3934,7.3746,-0.052229,0.014966,0.016493
-0.12155,2.7851,-4.3934,7.3354,-0.07025,0.0048869,0.0061087
-0.12076,2.7851,-4.3345,7.4531,-0.050702,0.010996,-0.0067195
-0.11725,2.9224,-4.3934,7.4334,-0.014355,0.021075,-0.0061087
-0.12567,2.7655,-4.3934,7.5511,0.016799,0.036957,-0.0076358
-0.13974,2.7851,-4.3934,7.3746,0.02474,0.038179,-0.0012217
-0.14902,2.7851,-4.4914,7.6296,0.0085521,0.033598,-0.0067195
-0.1564,3.0204,-4.413,7.4334,-0.014661,0.023213,-0.007025
-0.16458,2.9028,-4.0207,7.3354,-0.032681,0.013744,-0.0076358
-0.17682,2.7655,-4.0992,7.4334,-0.040012,0.0082467,-0.007025
-0.18283,2.687,-4.4522,7.4727,-0.027184,0.029016,0.0054978
-0.18021,2.8635,-4.5699,7.4531,-0.027184,0.028405,0.0079412
-0.19357,2.6478,-4.3345,7.4531,-0.019853,0.027184,-0.0018326
-0.19751,2.8635,-4.1776,7.3942,-0.016493,0.024435,0.0012217
-0.21442,2.687,-4.2561,7.5511,-0.015272,0.023824,0.0024435
-0.2095,2.6086,-4.4914,7.5903,-0.011301,0.025351,0.0027489
-0.21912,2.7851,-4.4914,7.4531,-0.010079,0.025351,0.0033598
-0.22913,2.7851,-4.3542,7.4531,-0.0088575,0.022907,0.0036652
-0.23044,2.687,-4.3345,7.5511,-0.027489,-0.0073304,-0.030238
-0.22272,2.687,-4.3345,7.4923,-0.014355,-0.0054978,-0.032376
-0.21466,2.6282,-4.4522,7.6492,-0.007025,-0.00061087,-0.021686
-0.2262,2.8047,-4.4914,7.4923,-0.009163,0.0064141,-0.022907
-0.22867,2.687,-4.3934,7.5511,-0.019548,0.011301,-0.026878
-0.23965,2.8635,-4.3345,7.4531,-0.028711,0.012217,-0.028711
-0.23694,2.7066,-4.2561,7.4531,-0.043982,0.010385,-0.027489
-0.23404,2.7655,-4.3934,7.4531,-0.038485,0.0054978,-0.027794
-0.24304,2.7655,-4.5503,7.4727,-0.03543,0.0039706,-0.011606
-0.23859,2.687,-4.3345,7.4531,-0.03543,0.00030543,-0.0094684
-0.24719,2.687,-4.4718,7.4531,-0.03146,-0.0030543,-0.029932
-0.24112,2.7851,-4.3934,7.4727,-0.022907,0,-0.026267
-0.2334,2.687,-4.3542,7.3746,-0.014355,0.0042761,-0.024129
-0.23352,2.9224,-4.3345,7.4923,-0.0079412,0.0076358,-0.021075
-0.23276,2.8635,-4.3934,7.5511,-0.033903,0.011912,-0.017715
-0.24506,2.7459,-4.4718,7.5511,-0.036346,0.01405,-0.015272
-0.24557,2.687,-4.3345,7.4531,-0.022297,0.018021,-0.013744
-0.2431,2.8439,-4.4522,7.3354,-0.027489,0.014661,-0.016188
-0.24249,2.5497,-4.3345,7.4727,-0.015577,0.0076358,-0.013134
-0.24527,2.8635,-4.3934,7.4531,-0.020464,0.0015272,-0.013744
-0.25278,2.6282,-4.413,7.5315,-0.018326,-0.0024435,-0.0085521
-0.25131,2.9224,-4.4914,7.4531,-0.01405,-0.0018326,-0.0042761
-0.26505,2.7655,-4.413,7.5315,-0.0094684,-0.0009163,-0.002138
-0.26706,2.942,-4.3149,7.4727,-0.0045815,0.0027489,0.0009163
-0.27225,2.9224,-4.4718,7.4531,-0.036041,-0.00061087,-0.015272
-0.27478,2.589,-4.3934,7.5511,-0.03207,-0.0039706,-0.018937
-0.27863,2.7066,-4.5111,7.3158,-0.029627,-0.0033598,-0.016799
-0.28665,2.6478,-4.3934,7.3746,-0.029322,-0.0036652,-0.018326
-0.28455,2.589,-4.3934,7.4923,-0.029932,-0.0012217,-0.017104
-0.28351,2.9224,-4.3934,7.4531,-0.032987,-0.0012217,-0.014966
-0.28503,2.687,-4.3934,7.5903,-0.03879,-0.002138,-0.014966
-0.27875,2.7851,-4.4718,7.3942,-0.043677,-0.0045815,-0.014355
-0.28812,2.7459,-4.4718,7.4727,-0.12156,0.010996,0.0030543
-0.27295,2.6086,-4.7072,7.4727,-0.16799,-0.019242,0.009163
-0.26434,2.687,-4.3345,7.3746,-0.18326,-0.041844,0.0045815
-0.26086,2.7655,-4.3934,7.4334,-0.16463,-0.048869,0.0042761
-0.25729,2.9616,-4.413,7.61,-0.1182,-0.040317,0.0018326
-0.26526,2.8439,-4.413,7.3942,-0.043982,-0.019548,0.0015272
-0.27063,2.7851,-4.4718,7.4531,0.021991,0.01069,0.00030543
-0.28293,2.9224,-4.4522,7.4334,0.059254,0.040012,0.0009163
-0.29568,2.7851,-4.5699,7.4531,0.068722,0.053145,0.0009163
-0.3407,2.8047,-5.1191,7.2177,0.052229,0.045815,0.0009163
-0.45755,3.0204,-5.4133,7.4923,0.019548,0.036652,0.012523
-0.63568,2.9616,-4.3934,7.8649,-0.015272,0.021075,0.0058032
-0.84021,2.687,-3.4127,7.7865,-0.039095,0.0094684,0.0015272
-0.99643,2.432,-2.942,7.7865,-0.049175,0,0.0024435
-0.99997,2.4713,-3.1381,7.61,-0.045509,-0.0042761,0.0024435
-0.99997,2.9028,-3.7461,7.4334,-0.036041,-0.00061087,0.0027489
-0.99997,2.7459,-4.158,7.5903,-0.0054978,-0.030543,0.078496
-0.99997,2.7655,-4.5699,7.4531,-0.1686,-0.072693,0.061087
-0.99997,2.942,-4.9426,7.2177,-0.28619,-0.082772,0.016188
-0.99997,3.1774,-5.1387,7.2765,-0.36377,-0.073609,0.03207
-0.99997,3.0008,-4.8053,7.61,-0.41081,-0.060781,0.048258
-0.98111,2.9028,-4.1776,7.9042,-0.4331,-0.053756,0.07086
-0.88583,2.7655,-3.9227,7.7865,-0.42944,-0.052534,0.091935
-0.78281,2.7851,-4.0796,7.4531,-0.40042,-0.043066,0.094379
-0.70206,2.5497,-4.4914,7.4531,-0.26389,-0.026573,-0.0058032
-0.61444,2.7066,-4.668,7.3158,-0.14264,0.0058032,0.00030543
-0.53091,3.0793,-4.7268,7.2765,-0.02474,0.048869,0.039706
-0.45844,2.9224,-4.3149,7.4531,0.066584,0.083689,0.018021
-0.38309,2.8047,-4.0992,7.4727,0.10751,0.10537,0.0039706
-0.34149,2.8635,-4.2561,7.4531,0.09163,0.10415,-0.0027489
-0.29413,2.7459,-4.3345,7.4531,0.03146,0.082772,-0.0073304
-0.2496,2.9224,-4.5111,7.3746,-0.047342,0.047647,-0.009163
-0.22369,2.7459,-4.4718,7.3158,-0.019853,0.009163,-0.01405
-0.19406,2.687,-4.1972,7.4923,-0.019242,0.0082467,-0.012217
-0.15356,2.9224,-4.3542,7.4923,-0.020769,0.0082467,-0.013744
-0.13098,2.9224,-4.3934,7.4923,-0.023213,0.01069,-0.015272
-0.10068,2.9616,-4.3934,7.4531,-0.022297,0.009163,-0.017715
-0.099518,2.9224,-4.3542,7.4531,-0.022297,0.010385,-0.017715
-0.097168,2.7066,-4.3934,7.5511,-0.024435,0.0094684,-0.014355
-0.10858,2.8635,-4.3934,7.4923,-0.021686,0.007025,-0.014966
-0.10025,2.7851,-4.3345,7.4531,-0.051924,-0.034819,-0.009163
-0.10974,2.6478,-4.4718,7.5903,-0.042455,-0.023518,-0.011606
-0.10065,2.9028,-4.2561,7.3158,-0.035125,-0.018631,0.015272
-0.096863,2.6282,-4.4914,7.61,-0.039095,-0.012828,0.0073304
-0.11136,2.9224,-4.4914,7.4531,-0.037263,-0.0054978,0.013439
-0.095673,2.9028,-4.3934,7.4531,-0.03879,-0.0012217,0.0088575
-0.1008,3.0008,-4.3934,7.4531,-0.040623,0.0058032,0.002138
-0.10672,3.0597,-4.413,7.4531,-0.033292,0.014966,-0.0018326
-0.092163,3.0008,-4.4522,7.4923,-0.021686,0.023824,-0.028405
-0.087921,2.7851,-4.3345,7.4923,-0.02474,0.029322,-0.0281
-0.094391,2.8047,-4.3345,7.3942,-0.028405,0.035736,-0.013744
-0.095825,2.9028,-4.3542,7.4531,-0.028711,0.037568,-0.016799
-0.10422,2.7851,-4.3934,7.4531,-0.025045,0.034514,-0.022602
-0.098999,2.7851,-4.4718,7.4531,-0.019853,0.029932,-0.028711
-0.093353,2.7655,-4.3345,7.4531,-0.027489,0.029932,-0.028711
-0.091278,2.9224,-4.4522,7.3158,-0.023824,0.028405,-0.026573
-0.090698,2.7851,-4.4914,7.3942,-0.016493,0.025351,-0.010385
-0.090363,2.8047,-4.3542,7.3354,-0.018937,0.025351,-0.01069
-0.086517,2.9224,-4.4522,7.3942,-0.022297,0.02138,-0.025045
-0.084564,2.942,-4.3934,7.4334,-0.029016,0.017715,-0.020159
-0.082275,2.9224,-4.3542,7.4531,-0.029627,0.014355,-0.013134
-0.08847,2.9224,-4.413,7.4531,-0.025045,0.0094684,-0.01069
-0.093567,2.687,-4.3542,7.5511,-0.016799,0.007025,-0.010385
-0.085999,2.9028,-4.4914,7.4334,-0.016188,0.0067195,-0.010385
-0.083588,2.8047,-4.3934,7.4334,-0.034208,0.0048869,-0.020159
-0.072174,2.6282,-4.7856,7.5511,-0.037263,0.0054978,-0.037874
-0.069061,2.9224,-4.3934,7.3354,-0.033292,0.0033598,-0.016188
-0.044037,3.0008,-4.3934,7.4727,-0.030849,0.0033598,-0.011912
-0.039459,2.942,-4.3934,7.4334,-0.033598,0.0024435,-0.0079412
-0.033844,2.8047,-4.3934,7.3942,-0.036652,0.00061087,-0.0061087
-0.04361,2.9616,-4.3934,7.4727,-0.037263,-0.012217,-0.0076358
-0.038086,2.687,-4.413,7.4727,-0.0058032,-0.028405,-0.01069
-0.045898,2.9224,-4.668,7.3746,0.14569,-0.025962,-0.074831
-0.045166,2.9224,-4.3934,7.4531,0.30818,-0.009163,-0.057116
-0.055298,2.7851,-4.4522,7.5511,0.48533,0.025045,-0.048258
-0.052094,3.0008,-4.6287,7.4531,0.61331,0.083078,-0.054672
-0.061493,2.942,-4.3934,7.3354,0.67806,0.14203,-0.076664
-0.057465,2.8047,-4.4718,7.4531,0.69486,0.1744,-0.094073
-0.06424,2.8047,-4.4522,7.3942,0.6295,0.17654,-0.095906
-0.089539,2.9028,-4.7856,7.2961,0.48839,0.13989,-0.090408
-0.11972,2.9224,-5.021,7.0216,0.29627,0.07758,0.12339
-0.22256,3.0793,-5.2564,6.9235,0.081856,0.0082467,0.12278
-0.35361,3.1774,-4.8053,7.7669,-0.10476,-0.053451,-0.043982
-0.53146,2.687,-3.8638,8.218,-0.23366,-0.092852,-0.027489
-0.69989,2.4909,-3.197,8.0807,-0.29902,-0.096517,0.0048869
-0.85873,2.7655,-2.8439,7.6884,-0.32009,-0.069333,0.037568
-0.97873,2.9028,-3.1381,7.1785,-0.33659,-0.03207,0.066279
-0.99997,2.589,-3.6285,7.3354,-0.36194,-0.0082467,0.097738
-0.99997,2.4909,-4.3345,7.5903,-0.37232,-0.0097738,-0.013134
-0.96872,2.9028,-4.9426,7.5511,-0.33934,-0.016493,-0.015882
-0.85571,3.0597,-4.9622,7.3158,-0.2474,-0.0076358,0.097433
-0.72263,3.0989,-4.7856,7.5511,-0.11301,0.020464,0.068722
-0.59219,3.0008,-4.2561,7.9238,0.00030543,0.067501,0.043371
-0.45798,2.7851,-3.9423,7.9238,0.058948,0.10385,0.019548
-0.3428,2.7459,-4.158,7.6884,0.061392,0.11545,0.0036652
-0.23483,2.9224,-4.4914,7.4531,0.012828,0.10537,-0.0064141
-0.151,2.9028,-4.5699,7.2373,-0.07086,0.018326,-0.015577
-0.046021,2.8047,-4.7072,7.2765,-0.089797,0.018326,-0.017104
0.03714,2.687,-4.4914,7.3354,-0.11759,0.011912,-0.01069
0.1012,2.9028,-4.3542,7.3746,-0.14875,0.00030543,-0.014355
0.14334,2.9616,-4.4522,7.4727,-0.16371,-0.0085521,-0.017715
0.20117,3.0008,-4.2561,7.5511,-0.1576,-0.010996,-0.01405
0.23218,2.8047,-4.3149,7.4727,-0.13806,-0.009163,-0.010079
0.24857,2.9028,-4.3934,7.4334,-0.10721,-0.0009163,-0.013134
0.27209,2.7851,-4.4914,7.3158,0.020769,0.014355,-0.0058032
0.29196,2.7655,-4.3934,7.3746,0.036041,0.031154,-0.007025
0.30554,2.9224,-4.3542,7.4531,0.03207,0.046426,-0.014661
0.30344,2.9224,-4.3149,7.4531,0.01741,0.053756,-0.0076358
0.31512,2.687,-4.3345,7.4923,0,0.05284,-0.0039706
0.32385,2.8047,-4.4914,7.4531,-0.015272,0.044899,-0.002138
0.32086,2.8635,-4.4522,7.3158,-0.06689,0.036652,-0.00061087
0.29514,2.9028,-4.3345,7.3746,-0.020159,0.030543,-0.0036652
0.27963,2.9616,-4.413,7.4334,-0.025962,0.024435,-0.0079412
0.26642,2.8635,-4.413,7.3746,-0.019548,0.025351,-0.0061087
0.23996,2.8047,-4.5111,7.3158,-0.01405,0.027184,-0.0082467
0.22839,2.7066,-4.5699,7.1785,-0.012828,0.026267,-0.009163
0.21558,2.8635,-4.4718,7.4334,-0.014355,0.0281,-0.010385
0.21353,2.6478,-4.3934,7.4923,-0.018631,0.029932,-0.010079
0.21948,2.9224,-4.3934,7.4531,-0.023824,0.027794,-0.0064141
0.22565,2.9616,-4.413,7.3746,-0.028405,0.024129,-0.0064141
0.2294,2.8635,-4.5699,7.2765,-0.012217,0.021991,0.00030543
0.24841,2.8635,-4.5503,7.3942,-0.025351,0.020159,0
0.2637,2.7655,-4.3934,7.3746,-0.028405,0.021991,-0.0015272
0.28116,2.687,-4.3934,7.3746,-0.023213,0.023518,-0.0009163
0.30939,2.7655,-4.4914,7.3158,-0.015272,0.025351,-0.00030543
0.33582,2.942,-4.4914,7.4531,-0.0097738,0.026267,0
0.35513,2.8635,-4.5111,7.3158,-0.0076358,0.026267,-0.0012217
0.37125,2.7851,-4.413,7.4727,-0.0076358,0.025656,-0.002138
0.37808,2.9224,-4.4718,7.3354,-0.029932,0.007025,-0.10873
0.40451,2.6086,-4.7856,7.4531,-0.031154,0.002138,-0.11759
0.4332,2.7655,-4.4914,7.5511,-0.029016,-0.0039706,-0.0097738
0.45663,2.7851,-4.5111,7.3746,0.00030543,-0.018937,-0.014661
0.45993,2.7459,-4.3542,7.4531,0.086743,-0.026878,-0.021686
0.46555,2.8047,-4.4522,7.3354,0.24374,-0.032681,-0.032681
0.47516,2.942,-4.7072,7.3158,0.40134,-0.016188,-0.043066
0.46194,2.7655,-4.4914,7.2765,0.52931,0.040623,-0.067806
0.46286,2.9224,-4.3934,7.3746,0.60628,0.10629,0.033292
0.46698,2.9224,-4.3934,7.3354,0.5681,0.14294,0.04948
0.46777,2.7066,-4.413,7.4531,0.42761,0.12431,-0.081551
0.47333,2.9028,-4.4718,7.3354,0.2303,0.078496,-0.052229
0.47513,2.9224,-4.4718,7.4334,0.015577,0.020159,-0.042761
0.47397,2.9224,-4.4914,7.4531,-0.17562,-0.037874,-0.029932
0.46725,2.942,-4.3934,7.4727,-0.32865,-0.078802,-0.0051924
0.46814,2.6478,-4.3934,7.5511,-0.43249,-0.094379,0.018021
0.46112,2.7851,-4.4914,7.4334,-0.47586,-0.088881,0.00030543
0.45367,2.9224,-4.3934,7.3746,-0.44929,-0.078191,-0.010079
0.4552,2.9028,-4.4914,7.3746,-0.36744,-0.061087,0.066584
0.43063,2.8635,-4.7856,7.4531,-0.25107,-0.031765,0.077885
0.37561,2.9616,-4.9622,7.3354,-0.11668,0.011912,0.07422
0.23987,3.0008,-5.4133,7.2373,0.019548,0.064446,0.054672
0.080719,2.942,-4.668,7.7865,0.13775,0.11545,0.03543
-0.10767,2.7851,-3.7265,7.8649,0.20067,0.16066,0.017104
-0.2999,2.6086,-2.9224,7.6296,-0.01741,0.010079,-0.0064141
-0.46436,2.6282,-3.1381,7.4531,-0.020159,0.012828,-0.0082467
-0.58932,2.7851,-3.7265,7.4334,-0.022602,0.0097738,-0.0042761
-0.63409,2.7851,-4.3149,7.3158,-0.024129,0.007025,-0.0045815
-0.62271,2.9616,-4.9426,7.1785,-0.024129,0.0076358,-0.0051924
-0.54105,3.0008,-5.1191,7.1392,-0.021686,0.0082467,-0.0054978
-0.43219,3.0793,-4.7856,7.3942,-0.022602,0.0079412,-0.0036652
-0.30823,3.0008,-4.4914,7.9042,-0.025045,0.0085521,-0.0039706
-0.17029,2.687,-4.1384,7.9434,-0.06689,0.024129,-0.054978
-0.025879,2.7851,-4.0207,7.6884,-0.089186,-0.0064141,-0.053145
0.10498,2.9028,-4.4914,7.4531,-0.11179,-0.02474,-0.0036652
0.21698,2.7459,-4.7268,7.3354,-0.096822,-0.028711,-0.0085521
0.3201,2.8047,-4.8053,7.1981,-0.052229,-0.034819,-0.02138
0.38724,2.7851,-4.5503,7.1785,-0.020464,-0.022297,-0.027184
0.44864,2.7851,-4.2561,7.4923,-0.0088575,0.016188,-0.036346
0.51559,2.9028,-4.158,7.5903,-0.044288,0.049786,-0.050091
0.54825,2.7851,-4.3149,7.5511,-0.03146,0.054978,-0.063835
0.5784,2.8635,-4.4718,7.4334,-0.13042,0.042761,-0.054978
0.60367,2.9028,-4.4914,7.4531,-0.19823,0.01741,-0.048564
0.62134,2.9028,-4.5111,7.1196,-0.16982,-0.03207,-0.045509
0.6409,2.8439,-4.4522,7.2373,-0.055589,-0.071166,-0.0562
0.64023,3.0597,-4.4914,7.4531,0.070555,-0.078191,-0.083689
0.62323,2.942,-4.4718,7.5903,0.0042761,-0.067806,-0.094684
0.58542,2.9028,-4.3934,7.4334,0.017715,-0.055283,-0.076053
0.5473,2.7655,-4.5111,7.4727,-0.039095,0.009163,-0.0079412
0.50436,2.7851,-4.4914,7.4531,-0.023213,0.023824,-0.0061087
0.46573,2.9028,-4.4914,7.3158,-0.0094684,0.036346,0.0045815
0.43777,3.0597,-4.3542,7.4531,0.0015272,0.044288,0.0024435
0.39404,2.7459,-4.3345,7.6492,0.0073304,0.047037,0.00061087
0.37039,2.9224,-4.6484,7.6296,0.012217,0.047647,0.0012217
0.33664,3.1774,-4.8053,7.61,0.019242,0.04948,-0.0015272
0.31168,3.3146,-4.7856,7.2373,0.02474,0.048564,-0.007025
0.28552,3.2166,-4.3345,7.1589,0.032681,0.047953,0.011912
0.23642,2.7851,-4.1776,7.3354,0.042761,0.050091,0.0027489
0.18726,2.8635,-4.7072,7.7473,0.044593,0.047037,-0.009163
0.15631,2.9224,-5.1191,7.8061,0.044899,0.044288,-0.011301
0.12155,3.2754,-4.9818,7.4531,0.051007,0.045509,-0.011301
0.11047,3.0989,-4.158,7.61,0.064446,0.056505,-0.014661
0.095184,2.7851,-3.8638,7.61,0.060476,0.058032,-0.010385
0.07431,2.6282,-3.8638,7.1589,0.031154,0.045204,0.0073304
0.073059,3.3146,-4.3345,6.492,-0.051618,-0.030238,0.0094684
0.10059,3.1774,-5.0798,7.0608,-0.007025,-0.012217,0.0033598
0.14401,2.8047,-4.7072,7.3158,0.038179,0.0073304,0.0030543
0.19733,2.8047,-4.8249,7.0019,0.073915,0.03146,0.0051924
0.23102,2.7066,-4.7856,6.492,0.086743,0.051618,0.0039706
0.25162,2.5497,-4.4914,6.8254,0.079107,0.060781,0.0042761
0.27066,2.2359,-4.0796,7.4923,0.056505,0.064141,0.012217
0.2807,1.7456,-4.1384,7.8061,0.035125,0.059865,0.016493
0.28607,2.4517,-5.1191,7.5903,0.14294,-0.03543,0.021686
0.27985,3.0008,-5.2564,7.2765,0.15027,-0.021991,0.0067195
0.2561,3.0989,-5.2368,7.4531,0.092852,-0.032987,0.062614
0.22141,3.0793,-4.668,7.5511,0.0064141,-0.057116,0.053451
0.19324,3.2754,-4.413,7.3158,-0.06017,-0.077885,0.040623
0.15973,3.4127,-4.5503,7.1196,-0.097738,-0.079412,0.025656
0.1218,3.3931,-4.8837,6.8647,-0.1295,-0.069639,0.020769
0.088928,3.4912,-5.0798,6.5312,-0.15944,-0.066584,0.022907
0.062744,3.5696,-5.1975,6.2959,-0.17013,-0.06017,-0.076969
0.028137,3.5892,-5.1191,6.3547,-0.15669,-0.039401,-0.099876
-0.0097961,3.5304,-5.1191,6.747,-0.11423,0,-0.011606
-0.038513,3.0793,-4.7072,7.3942,-0.040317,0.055589,-0.02138
-0.067657,2.942,-4.6484,7.3158,0.043982,0.10507,-0.033292
-0.089447,2.9224,-4.668,7.2373,0.099266,0.13897,-0.044899
-0.10693,2.8635,-4.4914,6.9823,0.091324,0.1518,-0.047037
-0.11066,2.9224,-4.7856,6.9627,0.0048869,0.11973,-0.053145
-0.11212,3.0793,-4.9818,7.0019,-0.065057,0.06353,-0.0073304
-0.096527,3.0597,-4.9818,7.0019,-0.047647,0.040928,-0.0030543
-0.079468,3.2362,-4.9229,7.0608,-0.045815,0.027794,-0.094379
-0.056122,3.1185,-4.6287,7.1196,-0.058338,0.0076358,-0.067195
-0.027557,3.0204,-4.7072,7.1392,-0.077274,-0.010996,-0.04215
-0.0097351,3.0989,-4.7072,7.0216,-0.093768,-0.025656,-0.029322
0.046814,3.2166,-4.8249,7.1196,-0.097738,-0.036041,-0.019242
0.10245,3.2362,-4.8837,6.9235,-0.083689,-0.039401,-0.011301
0.13693,3.1774,-4.9229,6.8647,-0.12706,-0.043066,-0.040012
0.19907,2.8635,-4.7072,7.0019,-0.073304,-0.033598,-0.035736
0.28342,2.942,-4.7072,6.8647,-0.02474,-0.012828,0.0067195
0.38531,3.0793,-4.6484,7.0804,0.0094684,0.012217,-0.0045815
0.47192,2.8439,-4.1776,7.4334,0.030543,0.032681,-0.014355
0.58615,2.8635,-4.1972,7.8061,0.030543,0.047953,-0.027794
0.68671,2.8635,-4.0796,8.0022,-0.15302,0.058643,-0.042761
0.78976,3.0793,-4.158,7.8453,-0.16066,0.060476,-0.046426
0.87582,3.1774,-4.2561,7.61,-0.10263,-0.0051924,0.00030543
0.92569,3.2754,-4.5699,7.4531,-0.12339,-0.013439,0.0027489
0.97574,3.0597,-4.668,7.3158,-0.15516,-0.028711,-0.0039706
0.99512,3.1577,-4.5699,7.3354,-0.18418,-0.040012,-0.0027489
1,3.0597,-4.4914,7.3158,-0.19761,-0.045509,-0.0051924
1,2.8047,-4.5699,7.4531,-0.19426,-0.047037,-0.0061087
1,3.0008,-4.5699,7.4531,-0.17165,-0.043371,-0.00061087
1,2.9028,-4.3934,7.3746,-0.13256,-0.037874,0.0015272
1,2.9616,-4.6091,7.3158,0.0079412,-0.033292,0.029322
1,3.0793,-4.6091,7.2961,0.011606,-0.027794,0.035125
0.97366,2.9224,-4.6484,7.3158,0.00061087,-0.018326,0.0067195
0.95319,2.8635,-4.7072,7.3746,-0.014966,-0.012217,0.018937
0.91245,3.0793,-4.766,7.3158,-0.025351,-0.012828,0.03207
0.85297,2.9616,-4.4522,7.2373,-0.017715,-0.018021,0.03207
0.79416,3.0008,-4.5699,7.2765,-0.079107,-0.028405,0.029016
0.71875,2.7459,-4.5699,7.5903,-0.02474,-0.036652,0.028711
0.64481,3.0008,-4.4914,7.5903,0.018021,-0.039706,0.012523
0.57529,2.8635,-4.4718,7.2373,0.0027489,-0.043371,0.012828
0.50314,3.0793,-4.4914,7.0608,-0.031765,-0.049175,0.041844
0.42645,3.0597,-4.7856,7.0608,-0.069028,-0.058338,0.041844
0.36325,3.3146,-4.8837,7.0019,-0.095295,-0.068417,0.036041
0.29465,3.1774,-4.8837,7.1785,-0.12187,-0.075747,0.032987
0.23767,3.3146,-4.7856,7.1589,-0.0012217,-0.07086,0.027794
0.18948,3.0793,-4.5699,7.1589,0.012828,-0.055894,0.016188
0.12671,3.0793,-4.3934,7.2373,0.030849,0.046731,-0.12981
0.097046,2.9616,-4.8837,7.3746,-0.033292,0.028405,-0.16646
0.082764,2.9224,-4.6484,7.0608,-0.089797,0.0054978,0.010385
0.052124,3.1774,-4.668,7.0608,-0.096517,-0.0048869,0.0097738
0.054016,3.0204,-4.7072,7.0019,-0.044899,-0.021686,0.0058032
0.047272,3.0008,-4.766,7.1196,0.13103,-0.037568,-0.0088575
0.049988,3.0008,-4.7072,7.1392,0.48228,0.007025,-0.0281
0.062775,3.1774,-4.8249,7.1589,0.93462,0.14966,-0.067806
0.074707,3.0597,-4.6876,7.1392,1.3011,0.37018,-0.012217
0.081482,3.0008,-4.7856,7.2765,1.1906,0.48778,0.040928
0.093292,2.942,-4.4914,7.3158,1.014,0.46212,-0.16157
0.11099,3.0597,-4.413,7.3746,0.7761,0.36499,-0.15699
0.11148,2.7851,-4.4718,7.3354,0.51221,0.22785,-0.15088
0.1134,2.9616,-4.6484,7.5903,0.23335,0.087965,-0.13592
0.10785,3.2558,-4.5699,7.2373,-0.034208,-0.029627,-0.10049
0.087708,3.0008,-5.2564,6.8058,-0.25779,-0.10965,-0.055283
0.026031,3.6873,-6.3939,5.8252,-0.45357,-0.15241,0.087659
-0.088501,3.7069,-5.6486,7.1589,-0.61361,-0.17287,0.054672
-0.23544,2.7851,-4.0011,8.6887,-0.70066,-0.17104,0.087659
-0.42114,2.2948,-2.6086,8.8652,-0.72021,-0.15974,0.11759
-0.61188,2.4517,-2.2948,8.2572,-0.68661,-0.14813,0.13958
-0.78012,2.6086,-2.432,7.5903,-0.60384,-0.12981,0.15272
-0.90283,2.7851,-3.0793,7.3158,-0.46517,-0.099571,0.14783
-0.95303,2.8439,-4.0207,7.2373,-0.281,-0.048869,0.1237
-0.94052,2.9224,-4.7072,7.1785,-0.10446,0.027184,-0.011606
-0.87152,3.0989,-5.2956,7.0608,0.029322,0.09499,-0.010079
-0.77371,3.4127,-5.2368,7.3746,0.083383,0.13561,0.028711
-0.65561,3.0597,-4.6484,7.6296,0.043677,0.14233,0.010996
-0.54752,2.7851,-3.9423,8.0022,-0.065363,0.11362,-0.00030543
-0.42441,2.9224,-3.9227,7.8649,-0.20586,0.057116,-0.0082467
-0.31714,3.0597,-4.0796,7.4531,-0.34147,-0.010079,-0.0064141
-0.21762,2.7851,-4.6287,7.2961,-0.4444,-0.067806,-0.0067195
-0.12271,3.0008,-5.0995,7.0216,-0.03207,0.0088575,-0.0061087
-0.031219,2.9224,-5.0995,7.1196,-0.029627,0.011301,-0.0082467
0.078949,3.0793,-4.9229,7.0608,-0.029932,0.0073304,-0.012828
0.17813,2.9224,-4.4718,7.1785,-0.034208,0.0036652,-0.012217
0.24847,2.7851,-4.2561,7.5903,-0.040012,0.0009163,-0.01069
0.32947,2.942,-4.3934,7.4531,-0.050396,-0.0009163,-0.011301
0.38452,3.0008,-4.6484,7.2961,-0.058948,-0.0027489,-0.0079412
0.44171,3.0008,-4.668,7.2373,-0.062919,-0.0042761,-0.0036652
0.48822,3.0793,-4.668,7.2373,-0.013744,0,-0.012828
0.52054,3.0597,-4.4914,7.1589,0.0027489,0.0076358,-0.015882
0.5451,2.9224,-4.3934,7.3158,0.0079412,0.018631,-0.007025
0.56067,3.0793,-4.7856,7.3746,0.0054978,0.027184,-0.0073304
0.57504,3.0793,-4.5111,7.4531,-0.0027489,0.031154,-0.0061087
0.58197,3.0008,-4.5111,7.2765,-0.012523,0.034208,-0.0073304
0.59552,3.0793,-4.5111,7.2373,-0.0562,0.03207,-0.010079
0.59845,3.0008,-4.5111,7.2961,-0.036346,0.024129,-0.011912
0.59485,2.7851,-4.6484,7.3158,-0.0281,0.014966,-0.13714
0.59424,3.0989,-4.8053,7.2373,-0.026573,0.0097738,-0.15241
0.5842,3.0793,-4.4914,7.3746,-0.0039706,0.0061087,-0.018937
0.58292,2.9028,-4.5503,7.3158,0.11087,-0.002138,-0.018631
0.57281,3.2166,-4.766,7.1785,0.38851,-0.035125,-0.01741
0.56601,3.1185,-4.7072,7.2373,0.75808,-0.085827,-0.019548
0.54413,3.0793,-4.6091,7.2765,-0.019242,-0.075747,-0.039095
0.53409,2.9224,-4.6091,7.1589,-0.023824,0.026878,-0.090408
0.5192,3.0008,-4.4914,7.2961,-0.050702,0.010996,-0.0082467
0.49326,3.0008,-4.6484,7.3158,-0.058643,0.0048869,-0.010996
0.47046,3.0008,-4.7072,7.1785,-0.058643,-0.00061087,-0.0088575
0.43674,3.0597,-5.1191,7.1589,-0.052229,-0.0015272,-0.0082467
0.3519,3.4127,-6.2763,6.4332,-0.044288,0.002138,-0.0061087
0.19525,3.5696,-5.8252,7.1589,-0.039095,0.0054978,-0.0067195
0.0098572,2.6282,-4.0207,8.1199,-0.034819,0.0067195,-0.0073304
-0.19009,2.4517,-2.5105,8.1787,-0.032681,0.0067195,-0.007025
-0.39029,2.7851,-1.824,7.8649,0.67775,0.21991,0.33017
-0.55927,2.5301,-2.6086,7.963,0.72296,0.26817,0.31215
-0.65158,2.6282,-3.0008,8.4337,0.72815,0.32681,0.21289
-0.68582,2.7851,-4.1384,8.6299,0.67623,0.39248,0.25076
-0.65591,3.6873,-6.1782,7.1589,0.56841,0.43891,0.2926
-0.58527,4.7464,-7.1589,6.2959,0.43402,0.44715,0.32865
-0.48285,4.3149,-5.884,6.5116,0.31551,0.43127,0.34697
-0.35678,3.6873,-4.0207,7.7865,0.23396,0.41172,0.34422
-0.21194,3.3931,-3.4519,8.1787,0.20342,0.40592,0.14111
-0.055725,3.5696,-4.1776,7.5511,0.23671,0.41569,0.098655
0.1319,4.158,-5.0406,6.9039,0.30635,0.43066,0.2981
0.34781,4.1972,-4.7856,7.0019,0.38087,0.43982,0.28955
0.5694,4.7268,-2.2751,7.6492,0.46976,0.45021,0.27581
0.75644,4.5111,-2.0594,8.0807,0.54672,0.46884,0.23915
0.90094,3.7069,-2.7459,8.0807,0.56352,0.48655,0.20036
0.99573,3.8638,-3.0793,7.7473,0.51526,0.46792,0.17226
1,4.1776,-3.3735,7.4923,0.13683,0.41294,0.072082
1,3.8638,-3.5696,7.6296,0.47434,0.33262,0.086743
1,3.4912,-3.5108,7.7669,0.37874,0.24343,0.049175
1,3.2558,-3.6285,7.4727,0.3146,0.18295,0.0067195
1,2.8047,-3.2362,7.2373,0.29749,0.15149,-0.011606
1,2.5497,-2.8832,7.3746,0.29413,0.12889,-0.0024435
1,1.824,-3.0008,7.4531,0.26909,0.10476,0.026573
1,1.6867,-3.5304,7.61,0.21869,0.071777,0.054062
1,1.5298,-4.0207,7.61,0.59315,0.04215,0.14905
1,1.1964,-4.668,7.8649,0.46945,0.0015272,0.17898
1,0.90221,-4.9622,7.9434,0.3992,0.00030543,-0.059559
1,0.8826,-4.4914,8.7083,0.37324,0.026267,-0.044593
1,0.5884,-3.7658,9.0221,0.38301,0.067195,-0.025656
1,0.92183,-3.1381,8.6887,0.42028,0.11057,0.018021
1,1.118,-2.432,8.3749,0.47739,0.14691,0.070555
1,1.0787,-2.0006,8.3749,0.55008,0.17929,0.11637
1,1.6867,-2.0006,8.8652,0.3543,0.1179,0.071777
1,1.9221,-2.4517,9.0417,0.17257,0.16066,0.051618
0.98965,2.4517,-3.4519,8.5318,-0.094379,0.14172,-0.082161
0.97919,3.1185,-3.8442,8.1199,-0.34208,0.085216,0.057116
0.98019,2.8635,-3.4127,8.2572,-0.49052,0.0045815,0.073609
0.98569,2.4517,-2.687,8.5318,-0.52962,-0.057421,0.061087
0.97995,2.1575,-2.4517,8.7083,0.26939,-0.10201,0.066584
0.97592,1.7456,-2.7459,8.7083,0.40317,-0.11301,0.082772
0.95447,2.2751,-3.1577,8.1787,-0.24557,-0.10599,-0.10324
0.93713,2.432,-3.2362,8.0022,-0.13561,-0.084605,-0.12004
0.90302,2.1575,-3.1381,8.4141,-0.083078,-0.07025,0.054367
0.85074,1.9221,-2.9028,8.3945,-0.078496,-0.058643,0.037263
0.80096,1.7456,-2.8439,8.6299,-0.13714,-0.04215,0.016188
0.70224,1.824,-2.6086,8.5318,-0.21197,-0.043677,-0.0051924
0.60638,1.9809,-2.5301,8.3945,-0.43402,-0.060781,-0.034514
0.50052,2.0006,-2.687,8.5514,-0.34239,-0.075747,-0.065973
0.38242,2.1182,-2.8243,8.8456,0.28375,0.14752,-0.040012
0.27573,2.1575,-2.8832,8.7083,0.21594,0.11698,-0.040012
0.15494,2.0594,-2.5693,9.1202,0.15272,0.097738,-0.01405
0.058075,2.2751,-2.5301,9.3163,0.10873,0.081856,-0.010079
-0.013062,2.687,-2.4713,8.316,0.081551,0.065057,-0.011301
-0.057617,2.6086,-3.0008,7.7473,0.068722,0.049786,-0.016188
-0.080658,2.2948,-2.7459,8.7279,0.071777,0.044288,-0.023213
-0.060547,1.3729,-1.8044,9.1202,0.093462,0.04215,-0.031765
-0.054718,1.4906,-1.0591,8.7868,0.058948,0.041539,-0.086132
-0.038269,1.5495,-1.8044,8.5514,-0.037263,0.035125,-0.13378
-0.033752,1.5495,-3.2362,8.4729,-0.1124,-0.00030543,-0.033292
-0.011658,1.6083,-3.8246,8.6299,-0.13317,-0.055894,-0.042761
0.0099182,1.6867,-3.5304,8.7083,-0.037568,-0.08491,-0.071471
0.039398,1.4318,-3.295,8.6299,0.15302,-0.07025,-0.089492
0.077423,1.3337,-3.0008,8.3357,0.11912,-0.011301,-0.07422
0.1188,1.3925,-2.687,8.5514,0.11637,0.065057,-0.067501
0.16367,0.92183,-2.9224,8.8064,-0.92974,-0.19181,0.023824
0.23523,0.74531,-3.8246,8.316,-0.87659,-0.16463,0.0024435
0.32858,1.3337,-3.8638,8.2572,-0.80023,-0.12553,-0.013134
0.41599,1.216,-3.8834,8.1787,-0.72113,-0.089186,-0.0085521
0.50699,1.4318,-3.3931,7.7865,-0.63927,-0.069028,0.0018326
0.60672,1.7652,-2.687,7.8453,-0.55772,-0.067195,0.022907
0.67828,2.3732,-3.0793,8.316,-0.48136,-0.072388,0.040012
0.75067,2.9224,-3.6088,8.4141,-0.38607,-0.081551,0.040012
0.80609,3.7461,-4.0403,7.8649,0.25137,-0.021075,0.0054978
0.84061,4.1188,-3.7069,7.3158,0.39065,0.0082467,0.023824
0.83929,4.3542,-3.9423,7.2177,0.51343,0.043066,-0.024435
0.85718,4.3738,-3.7658,7.3158,0.62003,0.080634,-0.040928
0.83072,4.5111,-3.7069,7.9434,0.70738,0.10629,-0.043371
0.77151,4.3542,-3.55,7.9238,0.79138,0.12614,-0.01741
0.67923,4.5111,-3.5108,7.7865,0.86529,0.16341,0.0076358
0.52591,4.5111,-3.3146,7.6296,0.91721,0.22938,0.009163
0.3392,4.5111,-2.687,7.7473,0.78405,0.28344,-0.071777
0.10373,3.5892,-2.7459,9.2575,0.54795,0.2193,-0.015882
-0.14401,2.7655,-2.9028,9.3359,0.32803,0.13225,0.040623
-0.40286,2.8439,-3.0793,8.0022,0.15882,0.033903,0.0027489
-0.67932,2.6086,-2.9028,7.6884,0.10232,-0.065668,-0.050091
-0.93069,2.1575,-2.4517,8.316,0.14875,-0.1069,-0.087354
-0.99997,1.8633,-2.3144,8.0807,0.20769,-0.069028,-0.11759
-0.99997,2.4517,-2.6086,8.1199,0.20403,-0.0082467,-0.1182
-0.99997,2.8635,-3.197,7.9238,0.11301,0.014966,-0.0088575
-0.99997,3.0793,-3.6285,7.8453,-0.037568,-0.0039706,-0.014966
-0.99997,3.1774,-3.6873,7.2765,-0.219,-0.054978,0.018937
-0.99997,2.942,-3.6677,7.8061,-0.4331,-0.11057,0.034514
-0.99997,3.0204,-3.8638,8.1787,-0.6463,-0.15608,0.047342
-0.99997,3.2558,-4.3149,7.9238,-0.81367,-0.1799,0.052229
-0.99997,3.1774,-4.7268,7.6884,-0.90866,-0.19823,0.03543
-0.99997,3.4323,-4.5111,7.5511,-0.94104,-0.20464,0.010385
-0.99997,3.2558,-3.9423,7.6884,-0.1066,0.0082467,0.0009163
-0.99997,2.9224,-3.4519,7.7865,-0.12401,0.009163,-0.0076358
-0.99997,2.9224,-3.3735,8.0022,-0.12034,0.010996,-0.032987
-0.99997,2.7851,-3.6873,8.0218,-0.10385,0.012828,-0.025962
-0.99997,2.8439,-3.9227,7.7865,-0.078496,0.022907,-0.018021
-0.99997,2.942,-4.0796,7.4923,-0.059559,0.034514,-0.014661
-0.96469,3.2558,-3.9815,7.6296,-0.061087,0.037874,-0.0085521
-0.87881,3.2558,-3.8246,7.708,-0.082467,0.032376,0.00061087
-0.80429,3.2558,-3.7658,7.9042,-0.10996,0.025045,-0.023824
-0.75327,3.2166,-3.7265,7.8061,-0.1292,0.024129,-0.015272
-0.70807,3.0597,-3.8638,7.6884,-0.14569,0.027184,-0.010385
-0.67581,3.0793,-3.9423,7.7669,-0.16371,0.025656,-0.010385
-0.64459,3.0597,-3.8638,7.8061,-0.17776,0.017715,-0.01405
-0.62558,3.0989,-3.8246,7.7865,-0.17685,0.010996,-0.016799
-0.59586,3.0204,-3.8638,7.8061,-0.15913,0.013134,-0.019853
-0.58966,3.1185,-3.7658,7.7473,-0.13347,0.019242,-0.023824
-0.56967,3.0204,-3.7658,7.61,-0.071166,0.027489,-0.0045815
-0.55569,3.0008,-3.9423,7.7865,-0.069944,0.029932,-0.0018326
-0.53082,3.0597,-4.0403,7.5511,-0.076664,0.028405,-0.0076358
-0.50461,3.2558,-4.0207,7.6296,-0.081245,0.025351,-0.0094684
-0.47415,3.1774,-4.1384,7.6296,-0.078802,0.018021,-0.012217
-0.43137,2.9616,-4.1384,7.5903,-0.074831,0.012828,-0.010996
-0.40887,3.1185,-4.0207,7.61,-0.10568,0.010385,-0.0085521
-0.38156,3.0008,-4.0403,7.5315,-0.081856,0.0094684,-0.0064141
-0.35629,3.1774,-4.0796,7.6492,-0.046426,0.0088575,-0.0097738
-0.33569,3.0597,-4.158,7.4727,-0.024435,0.0088575,-0.01069
-0.30176,3.2754,-4.0207,7.4923,0.002138,0.0085521,-0.0030543
-0.28128,3.0008,-4.0796,7.5511,0.029627,0.013439,-0.0073304
-0.26563,3.1774,-3.9423,7.7865,0.056505,0.023518,-0.0094684
-0.25626,3.0597,-4.0011,7.7473,0.073915,0.032681,-0.0076358
-0.23993,3.2558,-4.1776,7.4923,-0.067501,0.038179,-0.0042761
-0.24036,3.2558,-4.0796,7.61,-0.058338,0.040928,-0.0067195
-0.24622,3.0793,-4.0011,7.61,-0.12523,0.016493,-0.037263
-0.24539,3.0008,-4.158,7.9434,-0.026878,0.048258,-0.040317
-0.25372,3.0989,-3.7658,7.7865,0.073609,0.07422,0.027184
-0.26028,2.9616,-3.6677,8.0022,0.15608,0.085216,0.016799
-0.27328,2.9224,-3.55,8.0807,0.20769,0.095295,-0.0024435
-0.30865,2.8635,-3.4519,8.1787,0.21564,0.089797,-0.022602
-0.35382,3.0008,-3.7658,7.5511,0.18692,0.061087,-0.029016
-0.42194,2.9616,-3.8246,7.8649,0.13836,0.03207,-0.027794
-0.51013,2.942,-3.55,7.61,0.035736,0.007025,0.007025
-0.56906,3.0008,-3.4519,7.9042,-0.029016,-0.012217,0.0094684
-0.64905,2.8635,-3.7265,7.6884,-0.085827,-0.018326,-0.029322
-0.69977,3.1774,-4.0403,7.5511,-0.12034,-0.020769,-0.018021
-0.75244,2.9616,-4.1776,7.5511,-0.13317,-0.020464,-0.0076358
-0.79269,3.0008,-4.2953,7.7669,-0.13653,-0.014355,-0.0018326
-0.82504,3.1774,-4.2561,7.4334,-0.14203,-0.0067195,0.0036652
-0.85129,3.2362,-4.2561,7.61,-0.15913,-0.0048869,0.0061087
-0.85953,2.9616,-3.8638,7.8061,-0.16799,-0.0024435,0.0079412
-0.85773,3.0793,-3.6873,8.1003,-0.19548,-0.0039706,0
-0.84158,3.0989,-3.6677,7.9434,-0.208,-0.012523,0.013439
-0.80106,3.2166,-3.6088,7.708,-0.20006,-0.0281,0.02138
-0.76422,2.9616,-3.7854,7.61,-0.16646,-0.029932,0.017104
-0.6972,2.9224,-3.8834,7.7669,-0.11057,-0.014661,0.0051924
-0.63004,2.942,-3.8834,7.8649,-0.069639,0.0009163,-0.010079
-0.54807,3.0008,-3.7069,7.8061,-0.039401,0.014966,-0.0024435
-0.46899,2.9224,-4.0207,7.9042,-0.028405,0.018326,-0.025351
-0.38651,3.2362,-4.0207,7.5511,-0.034514,0.020769,-0.024435
-0.31152,2.9616,-4.0796,7.6492,-0.050091,0.0076358,0.0058032
-0.2348,3.0793,-3.9815,7.5511,-0.050091,-0.0094684,0.01741
-0.16205,3.0793,-3.8442,7.7473,-0.021686,-0.019242,0.015882
-0.10345,2.9224,-3.9423,7.7473,0.024129,-0.015882,0.0061087
-0.054016,3.0008,-4.3934,7.5511,0.098655,-0.0012217,0.0061087
-0.057953,3.1185,-4.3345,7.3746,0.1857,0.021686,-0.0045815
-0.072937,3.0793,-4.158,7.7669,0.77213,0.19731,-0.058338
-0.10718,3.1774,-3.7854,7.8453,0.75931,0.20953,-0.017104
-0.16437,3.1774,-3.6873,7.7473,0.66126,0.18112,-0.13042
-0.2417,3.2362,-3.8638,7.8061,0.49327,0.10782,-0.099266
-0.35699,3.2558,-3.8638,7.4923,0.30116,0.025656,-0.068417
-0.47467,3.0008,-3.55,8.2768,0.13744,-0.029322,-0.06353
-0.60049,3.1185,-3.4519,7.7669,0.029322,-0.042761,-0.073609
-0.68948,3.0793,-3.6285,7.5903,-0.029016,-0.029627,-0.078496
-0.75644,3.0793,-3.7658,7.8061,-0.19181,-0.01741,0.069944
-0.80298,2.9224,-3.6873,7.7865,-0.28527,-0.011606,0.047342
-0.83279,2.9224,-3.4127,7.7669,-0.39248,-0.010996,0.015272
-0.85953,2.7851,-3.7658,7.7865,-0.50244,-0.014661,0.033292
-0.86392,2.942,-4.3934,7.61,-0.59987,-0.025351,0.044899
-0.84525,3.2558,-4.8249,7.3158,-0.65118,-0.045509,0.055894
-0.83142,3.5892,-4.8837,7.0608,-0.071166,-0.071471,0.069028
-0.8208,3.0008,-4.8249,7.1589,-0.12034,-0.095295,0.076969
-0.8483,3.4323,-4.668,7.7669,-0.51038,-0.10629,-0.0048869
-0.84064,3.6285,-4.0207,8.1787,-0.42272,-0.1066,-0.01405
-0.86014,3.2166,-3.0793,8.5514,-0.36652,-0.084605,0.021686
-0.89502,2.9224,-2.6282,8.0218,-0.3488,-0.059254,0.010996
-0.91876,2.7655,-3.0008,7.5903,-0.36133,-0.047647,0.017715
-0.91556,2.6478,-3.2558,7.5903,-0.3882,-0.053145,0.018021
-0.89862,2.6478,-3.3539,7.7669,-0.64935,-0.066279,0.013134
-0.84225,3.0008,-3.2362,7.8061,-0.59956,-0.082772,0.0058032
-0.74435,2.9224,-3.3735,7.7473,-0.37354,-0.13653,-0.12156
-0.61734,3.0793,-3.7658,7.8649,-0.22327,-0.079718,-0.13408
-0.48181,3.1185,-4.2953,7.8061,-0.040012,0.0039706,0.029932
-0.34766,3.5304,-4.5503,7.8453,0.14844,0.087965,0.018326
-0.21124,3.2754,-4.1776,7.7473,0.32315,0.12645,0.019242
-0.088165,3.2558,-3.9423,7.6492,0.48289,0.12981,0.019853
0.011505,3.0793,-4.0796,7.4727,0.61056,0.14447,-0.012523
0.089447,3.2558,-4.2561,7.2373,0.70983,0.17196,-0.076969
0.14563,3.1577,-4.3542,7.2373,-0.018937,-0.002138,-0.0012217
0.20465,3.1774,-4.8249,7.3746,-0.016493,-0.0064141,-0.0015272
0.25403,3.3146,-4.5111,7.2961,-0.010079,-0.0094684,-0.012828
0.28561,3.4127,-4.4914,7.2765,-0.007025,-0.011606,-0.0079412
0.31012,3.2558,-4.3149,7.4334,-0.012828,-0.0097738,-0.0009163
0.34344,3.3931,-4.2561,7.4727,-0.020159,-0.011912,0.002138
0.34647,3.3146,-4.3345,7.3158,-0.023213,-0.014355,0.0015272
0.36798,3.1185,-4.4914,7.5511,-0.024129,-0.012523,0
0.37466,3.1774,-4.3542,7.3158,-0.020464,-0.0054978,0.002138
0.37833,3.3146,-4.6287,7.2765,-0.018937,0,0
0.39142,3.2754,-4.4914,7.3746,-0.014661,0.0039706,0.0027489
0.38098,3.3931,-4.3934,7.3746,-0.0085521,0.0088575,0.0076358
0.38565,3.4127,-4.3345,7.3158,-0.0094684,0.014355,0.009163
0.35431,3.3146,-4.413,7.1392,-0.014355,0.016493,0.010385
0.36447,3.3931,-4.3149,7.2373,-0.020769,0.018937,0.01069
0.36215,3.2362,-4.3934,7.3158,-0.034819,0.018631,0.0064141
0.35477,3.3931,-4.4522,7.3158,-0.053145,-0.0097738,0.0036652
0.33865,3.3146,-4.4718,7.3158,-0.043677,-0.007025,0.0024435
0.3356,3.2558,-4.5699,7.3158,-0.033292,-0.00030543,0.007025
0.3324,3.4323,-4.3934,7.1785,-0.021686,0.012523,0.0012217
0.31992,3.3931,-4.4522,7.2373,-0.015272,0.018326,0.0018326
0.30817,3.1774,-4.4522,7.1785,-0.01405,0.023213,0.0054978
0.27094,3.3343,-4.4522,7.2961,-0.021075,0.026573,0.0051924
0.2836,3.1774,-4.4914,7.3354,-0.03146,0.024129,0.0039706
0.27747,3.2558,-4.3934,7.2373,-0.043677,0.01741,-0.021686
0.2442,3.1774,-4.3934,7.3158,-0.0562,0.011606,-0.01741
0.22961,3.1774,-4.3934,7.3354,-0.06353,0,-0.0042761
0.20325,3.2558,-4.4718,7.1785,-0.065668,-0.007025,-0.010079
0.18478,3.3931,-4.2953,7.2961,-0.062614,-0.0076358,-0.013744
0.16251,3.0989,-4.3934,7.3746,-0.055283,-0.0064141,-0.020769
0.13278,3.4912,-4.7072,7.2373,-0.045815,-0.0018326,-0.023824
0.116,3.4127,-4.4718,7.3158,-0.034819,-0.00061087,-0.023213
0.094849,3.1774,-4.5699,7.4334,-0.020464,-0.00030543,-0.01405
0.091064,3.3146,-4.5699,7.3158,-0.020769,0.0076358,-0.015882
0.099213,3.4127,-4.4914,7.2961,-0.025045,0.012523,-0.0012217
0.088684,3.2558,-4.4914,7.0608,-0.028405,0.018326,-0.0048869
0.075104,3.4127,-4.3542,7.2177,-0.029016,0.023824,-0.009163
0.057495,3.2166,-4.3345,7.2177,-0.027184,0.029627,-0.0088575
0.026611,3.2362,-4.413,7.2373,-0.035125,0.03207,-0.0094684
0.034546,3.4127,-4.4914,7.1589,-0.025962,0.034514,-0.012217
0.023315,3.4127,-4.4914,7.3158,-0.013439,0.040317,-0.0064141
0.0090637,3.4127,-4.4914,7.3354,-0.023518,0.044593,-0.0036652
-0.0023193,3.2558,-4.6091,7.2177,-0.021686,0.041233,-0.014355
-0.01178,3.4716,-4.766,7.1589,-0.019548,0.036346,-0.013134
-0.031403,3.2754,-4.4914,7.3158,-0.015882,0.036346,-0.016493
-0.031311,3.1185,-4.4522,7.2373,-0.011606,0.036041,-0.017104
-0.048004,3.2558,-4.3542,7.2373,-0.0082467,0.03543,-0.012217
-0.050873,3.3343,-4.4718,7.2765,-0.0088575,0.033903,-0.0094684
-0.060883,3.4127,-4.3934,7.3158,-0.034819,-0.00061087,0.0018326
-0.060944,3.3146,-4.4914,7.1785,-0.031765,-0.00061087,-0.0012217
-0.054077,3.4912,-4.5111,7.1785,-0.030238,0.0058032,-0.0045815
-0.053802,3.4127,-4.4522,7.2373,-0.027184,0.0051924,-0.0079412
-0.035461,3.2558,-4.4914,7.0216,-0.026267,0.0012217,-0.0085521
-0.033142,3.2558,-4.3934,7.1196,-0.010996,0.0024435,-0.0097738
-0.024902,3.4127,-4.4914,7.2765,0.0024435,0.0018326,-0.014355
-0.022186,3.4127,-4.413,7.1589,0.0039706,0.0039706,-0.0088575
-0.016022,3.3735,-4.5111,7.2373,-0.02138,-0.00030543,-0.0033598
-0.014954,3.4127,-4.4718,7.1589,-0.030849,-0.0054978,-0.0033598
-0.0097656,3.5304,-4.413,7.1589,-0.035125,-0.0067195,-0.0024435
-0.0063782,3.5304,-4.4522,7.2373,-0.039401,-0.0079412,0.00030543
-0.0074768,3.3931,-4.4914,7.2373,-0.041539,-0.007025,-0.002138
0.0084534,3.1774,-4.4914,7.3158,-0.040928,-0.0051924,-0.0048869
0.016022,3.4127,-4.4718,7.2961,0.0009163,-0.0048869,-0.0061087
0.016144,3.2558,-4.3934,7.1785,-0.0085521,-0.0042761,-0.0048869
0.028351,3.3146,-4.4914,7.2373,-0.013744,0.025351,0.0094684
0.053955,3.3146,-4.7856,7.3158,-0.013134,0.020159,0.0076358
0.061707,3.2754,-4.6091,7.0608,-0.01741,0.019548,0.012217
0.06189,3.55,-4.5503,7.1589,-0.018937,0.020159,0.016188
0.071075,3.4323,-4.4914,7.3158,-0.019548,0.025351,0.016799
0.089233,3.2362,-4.3934,7.2765,-0.021075,0.030849,0.01405
0.10141,3.3343,-4.4914,7.1785,-0.016188,0.031154,0.011606
0.092743,3.3343,-4.5111,7.1785,0.00030543,0.03543,0.012217
0.085571,3.3146,-4.5111,7.2373,-0.041539,0.032376,0.0027489
0.076477,3.2558,-4.4522,7.1196,-0.034208,0.031154,0.002138
0.066803,3.2754,-4.3934,7.2177,-0.037263,0.029932,0.0045815
0.054626,3.4716,-4.5699,7.1589,-0.044288,0.02474,0.0064141
0.04599,3.3146,-4.7072,7.1196,-0.058338,0.018021,0.010079
0.059967,3.4912,-4.4914,7.1785,-0.07025,0.014661,0.0073304
0.034698,3.4127,-4.4914,7.3158,-0.072082,0.012828,0.0054978
0.014404,3.3735,-4.413,7.2765,-0.062919,0.015272,0.0058032
0.0028687,3.2362,-4.5699,7.0216,-0.044593,0.025351,0.0042761
-0.0083618,3.4912,-4.5503,7.1785,-0.037568,0.03879,0.0051924
-0.017944,3.2558,-4.6484,7.1589,-0.029016,0.048869,0.0036652
-0.043274,3.4912,-4.8053,7.1392,-0.018021,0.051924,0.0054978
-0.042633,3.2754,-4.5503,7.2373,-0.0085521,0.050091,0.0051924
-0.064972,3.2362,-4.5699,7.3354,-0.0073304,0.048564,0.0045815
-0.089935,3.3931,-4.4522,7.1785,-0.014966,0.043066,0.0036652
-0.10559,3.1577,-4.4914,7.2373,-0.033292,0.033598,0.0024435
-0.12723,3.2558,-4.668,7.1196,-0.056505,0.023213,0.0079412
-0.15738,3.2362,-4.7268,7.2373,-0.069639,0.013439,0.0079412
-0.17804,3.4127,-4.8641,7.2373,-0.07086,0.013134,0.0045815
-0.20074,3.1185,-4.5111,7.3158,-0.061392,0.013744,0.0018326
-0.22571,3.2558,-4.668,7.0608,-0.046731,0.017104,-0.00061087
-0.24991,3.2362,-4.5699,7.1589,-0.033292,0.025045,0.0012217
-0.2738,3.4127,-4.7072,7.1392,-0.024435,0.028711,0.0033598
-0.28888,3.2166,-4.6091,7.0608,-0.018937,0.028405,0.007025
-0.3205,3.3343,-4.4718,7.3158,0.012828,0.010385,-0.011606
-0.32446,3.2166,-4.4914,7.1196,-0.0064141,0.0009163,-0.011606
-0.30777,3.3931,-4.6091,7.1589,-0.022907,-0.00030543,-0.002138
-0.29547,3.4127,-4.8249,7.0608,-0.027794,0.00030543,-0.0036652
-0.30365,3.3146,-4.6091,7.1589,-0.023824,0.0024435,-0.0018326
-0.30026,3.3146,-4.5699,7.1785,-0.018937,0.0048869,-0.00030543
-0.29803,3.3146,-4.4914,7.1589,-0.014966,0.0064141,-0.0027489
-0.2872,3.0793,-4.6091,7.2765,-0.0082467,0.0082467,-0.0082467
-0.29276,3.3931,-4.7856,7.1785,-0.01405,0.0088575,-0.019242
-0.28061,3.3146,-4.5699,7.2373,-0.019853,0.0079412,-0.014355
-0.27597,3.2166,-4.6484,7.2177,-0.028405,0.0042761,-0.011301
-0.26956,3.2754,-4.4718,7.2177,-0.047647,0.0015272,-0.010079
-0.25955,3.1577,-4.3934,7.1589,-0.057421,0.0051924,-0.013744
-0.25558,3.0008,-4.4914,7.2961,-0.04948,-0.0015272,-0.012828
-0.24771,3.3931,-4.6287,7.2177,-0.0027489,-0.012217,-0.0067195
-0.21912,3.0989,-4.4914,7.2765,-0.0067195,-0.0042761,-0.0088575
-0.20303,3.3146,-4.6484,7.1589,-0.019548,0.0045815,-0.010385
-0.19839,3.2558,-4.4914,7.1785,-0.024435,0.0064141,-0.0082467
-0.17123,3.3146,-4.5111,7.1589,-0.021991,0.0085521,-0.0054978
-0.15564,3.2558,-4.4914,7.2177,-0.014966,0.0085521,-0.0097738
-0.1434,3.2754,-4.7072,7.1589,-0.0094684,0.0079412,-0.015577
-0.12674,3.4127,-4.5503,7.1196,-0.0073304,0.0088575,-0.013134
-0.11948,3.1774,-4.5699,7.2765,-0.033292,0.01069,-0.012523
-0.1268,3.2362,-4.6484,7.2373,-0.019242,0.011606,-0.010996
-0.11841,3.3146,-4.5699,7.2373,-0.0088575,0.012217,0.0058032
-0.11093,3.1774,-4.4914,7.1589,-0.0076358,0.012828,0.0024435
-0.12302,3.2558,-4.5503,7.1589,-0.010385,0.014355,-0.0051924
-0.12985,3.2362,-4.5699,7.2373,-0.0048869,0.010079,-0.0027489
-0.13,3.3931,-4.4914,7.2373,0.0012217,0.0097738,-0.0018326
-0.13718,3.3931,-4.5111,7.1785,0.0009163,0.01405,-0.0018326
-0.14093,3.2362,-4.6091,7.1589,-0.0061087,0.01405,-0.0033598
-0.14838,3.4127,-4.6287,7.1589,-0.0067195,0.018631,0.0027489
-0.15131,3.0597,-4.4914,7.2765,-0.0051924,0.0064141,0.041539
-0.14752,3.0793,-4.9229,7.1589,-0.22327,-0.06017,0.030238
-0.13077,3.2558,-4.6091,7.1785,-0.42455,-0.10446,0.018937
-0.12643,3.1185,-4.5111,7.2373,-0.57238,-0.12034,0.034208
-0.13272,3.3735,-4.6484,7.1589,-0.62766,-0.11759,0.043066
-0.13947,3.2166,-4.6287,7.1589,-0.60079,-0.10599,0.056505
-0.14267,3.3343,-4.6287,7.2373,-0.52443,-0.085827,0.065363
-0.15421,3.3735,-4.5699,7.2373,-0.41783,-0.064752,0.0562
-0.16522,3.3735,-4.7268,7.1785,-0.17165,-0.027489,-0.012217
-0.17902,3.2558,-4.7856,7.2373,-0.053756,0.014966,-0.0085521
-0.23215,3.3146,-4.9818,7.3158,0.024435,0.050396,0.021075
-0.34897,3.4912,-5.6094,6.9039,0.052229,0.070555,0.013439
-0.50809,3.6873,-5.0406,7.0019,0.034514,0.067806,0.00061087
-0.67599,3.3931,-3.6873,7.5315,-0.012217,0.054367,-0.011912
-0.82376,3.0989,-3.0008,7.7473,-0.07086,0.036346,-0.016799
-0.94879,2.9028,-2.9224,7.6492,-0.13806,0.002138,-0.018631
-0.99997,2.9224,-3.3931,7.61,-0.18906,-0.023518,0.0045815
-0.99997,3.2558,-3.8638,7.3746,-0.22083,-0.042761,0.0051924
-0.99997,3.2558,-4.6287,7.1589,-0.22602,-0.055589,-0.011912
-0.9664,3.1774,-5.1191,6.9823,-0.19548,-0.058338,-0.0058032
-0.86401,3.4323,-5.1387,7.1196,-0.14111,-0.051007,-0.0058032
-0.7287,3.3343,-4.668,7.2373,-0.079718,-0.028405,-0.011606
-0.59689,3.1185,-4.3345,7.4923,-0.029627,-0.0054978,-0.0054978
-0.46548,3.0793,-4.0796,7.5903,0.0012217,0.011606,0.0033598
-0.34857,3.3146,-4.1776,7.4531,0.38912,-0.050091,-0.014966
-0.24997,3.1185,-4.4522,7.2765,0.65851,0.017715,-0.0012217
-0.17038,3.0793,-4.7072,7.2373,0.84025,0.12675,-0.083994
-0.10837,3.3146,-4.7856,6.9627,0.9221,0.21533,-0.098655
-0.05426,3.2558,-4.4914,7.0608,0.88117,0.24282,-0.081856
-0.028381,3.3343,-4.4914,7.2765,0.72998,0.22052,-0.0562
0.007019,3.4127,-4.3934,7.3746,0.50396,0.15882,-0.043371
0.027496,3.4127,-4.4522,7.3354,0.24587,0.081551,-0.030238
0.046173,3.4127,-4.4914,7.3746,-0.043982,0.038179,0.010996
0.084595,3.2558,-4.6287,7.1196,-0.081245,0.018631,0.0051924
0.11102,3.2362,-4.4522,7.1589,-0.09499,-0.0042761,0.021991
0.13702,3.1185,-4.3934,7.2373,-0.1011,-0.023824,0.01405
0.16336,3.4127,-4.3934,7.2177,-0.10232,-0.034208,0.0082467
0.17682,3.1774,-4.5111,7.3158,-0.087965,-0.037568,0.011912
0.18115,3.3735,-4.5699,7.2373,0.057116,-0.036957,0.01405
0.1839,3.4323,-4.5699,7.1589,0.013744,-0.029932,0.01405
0.1882,3.4716,-4.6091,7.1785,0.043677,-0.015272,0.0067195
0.19864,3.4323,-4.766,7.0216,0.10232,0.0058032,0.011606
0.21542,3.4127,-4.8837,7.0608,0.13989,0.025962,0.0015272
0.25269,3.0989,-4.4914,7.2177,0.15027,0.048564,-0.0054978
0.28494,3.4912,-4.0992,7.5315,0.1347,0.068417,-0.0079412
0.31998,3.3343,-4.158,7.708,0.08827,0.078802,-0.012217
0.3573,3.0597,-4.4914,7.4531,-0.053756,0.076664,-0.010079
0.38644,3.4127,-4.6484,7.0019,-0.0082467,0.061392,0.0015272
0.42752,3.3735,-4.7856,6.8058,-0.081245,0.036957,-0.0064141
0.44705,3.2558,-4.8837,6.8254,-0.099266,0.0073304,-0.0051924
0.46326,3.1774,-4.5699,7.0216,-0.096822,-0.015272,0.013439
0.48621,3.3146,-4.3934,7.3158,-0.079718,-0.022907,0.007025
0.48785,3.2558,-4.4522,7.1589,-0.052534,-0.022297,0.00030543
0.51236,3.4127,-4.7072,7.1785,-0.025045,-0.014355,0
0.50528,3.55,-5.021,7.0019,0.026573,-0.0024435,-0.0030543
0.50073,3.4127,-4.8053,6.9627,-0.037874,0.010996,-0.0073304
0.48581,3.2754,-4.7856,6.8254,-0.25534,-0.086743,0.021075
0.45871,3.0793,-4.6091,7.1392,-0.2865,-0.10446,0.021991
0.41577,3.3146,-4.6091,7.2373,-0.281,-0.11057,0.015577
0.38327,3.3146,-4.3345,7.4531,-0.22449,-0.088881,0.013134
0.34869,3.1577,-4.4522,7.4531,-0.13592,-0.051618,0.0036652
0.30722,3.3735,-4.6287,7.1589,-0.039095,-0.0079412,0.013439
0.27032,3.4716,-4.7072,7.1589,0.03543,0.023824,0.025045
0.23358,3.3146,-4.766,6.9235,0.064141,0.037874,0.02474
0.20392,3.4127,-4.5699,7.1392,-0.71135,-0.13073,-0.010079
0.19046,3.2558,-4.8641,7.3746,-0.71135,-0.14172,-0.015882
0.18439,3.0793,-4.3934,7.3354,-0.60353,-0.14844,0.24038
0.18756,3.2558,-4.7072,7.2177,-0.40012,-0.11515,0.16585
0.18597,3.2558,-4.6287,7.0216,-0.16463,-0.039401,0.099571
0.17047,3.4127,-4.7072,6.9235,0.023518,0.058643,0.076969
0.15933,3.0793,-4.6287,7.1785,0.10721,0.13744,0.053145
0.16864,3.2166,-4.4718,7.1589,0.054367,0.16677,0.015577
0.17621,3.1774,-4.3934,7.2765,-0.076358,0.1408,-0.024435
0.2019,3.1577,-4.3934,7.1589,-0.21777,0.073609,-0.014966
0.23306,3.3735,-4.4522,7.2373,-0.32529,-0.00061087,-0.021991
0.25745,3.3146,-4.6484,7.1589,-0.40409,-0.051313,-0.045815
0.28687,3.3146,-4.766,7.1196,-0.45509,-0.079107,-0.049786
0.31021,3.2754,-4.5699,7.1589,-0.4612,-0.092546,-0.029016
0.31711,3.55,-5.0995,7.0216,-0.4102,-0.084605,-0.027489
0.27792,3.6285,-6.3351,6.5312,-0.30696,-0.062919,-0.034208
0.15106,4.5111,-6.6881,5.7467,-0.03207,-0.023518,-0.18234
-0.074921,3.805,-4.158,9.5125,-0.0079412,-0.016493,-0.12798
-0.37137,2.1575,-1.824,9.4928,0.025045,-0.020769,0.0085521
-0.68497,2.432,-1.3729,8.0022,0.094684,-0.0562,0.002138
-0.93088,2.5497,-2.6086,6.6097,0.29352,-0.082161,-0.0076358
-0.99997,3.0793,-2.942,6.6097,0.68997,-0.01741,-0.034514
-0.99997,2.687,-4.3345,7.5511,1.19,0.16371,-0.094684
-0.99997,3.3146,-5.4917,7.3158,1.5809,0.45082,-0.16493
-0.99997,4.158,-5.7075,7.1785,1.1582,0.61697,0.088575
-0.99997,3.805,-4.9426,7.6884,0.75931,0.37293,0.19975
-0.92502,3.4127,-3.7854,8.0218,0.41508,0.14508,-0.072998
-0.81531,3.4127,-3.7265,7.7473,0.030238,-0.026267,-0.072693
-0.71725,3.2558,-4.3345,7.4531,-0.31062,-0.17959,-0.069639
-0.62427,3.3735,-4.5699,7.0019,-0.54245,-0.281,-0.01741
-0.54346,3.3735,-4.7856,6.7077,-0.61942,-0.26481,0.062614
-0.46185,3.2558,-4.9229,6.8254,-0.65576,-0.17868,0.062919
-0.40045,3.3735,-4.9426,7.1392,-0.0281,0.02138,-0.0058032
-0.31931,3.5696,-4.4914,7.1589,-0.036957,0.01405,-0.0027489
-0.25699,3.2754,-4.1972,7.3746,-0.040623,0.011606,-0.00030543
-0.20221,3.4127,-4.4914,7.3746,-0.03543,0.01069,0.00030543
-0.16592,3.4127,-4.4522,7.3158,-0.025656,0.011912,-0.002138
-0.14157,3.1774,-4.5503,7.1785,-0.011606,0.018326,-0.0042761
-0.12009,3.3146,-4.8053,7.1392,-0.0048869,0.022602,-0.0067195
-0.096558,3.3146,-4.4914,7.1589,-0.015882,0.027489,-0.007025
-0.082947,3.2362,-4.6091,7.2765,-0.022602,0.030543,0.00030543
-0.063049,3.2754,-4.4718,7.2961,-0.030543,0.029932,0.0024435
-0.059784,3.3146,-4.4914,7.2765,-0.038179,0.03207,-0.012523
-0.044373,3.4127,-4.4914,7.2765,-0.041233,0.035125,-0.010079
-0.031403,3.2754,-4.5699,7.3158,-0.040012,0.026573,-0.0097738
-0.056915,3.2362,-4.5503,7.2373,-0.036041,0.025045,-0.0024435
-0.032196,3.4127,-4.5111,7.1785,-0.015272,0.034819,-0.0015272
-0.038116,3.1774,-4.5111,7.2961,-0.00030543,0.03879,-0.0076358
-0.035217,3.0989,-4.5111,7.3158,0.010079,0.041844,-0.0009163
-0.022797,3.2558,-4.5699,7.2961,0.015272,0.03879,-0.002138
-0.020905,3.2558,-4.4522,7.2373,0.0079412,0.036041,-0.0048869
-0.019775,3.3931,-4.4914,7.2373,-0.00061087,0.029322,-0.0039706
-0.01178,3.1774,-4.5699,7.2961,-0.007025,0.02474,-0.0015272
0.0027771,3.4127,-4.4914,7.3158,-0.0058032,0.027794,-0.0039706
0.024353,3.2558,-4.4914,7.2373,-0.010996,0.027489,-0.0036652
0.042511,3.1774,-4.5111,7.3158,-0.02138,0.021991,-0.0012217
0.055573,3.4127,-4.4914,7.2961,-0.024129,0.017715,-0.0018326
0.053955,3.2754,-4.4914,7.2765,-0.018937,0.014966,-0.00061087
0.068115,3.2558,-4.4718,7.2373,-0.010996,0.014355,-0.0015272
0.076233,3.4127,-4.766,7.1785,-0.0054978,0.015272,0
0.07312,3.1774,-4.4914,7.3158,-0.00030543,0.015272,-0.00061087
0.074097,3.2558,-4.5699,7.2961,0.00030543,0.019548,-0.0058032
0.080536,3.3931,-4.4718,7.1589,-0.027489,0.02474,-0.0082467
0.088409,3.0989,-4.3542,7.3158,-0.026573,0.022907,-0.0058032
0.096619,3.2558,-4.4522,7.2373,-0.039095,0.0073304,-0.0054978
0.11209,3.0989,-4.8837,7.3746,-0.040623,0.0094684,-0.0076358
0.1384,3.1577,-4.8053,7.1785,-0.04215,0.013134,-0.007025
0.10226,3.4127,-6.139,6.3547,-0.039706,0.016493,-0.0073304
0.0005188,4.0011,-6.139,6.7666,-0.041844,0.017715,-0.011606
-0.17737,3.2754,-3.903,7.7865,-0.043677,0.018326,-0.012828
-0.39154,2.589,-2.1575,8.4926,-0.040623,0.018631,-0.011301
-0.59894,2.6282,-1.824,8.1199,-0.039706,0.019853,-0.010079
-0.78082,2.7851,-2.5105,7.7865,0.094379,0.10721,-0.012828
-0.90741,2.9616,-3.2362,7.6884,-0.0064141,0.058948,-0.016799
-0.96652,3.0597,-4.413,7.2765,-0.10537,0.014966,-0.034208
-0.94983,3.3931,-5.6486,6.9627,-0.18448,-0.018326,-0.036652
-0.88351,3.5696,-5.7075,6.747,-0.23213,-0.036652,-0.033292
-0.78314,3.3735,-5.0798,7.2961,-0.24465,-0.042455,-0.028405
-0.66165,3.3146,-4.3542,7.5511,-0.23366,-0.042455,-0.019853
-0.52274,3.1185,-4.0207,7.6884,-0.20433,-0.038179,-0.011606
-0.39902,3.1185,-4.0796,7.3354,-0.11759,-0.028711,0.0009163
-0.28555,3.2558,-4.2561,7.3158,-0.065363,-0.012828,0
-0.18274,3.0597,-4.5699,7.2373,-0.025656,-0.00030543,-0.014966
-0.092773,3.2558,-4.8837,7.1589,-0.0036652,0.007025,-0.01069
-0.013153,3.3146,-4.766,7.1196,0.00030543,0.0082467,-0.0079412
0.054108,3.3146,-4.5503,7.1589,-0.01069,0.0024435,-0.0067195
0.11465,3.2362,-4.4914,7.2373,-0.026267,-0.0073304,-0.0051924
0.15283,3.2362,-4.3542,7.2177,-0.039706,-0.012523,-0.002138
0.17636,3.1774,-4.5503,7.1589,-0.047647,-0.016799,-0.0027489
0.20465,3.2362,-4.5699,7.3158,-0.050396,-0.020159,-0.0039706
0.21222,3.2362,-4.6091,7.3746,-0.047953,-0.017715,0.0012217
0.22488,3.2558,-4.4522,7.2373,-0.040928,-0.013439,0.002138
0.22235,3.1774,-4.4914,7.2765,-0.037874,-0.0088575,0.002138
0.22729,3.0793,-4.4718,7.2961,-0.036652,-0.0033598,0.0015272
0.22293,3.3735,-4.5503,7.1589,-0.035125,0.0018326,-0.0012217
0.21646,3.2558,-4.4914,7.0804,-0.03879,0.0054978,-0.0024435
0.22153,3.1774,-4.6287,7.2373,-0.0064141,0.014966,-0.01069
0.24878,3.4127,-4.4522,7.1392,-0.0067195,0.019548,-0.012523
0.28104,3.4127,-4.5699,7.1589,-0.009163,0.018937,-0.0067195
0.30359,3.2166,-4.5111,7.1589,-0.014966,0.015272,-0.007025
0.32666,3.2754,-4.5111,7.1589,-0.019242,0.013134,-0.0082467
0.34854,3.3146,-4.5111,7.2177,-0.021686,0.01069,-0.010385
0.3721,3.3146,-4.4718,7.2765,-0.023824,0.0067195,-0.010996
0.39005,3.4127,-4.4914,7.2177,-0.0281,0.0030543,-0.0097738
0.39807,3.0793,-4.4718,7.3158,-0.030238,-0.0015272,-0.0024435
0.41037,3.2558,-4.6287,7.1589,-0.027489,-0.0076358,-0.0012217
0.41089,3.3931,-4.4914,7.2177,-0.022602,-0.0064141,-0.0097738
0.42279,3.2558,-4.7072,7.2373,-0.018631,-0.0054978,-0.0085521
0.43088,3.2558,-4.5503,7.1589,-0.013744,-0.0054978,-0.0061087
0.43384,3.3146,-4.4914,7.1589,-0.0058032,-0.0058032,-0.0027489
0.43729,3.2558,-4.5699,7.0608,-0.029627,-0.0009163,-0.0015272
0.44415,3.2558,-4.4914,7.1589,-0.030849,0.007025,-0.0036652
0.43161,3.4127,-4.5699,7.2765,-0.0088575,0.0079412,-0.011301
0.4566,3.4127,-4.4914,7.2373,-0.014355,0.0079412,-0.010996
0.47473,3.1774,-4.4914,7.2961,-0.016799,0.0082467,0.00030543
0.47687,3.2362,-4.6484,7.2373,-0.017104,0.0082467,-0.0015272
0.46591,3.3146,-4.668,7.2177,-0.016493,0.010079,-0.0048869
0.46338,3.4912,-4.5699,7.1785,-0.021686,0.012217,-0.0048869
0.46753,3.4127,-4.4914,7.1589,-0.0018326,0.01405,-0.0079412
0.46902,3.1774,-4.4718,7.2961,-0.0030543,0.011301,-0.010079
0.46814,3.3146,-4.5699,7.1589,-0.03543,0.007025,0.0030543
0.45621,3.2754,-4.5111,7.2373,-0.024435,0.0009163,-0.0027489
0.44528,3.2558,-4.4914,7.2373,-0.025962,0.0024435,-0.010996
0.43301,3.2166,-4.4914,7.1589,-0.029016,0.0073304,-0.012828
0.41788,3.2754,-4.4914,7.0608,-0.018631,-0.0033598,-0.0076358
0.40225,3.3735,-4.8837,7.1785,-0.013439,0.0009163,0.0015272
0.38828,3.2558,-4.5699,7.2373,-0.028405,-0.0015272,-0.0030543
0.37448,3.4912,-4.6484,7.2373,-0.033903,-0.0024435,-0.0048869
0.35947,3.4127,-4.4522,7.1589,0.07025,0.054978,-0.012828
0.35834,3.1774,-4.8837,7.2765,0.027489,0.036041,-0.03543
0.36612,3.3735,-4.4914,7.1196,-0.01741,0.021686,-0.0088575
0.36673,3.3146,-4.4914,7.2765,-0.033292,0.015577,-0.0094684
0.35782,3.3146,-4.5699,7.1589,-0.02138,0.016493,-0.018326
0.3479,3.2754,-4.4522,7.1785,-0.0054978,0.017715,-0.025045
0.32599,3.4127,-4.5699,7.2765,0.0054978,0.0036652,-0.0088575
0.31656,3.2558,-4.7856,7.2765,0.050396,-0.019242,-0.0015272
0.32349,3.4323,-4.6091,7.0216,0.35583,-0.025962,0.026573
0.27554,3.4323,-4.4914,7.0608,0.58918,0.027489,0.026573
0.27026,3.2558,-4.4718,7.1589,0.7028,0.13867,-0.07086
0.27222,3.3343,-4.4522,7.3354,0.67989,0.21869,-0.099266
0.27505,3.5304,-4.668,7.2373,0.54367,0.22633,-0.084605
0.28635,3.4323,-4.4522,7.2373,0.30696,0.17623,-0.038485
0.27939,3.3146,-4.6287,7.0608,0.028405,0.088575,-0.0048869
0.3157,3.4127,-4.5699,7.0608,-0.20556,-0.0085521,0.01405
0.34818,3.2558,-4.4914,7.1589,-0.35613,-0.072693,0.018937
0.3721,3.3931,-4.4914,7.2765,-0.44288,-0.10232,-0.0018326
0.40851,3.4323,-4.4914,7.1589,-0.47189,-0.10782,0.028711
0.43973,3.2558,-4.5699,7.2373,-0.42852,-0.092241,0.040928
0.45364,3.3146,-4.8249,7.0608,-0.33811,-0.060476,0.045815
0.4288,3.55,-5.1975,6.8254,-0.23457,-0.01741,0.042455
0.33057,3.7265,-5.2564,7.0608,-0.13683,0.023518,0.041233
0.17752,3.1774,-3.9227,7.8649,-0.058338,0.057727,0.03543
-0.0045471,2.7851,-2.8243,8.0218,-0.022297,0.024129,-0.010996
-0.19443,3.0597,-3.0793,7.4923,-0.042455,0.016188,-0.0082467
-0.35153,3.0989,-3.9423,7.3354,-0.047647,0.0030543,-0.018326
-0.44284,3.3735,-4.5699,7.2765,-0.039095,0.0012217,-0.018326
-0.47598,3.55,-4.9229,7.1785,-0.012217,0.016493,-0.016799
-0.46265,3.4912,-4.8837,7.1196,0.029016,0.037568,-0.01741
-0.40955,3.3735,-4.7072,7.1589,0.062003,0.054672,-0.018631
-0.34344,3.4127,-4.3934,7.4531,0.080023,0.061087,-0.017715
-0.2612,3.0793,-4.1972,7.61,-0.039401,-0.011606,-0.011912
-0.17621,3.3146,-4.3934,7.3746,-0.024129,0.0024435,-0.015272
-0.080902,3.0793,-4.3542,7.1589,-0.012217,0.011912,0.01069
0.0095215,3.1774,-4.5699,7.1589,-0.015272,0.025351,0.011301
0.084259,3.4127,-4.9426,7.1196,-0.020769,0.031765,0.0079412
0.1293,3.4127,-4.9426,7.0608,-0.029016,0.030543,-0.00061087
0.10287,3.55,-5.1191,6.9823,-0.076969,0.028711,-0.0033598
0.033356,3.5696,-4.5699,7.2765,-0.058032,0.02474,-0.0094684
-0.072693,3.0793,-3.7658,7.6492,-0.044593,0.022907,-0.024129
-0.19922,3.0597,-3.3735,7.8061,-0.043982,0.023824,-0.029016
-0.30035,2.942,-3.5304,7.5511,-0.038179,0.024435,-0.017715
-0.37363,3.1774,-3.9227,7.3746,-0.035125,0.025045,-0.01741
-0.42624,3.2558,-4.3934,7.3354,-0.036652,0.027794,-0.021075
-0.4393,3.3146,-4.8837,7.1392,-0.036652,0.030238,-0.022907
-0.40952,3.4127,-4.8837,7.0608,-0.036346,0.026267,-0.02138
-0.36218,3.2754,-4.7268,7.0608,-0.04215,0.017715,-0.021991
-0.29486,3.2362,-4.4718,7.1196,-0.38332,-0.11087,0.019242
-0.24222,3.3146,-4.3345,7.3354,-0.45632,-0.10996,0.012523
-0.14859,3.2754,-4.4522,7.3158,-0.47647,-0.10263,0.033292
-0.082886,3.3735,-4.5699,7.2373,-0.44868,-0.099266,0.043066
-0.025513,3.3931,-4.7072,6.9823,-0.38759,-0.087659,0.04612
0.036072,3.4912,-4.5503,7.1589,-0.2978,-0.062003,0.037263
0.071655,3.3146,-4.4914,7.2373,-0.19792,-0.026267,0.025656
0.11237,3.1774,-4.3934,7.2765,-0.11057,0.0048869,0.020464
0.15039,3.2558,-4.5111,7.3158,-0.052229,0.024129,0.0079412
0.15652,3.4127,-4.4522,7.1589,-0.028405,0.026573,0.011912
0.17474,3.1774,-4.5111,7.1785,-0.034514,0.022907,0.0054978
0.18808,3.2754,-4.5503,7.1785,-0.0562,0.01405,0.0042761
0.20203,3.2558,-4.5699,7.2961,-0.083078,-0.00061087,0.0033598
0.23148,3.2558,-4.5111,7.2177,-0.10049,-0.016799,0.0039706
0.25235,3.2754,-4.4522,7.2177,-0.10354,-0.022297,0.007025
0.27701,3.2558,-4.5699,7.0608,-0.092852,-0.020464,0.0061087
0.2919,3.4127,-4.4718,7.1589,0.25107,0.054062,0.0018326
0.32944,3.4127,-4.8837,7.3158,0.22663,0.077274,-0.00030543
0.35748,3.4323,-4.4914,7.1785,0.15974,0.08094,-0.011606
0.37677,3.2558,-4.6091,7.2961,0.065668,0.069028,-0.0036652
0.38345,3.4127,-4.5503,7.1589,-0.0281,0.041539,0.0045815
0.3837,3.2558,-4.5699,7.0019,-0.092241,0.0064141,0.010079
0.38666,3.2362,-4.4914,7.1589,-0.10873,-0.021686,0.012523
0.37881,3.4127,-4.668,7.1589,-0.068111,-0.029932,0.009163
0.36896,3.2754,-4.668,7.1589,0.027184,-0.023824,-0.0064141
0.3613,3.3146,-4.6484,7.0608,0.13928,0.0018326,0.0067195
0.34659,3.4127,-4.766,7.1392,0.22724,0.052229,-0.007025
0.34357,3.2558,-4.5699,7.2373,0.27184,0.10049,-0.016188
0.32489,3.4127,-4.5699,7.1589,0.27031,0.12767,-0.015272
0.31204,3.4127,-4.668,7.2373,0.23182,0.13195,-0.0061087
0.28165,3.2754,-4.5699,7.2373,0.15699,0.12339,-0.002138
0.29993,3.2558,-4.5699,7.1392,0.045204,0.097433,-0.0094684
0.28735,3.4127,-4.4914,7.3158,0.020159,0.051313,-0.0061087
0.2666,3.2558,-4.5699,7.1785,0.011301,0.054062,-0.0061087
0.23474,3.3146,-4.766,7.1392,-0.0033598,0.047953,-0.0076358
0.20831,3.2558,-4.6091,7.0019,-0.019853,0.033292,-0.011606
0.17081,3.2558,-4.413,7.1392,-0.032376,0.018937,-0.014661
0.12329,3.2558,-4.7856,7.1589,-0.034819,0.0097738,-0.010996
0.049194,3.3146,-4.8249,7.0608,-0.035125,0.0076358,-0.011912
-0.05481,3.5696,-4.7856,7.1785,-0.030238,0.010079,-0.011301
-0.17883,3.2362,-4.2365,7.2373,-0.015577,0.013744,-0.013744
-0.32037,3.1577,-4.0796,7.4334,-0.010079,0.015882,-0.014966
-0.40753,3.0793,-4.2561,7.2961,-0.0079412,0.020159,-0.007025
-0.49396,3.3931,-4.8249,7.1196,-0.0036652,0.021686,-0.0015272
-0.55817,3.4127,-5.021,7.0019,0.022602,0.010079,0.0027489
-0.60663,3.3931,-4.5699,7.1589,0.074831,-0.0094684,0.0042761
-0.6402,3.3735,-4.158,7.3158,0.14752,-0.0073304,0.00061087
-0.66028,3.0793,-3.8834,7.3746,0.22113,0.019548,-0.0088575
-0.65808,3.2558,-3.9423,7.4531,0.01069,0.041844,-0.012828
-0.6384,3.2558,-4.1776,7.3746,0.010385,0.045509,-0.0097738
-0.58047,3.1774,-4.5111,7.5511,0.010385,0.043066,-0.0054978
-0.5134,3.4127,-4.6091,7.2765,0.0058032,0.039095,-0.01405
-0.45563,3.4127,-4.7072,7.1196,-0.0045815,0.038485,-0.016493
-0.38449,3.2754,-4.7072,7.0216,-0.014355,0.033292,-0.014966
-0.31238,3.2754,-4.6091,7.1589,-0.0039706,0.029627,-0.015577
-0.25037,3.2558,-4.5699,7.1589,0.0051924,0.022907,-0.01405
-0.18414,3.3146,-4.7072,7.2177,-0.01741,0.023518,0.018326
-0.11951,3.0793,-4.6091,7.2961,-0.011301,0.021075,0.016799
-0.064148,3.2558,-4.5699,7.1196,-0.010385,0.018326,0.012217
-0.0027771,3.2558,-4.5503,7.1196,-0.010385,0.015882,0.012828
0.043457,3.1774,-4.7072,7.2373,-0.0067195,0.012828,0.013134
0.091858,3.3146,-4.668,7.1589,-0.002138,0.011912,0.014355
0.12592,3.2166,-4.7268,7.0608,0.0009163,0.0094684,0.018326
0.16125,3.3146,-4.7464,7.1589,-0.00061087,0.0067195,0.020769
0.18314,3.3735,-4.5699,7.1392,-0.010079,0.0061087,0.026878
0.19461,3.0793,-4.5699,7.2373,-0.012523,0.0061087,0.026267
0.20987,3.2558,-4.5699,7.1196,-0.017104,0.0082467,0.014966
0.21655,3.2362,-4.7072,7.0608,-0.021991,0.0094684,0.017104
0.2023,3.3146,-4.7856,7.1589,-0.022907,0.0085521,0.020159
0.19589,3.3931,-4.7072,7.1196,-0.019242,0.0079412,0.021991
0.20975,3.4127,-4.7072,7.1785,-0.0036652,0.0088575,0.025351
0.19327,3.2166,-4.5699,7.1785,-0.0076358,0.012523,0.027184
0.17316,3.2558,-4.4914,6.9823,-0.0085521,0.018631,-0.0076358
0.16211,3.2558,-4.5699,7.2373,-0.0082467,0.023213,-0.013134
0.14938,3.3146,-4.5699,7.1589,-0.01069,0.026878,0.023824
0.14328,3.0989,-4.668,7.1589,-0.0064141,0.030849,0.019242
0.13733,3.2754,-4.6484,7.1589,-0.016493,0.039401,0.013744
0.12372,3.1577,-4.4914,7.1589,-0.020769,0.045509,0.0097738
0.10254,2.9616,-4.5111,7.2765,-0.013744,0.036652,0.0061087
0.092865,3.3343,-4.5699,7.2765,-0.0097738,0.042761,0.0048869
0.056122,3.2558,-4.668,7.1392,-0.43127,-0.054367,-0.043982
0.015167,3.0989,-5.5702,7.0608,-0.28436,0.0009163,-0.042761
-0.10336,3.5892,-5.884,6.6489,-0.17929,0.029627,0.027489
-0.25516,3.4127,-5.1191,7.0019,-0.090408,0.04948,0.0097738
-0.4245,3.3735,-4.0207,7.61,-0.014661,0.07025,-0.028711
-0.60321,2.8047,-3.0793,8.1591,0.026267,0.080634,-0.051007
-0.75919,2.8439,-2.9812,7.963,0.021686,0.077274,-0.044288
-0.8743,3.0793,-3.295,7.5511,-0.01741,0.057727,-0.041539
-0.95526,3.0793,-3.55,7.4923,-0.0956,0.032987,-0.019242
-0.99536,3.1774,-3.9423,7.61,-0.13042,0.012217,-0.02138
-0.97992,3.2558,-4.6484,7.4727,-0.146,-0.0061087,-0.041233
-0.9498,3.4323,-5.1975,7.0019,-0.13989,-0.018631,-0.036957
-0.89828,3.4323,-5.2368,7.0608,-0.11698,-0.022907,-0.033598
-0.8295,3.4127,-5.021,7.1196,-0.080329,-0.015882,-0.031765
-0.7493,3.3931,-4.6091,7.2373,-0.047342,-0.012217,-0.029932
-0.67831,2.942,-4.3149,7.3354,-0.028711,-0.0082467,-0.023518
-0.60004,3.0008,-4.2953,7.3158,-0.02138,-0.0076358,-0.0042761
-0.50629,3.1185,-4.5503,7.2373,-0.021075,-0.012523,-0.0064141
-0.40738,3.0989,-4.7268,7.1785,-0.02474,-0.012828,-0.019548
-0.32794,3.3343,-4.8641,7.1196,-0.03207,-0.014661,-0.014661
-0.25143,3.0989,-4.668,7.1785,-0.037263,-0.016188,-0.013744
-0.16129,3.2558,-4.6091,7.1589,-0.040317,-0.020464,-0.011912
-0.10092,3.2362,-4.6287,7.0019,-0.044288,-0.023518,-0.0097738
-0.041138,3.0989,-4.4914,7.2373,-0.044899,-0.025045,-0.0067195
0.010132,3.2166,-4.6091,7.1589,-0.040623,-0.022602,-0.0281
0.058533,3.2362,-4.7072,7.0216,-0.037263,-0.016799,-0.025656
0.090851,3.4323,-4.6091,7.2765,-0.033598,-0.015577,-0.0094684
0.11273,3.2558,-4.6091,7.1392,-0.030849,-0.013134,-0.012217
0.12622,3.2558,-4.6091,7.2765,-0.032681,-0.012217,-0.015882
0.13589,3.3931,-4.4914,7.1785,-0.036346,-0.010996,-0.018937
0.14636,3.4127,-4.6287,7.1392,-0.04215,-0.0088575,-0.020464
0.14197,3.2754,-4.6287,7.1196,-0.048258,-0.0082467,-0.025351
0.14023,3.2754,-4.7072,7.1196,-0.018326,0.0048869,-0.011606
0.14447,3.2558,-4.668,7.1589,-0.014355,0.0094684,-0.011606
0.16245,3.1774,-4.5699,7.2373,-0.011912,0.010079,-0.0045815
0.17487,3.2558,-4.5699,7.1589,-0.013439,0.0097738,-0.0054978
0.16766,3.2558,-4.6484,7.2177,-0.017104,0.0085521,-0.0073304
0.1636,3.4127,-4.7856,7.1196,-0.021991,0.0061087,-0.0082467
0.15381,3.2362,-4.6484,7.0216,-0.024129,0.0051924,-0.0094684
0.14468,3.1774,-4.6287,7.1785,-0.023518,0.0064141,-0.011912
0.13333,3.2754,-4.7072,7.2373,-0.017715,0.0073304,0.0009163
0.11893,3.2558,-4.7856,7.0019,-0.014966,0.010996,-0.00030543
0.10394,3.4127,-4.5699,7.1392,-0.015577,0.011606,-0.0076358
0.093506,3.3146,-4.6091,7.1196,-0.018326,0.0094684,-0.0045815
0.077026,3.2362,-4.668,7.0608,-0.017104,0.0082467,-0.0045815
0.069061,3.2362,-4.7072,7.2177,-0.014661,0.0079412,-0.0036652
0.047668,3.4127,-4.6287,7.1589,-0.022602,0.0079412,-0.0036652
0.041504,3.4127,-4.6091,7.0608,-0.022602,0.0097738,-0.0015272
0.021881,3.1577,-4.5699,7.1589,-0.012828,0.012523,-0.0079412
0.0014648,3.3735,-4.6484,7.1196,-0.014661,0.013134,-0.0088575
-0.014435,3.3146,-4.6484,7.1589,-0.016493,0.015272,-0.0036652
-0.020721,3.4912,-4.8837,7.0608,-0.018021,0.015882,-0.0067195
-0.038788,3.2754,-4.6091,7.0608,-0.019853,0.016493,-0.007025
-0.052826,3.4127,-4.7268,7.0804,-0.023213,0.016188,-0.0082467
-0.064026,3.3146,-4.766,7.1196,-0.01069,0.016799,-0.0088575
-0.087921,3.2558,-4.6091,7.0608,-0.01069,0.017104,-0.0073304
-0.097748,3.3735,-4.6287,7.1392,-0.024435,0.017104,-0.010385
-0.10385,3.3146,-4.5699,7.1589,-0.023213,0.019548,-0.012217
-0.11923,3.4127,-4.5503,7.1785,-0.01741,0.019242,-0.013744
-0.13876,3.1774,-4.5503,7.1589,-0.011912,0.016188,-0.014355
-0.14978,3.3931,-4.7072,7.1196,-0.011606,0.015272,-0.013439
-0.15872,3.2754,-4.668,7.1392,-0.013439,0.014661,-0.012217
-0.15561,3.4127,-4.8249,7.0608,-0.015272,0.012217,-0.010996
-0.1412,3.2166,-4.6287,7.1589,-0.018631,0.01069,-0.0088575
-0.14011,3.4127,-4.7856,7.0608,-0.022602,0.024129,-0.012523
-0.12222,3.2558,-5.021,7.2373,-0.025351,0.022907,-0.012523
-0.084656,3.4127,-4.6287,7.1589,-0.027794,0.017104,-0.012217
-0.055634,3.3146,-4.7072,7.2177,-0.028711,0.01405,-0.014355
-0.051147,3.2558,-4.6091,7.0608,-0.025656,0.013134,-0.013744
-0.04892,3.2754,-4.668,7.0804,-0.020159,0.011912,-0.012523
-0.043091,3.1185,-4.6091,7.1589,-0.019242,0.012523,-0.01405
-0.036316,3.2362,-4.7268,7.0019,-0.021686,0.010385,-0.013439
-0.028473,3.2558,-4.5699,7.0608,-0.022602,0.0079412,-0.0067195
-0.033691,3.2754,-4.7072,7.2177,-0.026878,0.0064141,-0.0079412
-0.025665,3.4912,-4.5699,7.0216,-0.029322,0.0045815,-0.011912
-0.030365,3.2362,-4.6484,7.1589,-0.03146,-0.00030543,-0.0097738
-0.03653,3.3343,-4.6091,7.0804,-0.036346,-0.0036652,-0.0073304
-0.041229,3.4127,-4.6091,7.1589,-0.037263,-0.0048869,-0.0045815
-0.0289,3.2558,-4.7072,7.2373,-0.031765,-0.007025,-0.0027489
-0.044647,3.2558,-4.5699,7.1196,-0.023213,-0.0064141,-0.0033598
-0.048859,3.1577,-4.5699,7.1392,-0.015577,-0.002138,-0.0064141
-0.04483,3.2754,-4.6484,7.2177,-0.010079,0.0048869,-0.0082467
-0.054749,3.4127,-4.5699,7.2177,-0.0085521,0.0097738,-0.0058032
-0.061829,3.3146,-4.5699,7.0216,-0.012828,0.011301,-0.0051924
-0.068451,3.2558,-4.7856,7.1589,-0.018937,0.010079,-0.0051924
-0.073883,3.4127,-4.5699,7.0608,-0.026573,0.009163,-0.0048869
-0.075317,3.1774,-4.6091,7.1589,-0.030849,0.0067195,-0.0054978
-0.092682,3.4323,-4.7072,7.0804,-0.028711,0.0054978,-0.0058032
-0.10303,3.2558,-4.6091,7.0216,-0.020159,0.012828,-0.0094684
-0.11987,3.4912,-4.668,7.1392,-0.020769,0.0097738,-0.0097738
-0.12628,3.3146,-4.6484,7.0608,-0.022297,0.013134,-0.0076358
-0.12439,3.4716,-4.7072,7.1392,-0.027184,0.016188,-0.0088575
-0.16156,3.3146,-4.6484,7.0608,-0.025962,0.016799,-0.010996
-0.17502,3.3146,-4.6091,7.1392,-0.017715,0.020159,-0.012217
-0.17834,3.4716,-4.8053,7.1196,-0.0085521,0.025656,-0.011606
-0.19034,3.4912,-4.6287,7.1392,-0.01069,0.027184,-0.010079
-0.2038,3.2362,-4.6484,7.1589,-0.016493,0.019242,0.0012217
-0.20706,3.4912,-4.7856,7.0216,-0.018937,0.022907,-0.00030543
-0.19437,3.2754,-4.668,7.0608,-0.016799,0.021991,0.0036652
-0.20084,3.2558,-4.766,7.2373,-0.011912,0.021991,0.0018326
-0.20386,3.2166,-4.668,7.1785,-0.0076358,0.024129,0.0009163
-0.21597,3.4716,-4.6287,7.1589,-0.0048869,0.025351,0.002138
-0.22372,3.4716,-4.5699,7.0216,-0.010079,0.029016,0.00061087
-0.23193,3.4127,-4.6091,7.1589,-0.013134,0.031154,0.00061087
-0.2446,3.2558,-4.7072,7.2177,-0.016799,0.029932,-0.0097738
-0.24734,3.2362,-4.668,7.2177,-0.024129,0.025351,-0.010385
-0.25821,3.3931,-4.7856,7.0608,-0.025045,0.025351,-0.0009163
-0.26025,3.3146,-4.7856,7.1589,-0.020159,0.026573,-0.0030543
-0.26102,3.4912,-4.6484,7.0019,-0.018021,0.0281,-0.0067195
-0.25897,3.3931,-4.5503,7.1392,-0.018021,0.029932,-0.0067195
-0.24582,3.3146,-4.766,7.2177,-0.0042761,0.03207,-0.0082467
-0.23694,3.5304,-4.9229,7.0804,-0.0076358,0.033292,-0.0094684
-0.23065,3.4323,-4.7072,7.1196,-0.011606,0.015882,0
-0.2207,3.3146,-4.766,7.1392,-0.0082467,0.01741,-0.0012217
-0.19424,3.2362,-4.6091,7.1589,-0.010079,0.019853,-0.0067195
-0.17368,3.4716,-4.7072,7.1196,-0.017104,0.018326,-0.0061087
-0.18637,3.4912,-4.9229,7.0608,-0.025656,0.017104,-0.0054978
-0.18359,3.4323,-4.5699,7.0216,-0.025656,0.019548,-0.002138
-0.17804,3.4912,-4.6287,7.0608,-0.020464,0.016799,-0.0015272
-0.17371,3.4127,-4.668,7.1589,-0.013744,0.019242,-0.00061087
-0.17548,3.2558,-4.668,7.1589,-0.0079412,0.021991,-0.00030543
-0.17343,3.4323,-4.7072,7.0804,-0.0061087,0.023213,0.0012217
-0.17688,3.2558,-4.6091,7.0608,-0.0076358,0.022602,0.002138
-0.17786,3.2558,-4.668,6.9627,-0.0094684,0.019242,0.0015272
-0.1745,3.4323,-4.668,7.0608,-0.0076358,0.018631,-0.00061087
-0.18045,3.3146,-4.668,7.1392,-0.0085521,0.017104,0.00061087
-0.1705,3.4127,-4.766,7.1196,-0.0067195,0.015882,-0.00061087
-0.16809,3.2754,-4.6287,7.0608,-0.007025,0.01741,-0.0009163
-0.16608,3.2754,-4.5699,7.0804,-0.020464,0.012217,-0.0076358
-0.15582,3.3931,-4.9818,7.1785,-0.019853,0.010385,-0.009163
-0.12866,3.3343,-4.7072,7.0019,-0.019548,0.013744,-0.0045815
-0.13129,3.3146,-4.6091,7.1196,-0.017715,0.01741,-0.0027489
-0.13483,3.3146,-4.7072,7.0216,-0.01741,0.018631,-0.0012217
-0.14066,3.4716,-4.6484,7.1589,-0.01741,0.016493,-0.0018326
-0.14331,3.1774,-4.7072,7.1589,-0.01741,0.014661,-0.0048869
-0.14618,3.2754,-4.7268,7.1785,-0.016493,0.013744,-0.0076358
-0.16345,3.3146,-4.7072,7.1589,-0.021991,0.02138,-0.0048869
-0.1655,3.4912,-4.5699,7.0608,-0.027489,0.02138,-0.0048869
-0.16998,3.2362,-4.6287,7.1589,-0.029627,0.020464,-0.002138
-0.17422,3.2558,-4.7268,6.9823,-0.027794,0.020464,-0.002138
-0.20193,3.2558,-4.6091,7.0804,-0.024435,0.020769,-0.0030543
-0.19186,3.3931,-4.7072,7.0804,-0.02138,0.023213,-0.0042761
-0.20099,3.4127,-4.6091,7.1589,-0.017104,0.025656,-0.002138
-0.2124,3.2754,-4.6091,7.1392,-0.011912,0.028405,-0.0039706
-0.21942,3.2558,-4.7268,7.2177,-0.010079,0.03146,-0.0088575
-0.23239,3.4127,-4.7856,7.1196,-0.010385,0.029932,-0.0094684
-0.22928,3.2362,-4.7856,7.1589,-0.015272,0.031154,-0.0061087
-0.23996,3.0793,-4.7072,7.1785,-0.019548,0.030543,-0.0058032
-0.24554,3.4323,-4.6484,7.1589,-0.023518,0.027794,-0.0076358
-0.24857,3.4912,-4.668,7.1196,-0.027794,0.027184,-0.010385
-0.25467,3.4127,-4.6484,7.0608,-0.028711,0.026267,-0.010996
-0.25754,3.2558,-4.668,7.1589,-0.026267,0.026267,-0.011606
-0.26779,3.4127,-4.8837,7.1196,-0.020159,0.0281,-0.0061087
-0.27579,3.3146,-4.5699,7.0608,-0.015882,0.030238,-0.0061087
-0.29001,3.2558,-4.6287,7.0608,-0.010079,0.027184,-0.010996
-0.2912,3.2558,-4.7072,7.0216,-0.0064141,0.025045,-0.0097738
-0.29489,3.4127,-4.7072,7.0608,-0.0088575,0.025656,-0.0048869
-0.29672,3.3343,-4.5699,7.1392,-0.012828,0.025656,-0.002138
-0.28641,3.2558,-4.766,7.1196,-0.019548,0.020464,-0.0033598
-0.27856,3.3735,-4.7072,7.1196,-0.022907,0.014966,-0.0042761
-0.26636,3.1774,-4.668,7.1392,-0.010385,0.010385,-0.0082467
-0.23053,3.0989,-4.6484,7.1785,-0.020464,0.0067195,-0.0067195
-0.20441,3.4127,-4.668,7.1196,-0.021686,0.0085521,-0.0039706
-0.18631,3.4127,-4.6484,7.1196,-0.024435,0.0094684,-0.002138
-0.17438,3.3146,-4.6287,7.1392,-0.020769,0.01069,-0.0039706
-0.15222,3.2558,-4.7072,7.1589,-0.015882,0.010385,-0.0054978
-0.1514,3.4323,-4.7072,7.1589,-0.013134,0.0085521,-0.0073304
-0.1394,3.2558,-4.5699,7.1785,-0.012523,0.0067195,-0.0082467
-0.14456,3.2558,-4.7856,7.1785,-0.01405,0.01405,-0.0051924
-0.13681,3.3146,-4.7072,7.1589,-0.013439,0.012217,-0.0054978
-0.14444,3.2558,-4.6287,7.1196,-0.011912,0.015577,-0.0045815
-0.1293,3.2558,-4.6484,7.1392,-0.0088575,0.016799,-0.0045815
-0.1196,3.2558,-4.668,7.0608,-0.009163,0.015272,-0.0048869
-0.12338,3.2166,-4.5699,7.1196,-0.014661,0.012217,-0.0042761
-0.12558,3.2558,-4.7072,7.0216,-0.016493,0.010385,-0.0033598
-0.11948,3.3146,-4.668,6.9627,-0.016188,0.0088575,-0.0039706
-0.11115,3.2558,-4.6091,7.1196,-0.012217,0.0088575,0.0009163
-0.11603,3.4912,-4.6484,7.2177,-0.015272,0.010996,-0.0015272
-0.12485,3.2362,-4.766,7.2373,-0.021686,0.012217,-0.0054978
-0.11475,3.2558,-4.6484,7.0804,-0.027794,0.012217,-0.0064141
-0.12424,3.0793,-4.5699,7.1589,-0.0281,0.012523,-0.0045815
-0.12711,3.0793,-4.5699,7.1589,-0.023824,0.01069,-0.002138
-0.13431,3.2558,-4.7072,7.1196,-0.016799,0.009163,-0.0024435
-0.15057,3.2166,-4.6484,7.1392,-0.01405,0.010996,0.00061087
-0.16141,3.4912,-4.8641,7.1392,-0.007025,0.010996,-0.009163
-0.17319,3.1185,-4.6484,7.1589,-0.0030543,0.013134,-0.0073304
-0.18356,3.1774,-4.5699,7.0608,-0.0042761,0.018631,-0.0027489
-0.19687,3.2754,-4.5699,7.0608,-0.0085521,0.019548,0.0018326
-0.2099,3.2166,-4.7072,7.1589,-0.013744,0.018937,-0.0018326
-0.21606,3.4127,-4.7072,7.1196,-0.020464,0.017104,-0.0082467
-0.21909,3.2558,-4.7268,7.0019,-0.020769,0.014355,-0.0082467
-0.23117,3.3146,-4.766,7.0804,-0.014966,0.013134,-0.0082467
-0.24496,3.3931,-4.7072,7.1589,0.043066,0.078496,0.013744
-0.2793,3.0793,-5.3348,7.1589,-0.020769,0.045204,0.011912
-0.36639,3.4127,-5.8644,6.9235,-0.096517,0.0073304,-0.025045
-0.49619,3.6873,-5.2368,6.9235,-0.15424,-0.024129,-0.020464
-0.65173,3.2362,-3.9227,7.4923,-0.19151,-0.051618,-0.018021
-0.80646,2.9224,-3.0793,7.7865,-0.20067,-0.05284,-0.011606
-0.93161,3.0793,-2.942,7.4923,-0.17898,-0.054367,-0.0073304
-0.99997,3.2362,-3.6873,7.61,-0.14783,-0.045204,-0.00030543
-0.99997,3.4912,-4.0992,7.3354,-0.074526,-0.033292,-0.00061087
-0.99997,3.4323,-4.7072,7.1196,-0.039095,-0.025351,-0.00030543
-0.9834,3.2558,-5.276,7.0216,-0.010079,-0.012523,0.0067195
-0.89328,3.4127,-5.2564,6.8254,0.002138,-0.0061087,0.0061087
-0.76813,3.3931,-4.6484,7.2765,-0.0036652,-0.0024435,0.0039706
-0.63376,3.0793,-4.3934,7.5511,-0.026878,-0.007025,0.0039706
-0.50668,3.2558,-4.4522,7.3158,-0.053145,-0.014966,0.0027489
-0.38834,3.0793,-4.4718,7.2177,-0.070555,-0.021075,0.00061087
-0.2724,3.3146,-4.668,7.0608,-0.070555,-0.024435,-0.014966
-0.18066,3.2754,-4.9229,6.9235,-0.059865,-0.019548,-0.015272
-0.10388,3.3146,-4.8053,7.0608,-0.043371,-0.0094684,0.0015272
-0.039276,3.3146,-4.7072,7.2373,-0.026267,0.002138,0.0033598
0.022614,3.4716,-4.4914,7.2177,-0.015577,0.012828,0.0024435
0.062958,3.4127,-4.4522,7.1785,-0.013134,0.019548,0
0.091064,3.4716,-4.668,7.1196,-0.014661,0.023213,-0.0051924
0.1019,3.3146,-4.6484,7.0608,-0.02138,0.023518,-0.011301
0.12634,3.4323,-4.7856,7.1392,-0.031765,0.021686,-0.013744
0.1431,3.4323,-4.8053,7.1589,-0.037568,0.02138,-0.012523
0.1265,3.4127,-4.4914,7.1196,-0.039401,0.017104,-0.015272
0.13678,3.1774,-4.5503,7.1589,-0.037874,0.013439,-0.01741
0.13309,3.4127,-4.6484,7.1589,-0.034819,0.013744,-0.019242
0.13348,3.4912,-4.8837,7.0608,-0.028711,0.014355,-0.018631
0.12906,3.2754,-4.6484,7.0216,-0.022907,0.015882,-0.017104
0.12677,3.4127,-4.7072,7.1392,-0.022297,0.015882,-0.014661
0.12411,3.4912,-4.5699,7.1196,-0.009163,0.018021,-0.0076358
0.13129,3.2558,-4.6287,7.2177,-0.007025,0.023213,0.00030543
0.13443,3.2754,-4.7856,7.1589,-0.014355,0.034208,-0.013439
0.13647,3.2754,-4.7072,7.0608,-0.014966,0.026573,-0.011912
0.13297,3.2558,-4.6091,7.0608,-0.030543,0.029016,-0.0009163
0.11807,3.3735,-4.7072,7.0608,-0.031154,0.018021,-0.0061087
0.098663,3.3343,-4.766,7.1196,-0.029016,0.012828,-0.011606
0.091064,3.4323,-4.5699,7.1196,-0.023824,0.016493,-0.0042761
0.066254,3.3735,-4.6287,7.1589,-0.03146,0.011912,0.0042761
0.054871,3.3146,-4.7856,7.1,-0.038485,0.015577,0
0.033081,3.3735,-4.6484,7.0216,-0.04215,0.014355,0.0036652
0.023071,3.3735,-4.5699,7.0608,-0.049786,0.017715,-0.0036652
0.01297,3.3931,-4.668,7.0608,-0.062003,0.021991,0.0018326
-0.0018921,3.4716,-4.6287,7.0804,-0.077885,0.023518,0.0039706
-0.019104,3.4912,-4.6091,7.1196,-0.032681,0.02474,0.0064141
-0.039337,3.3735,-4.668,6.9823,-0.030238,0.027794,0.0079412
-0.046539,3.55,-4.6287,7.1196,-0.15363,0.029322,-0.007025
-0.067535,3.3146,-4.5699,6.9235,-0.14997,0.034208,0.0018326
-0.075806,3.2166,-4.7072,7.1589,-0.12553,0.035125,-0.0051924
-0.080627,3.3735,-4.6484,7.1785,-0.10263,0.040012,-0.011301
-0.096985,3.2166,-4.6287,7.1589,-0.088575,0.051007,-0.021991
-0.11884,3.2558,-4.7072,7.0019,-0.083383,0.048258,-0.025656
-0.11935,3.4716,-4.668,7.0608,-0.09896,0.040317,-0.018326
-0.12631,3.4716,-4.5699,7.0804,-0.12889,0.035736,-0.014966
-0.14301,3.3146,-4.6287,7.0019,-0.020769,-0.0042761,-0.0097738
-0.1543,3.3735,-4.7072,7.0608,-0.019548,0.0018326,-0.011606
-0.16275,3.3146,-4.668,7.0019,-0.014966,0.0051924,-0.00030543
-0.16904,3.3931,-4.6484,6.9823,-0.0088575,0.0088575,0.0012217
-0.16644,3.0989,-4.7072,7.1589,-0.009163,0.015272,0.00061087
-0.18021,3.4127,-4.766,7.0608,-0.018326,0.015882,-0.00061087
-0.17795,3.1774,-4.7856,7.0019,-0.026573,0.014661,-0.002138
-0.19577,3.1185,-4.8249,7.0804,-0.03146,0.016799,-0.0045815
-0.21722,3.1774,-5.1191,6.845,-0.03207,0,-0.0054978
-0.2283,3.0008,-4.9426,7.3158,-0.031154,0.0039706,-0.0085521
-0.22888,3.2166,-4.3934,7.1589,-0.0281,0.0058032,0.0045815
-0.24152,3.4716,-4.8053,6.9235,-0.024129,0.0094684,0.0036652
-0.25085,3.3146,-4.8053,7.0608,-0.019242,0.01405,0.0042761
-0.25085,3.2558,-4.7072,6.9235,-0.015577,0.018326,0.0036652
-0.23828,3.2362,-4.5699,7.1196,-0.015882,0.020464,-0.00030543
-0.22644,3.4127,-4.7856,7.0019,-0.019548,0.019853,-0.0045815
-0.19229,3.3146,-4.766,7.0019,-0.027794,0.021075,-0.013134
-0.15359,3.4912,-4.7072,7.0019,-0.035125,0.02138,-0.013744
-0.12476,3.2754,-4.668,6.9627,-0.036957,0.020769,-0.009163
-0.093475,3.1185,-4.7856,7.1196,-0.038485,0.022297,-0.010079
-0.042572,3.2754,-4.7856,6.9235,-0.034819,0.026573,-0.010079
-0.013947,3.3735,-4.7072,6.9627,-0.03207,0.029627,-0.010385
0.019135,3.4127,-4.7856,7.0019,-0.03146,0.030543,-0.010996
0.058594,3.3146,-4.8053,6.845,-0.033292,0.034208,-0.012828
0.078247,3.4127,-4.7856,7.0608,-0.024435,0.0073304,0.0015272
0.095642,3.2362,-4.7072,7.1196,-0.027489,0.0012217,0
0.1167,3.2558,-4.766,7.1392,-0.021991,0.0048869,0.00030543
0.13293,3.3343,-4.766,7.0216,-0.016799,0.0064141,-0.002138
0.14539,3.4127,-4.6484,7.0019,-0.021075,0.002138,0
0.14594,3.4912,-4.8053,6.9823,-0.027489,-0.0042761,0.0048869
0.1463,3.3146,-4.9229,6.9235,-0.030543,-0.0067195,0.0030543
0.14008,3.3146,-4.8053,6.9235,-0.034208,-0.0067195,0.00030543
0.13425,3.3931,-4.7072,6.9823,-0.034514,-0.0058032,0.0018326
0.13037,3.4323,-4.7856,7.0019,-0.029016,-0.0027489,0.0045815
0.12299,3.4127,-4.7856,7.0019,-0.025656,-0.0036652,-0.00061087
0.12283,3.4912,-4.7856,7.0019,-0.024435,-0.0030543,0.0024435
0.11655,3.3146,-4.766,6.9823,-0.025962,-0.0030543,0.0015272
0.11816,3.2166,-4.766,7.0019,-0.026573,-0.0039706,-0.0015272
0.12607,3.4127,-4.9229,7.0216,-0.02474,-0.0033598,0
0.12921,3.2166,-4.7072,7.1196,-0.026878,-0.0024435,0.0024435
0.13556,3.4323,-4.8053,6.9235,-0.091935,0.020159,0.0088575
0.142,3.3146,-4.9426,6.7666,-0.055894,0.027489,-0.00061087
0.18256,3.3146,-4.8837,6.9823,0.053756,0.035736,0.0088575
0.19595,3.4912,-4.9426,6.8254,0.21319,0.057727,0.014966
0.20978,3.3146,-5.0406,6.8647,0.40684,0.088575,0.0061087
0.22311,3.2754,-4.9426,6.9235,0.56108,0.14783,-0.0061087
0.22479,3.3343,-5.0406,6.747,-0.089186,0.22541,0.00030543
0.2211,3.2754,-4.9818,6.6881,-0.091019,0.29474,0.010079
0.20422,3.5304,-4.8837,6.8647,0.64507,0.34606,-0.018021
0.19101,3.55,-4.8837,6.9235,0.6182,0.37141,-0.0064141
0.18192,3.3146,-4.9426,6.8647,0.52626,0.39462,-0.012217
0.1727,3.3146,-4.7268,6.9627,0.39676,0.39279,-0.013134
0.15192,3.3146,-4.8837,6.8647,0.26756,0.34667,-0.0094684
0.14752,3.4912,-5.1387,6.8254,0.14294,0.27092,-0.017104
0.14444,3.3735,-4.9818,6.9039,0.62278,0.20036,-0.023824
0.16229,3.4127,-4.9818,6.845,0.63041,0.14416,-0.023824
0.17358,3.4127,-4.8249,6.8254,-0.02138,0.02138,0.0088575
0.18079,3.1774,-4.8837,6.9823,-0.018937,0.02138,0.0094684
0.18512,3.4912,-4.9426,6.9627,-0.014661,0.020159,-0.0094684
0.19617,3.4127,-4.9818,6.845,-0.0058032,0.019853,-0.007025
0.21005,3.4912,-4.8837,6.9235,-0.0033598,0.018021,0.00030543
0.21259,3.4127,-4.8053,6.8647,-0.0073304,0.014661,0.0073304
0.22934,3.2362,-4.7856,6.8647,-0.01405,0.010385,0.0067195
0.24048,3.5304,-4.8837,6.6685,-0.025045,0.0048869,0.0058032
0.25412,3.2754,-5.021,6.5901,-0.047647,0.0009163,0.0061087
0.26416,3.4127,-5.4133,6.4332,-0.044593,-0.002138,0.0045815
0.30621,3.55,-5.5898,6.0801,-0.039706,-0.0024435,0.0085521
0.3768,3.7461,-5.2956,6.2959,-0.041233,0.00061087,0.0079412
0.45834,3.5696,-4.7268,7.1196,-0.054062,0.0067195,0.0051924
0.56116,2.9224,-4.4914,7.7865,-0.073304,0.011301,0.0039706
0.64603,2.687,-4.0011,7.9042,-0.037568,0.012523,0.0064141
0.72495,3.0204,-4.1384,7.6492,-0.046731,0.01405,0.0079412
0.78845,2.8635,-4.3934,7.3354,0.21991,0.010079,-0.082467
0.85654,2.8047,-4.7072,7.3942,0.29841,0.029627,-0.08094
0.93646,3.0793,-4.5699,7.3158,0.40225,0.053756,-0.040928
0.9928,3.0597,-4.5111,7.4531,0.48594,0.073915,-0.033598
1,3.0597,-4.5699,7.2373,0.50213,0.075136,-0.028405
1,3.2166,-4.9229,7.0019,0.46548,0.061392,-0.027184
1,3.3146,-5.0798,6.8254,0.41814,0.049786,-0.036346
1,3.0989,-4.9818,7.0608,0.38576,0.025045,-0.062308
1,3.0989,-4.7856,7.2765,-0.076053,0.04612,0.061392
1,3.0793,-4.3934,7.1785,-0.07758,0.041844,0.067501
1,3.0008,-4.3934,7.1589,-0.076969,0.045815,0.029932
1,3.0793,-4.668,6.9235,-0.067806,0.06353,0.026573
1,3.0793,-4.6287,7.0216,-0.058948,0.091324,0.027794
1,3.0793,-4.7856,7.0608,-0.058338,0.11209,0.03146
1,2.7851,-4.7072,7.0608,-0.081856,0.10934,0.037874
1,3.0793,-4.7856,6.8254,-0.13134,0.081245,0.051313
1,2.6086,-4.6091,7.2373,-0.24129,0.039095,0.11301
1,2.6086,-4.668,7.6492,-0.30055,0.00030543,0.12339
1,2.7851,-4.7072,7.5315,-0.36408,-0.034514,0.075442
1,3.1774,-4.5699,7.2765,-0.42974,-0.067195,0.094684
1,3.1774,-4.766,7.1196,-0.49205,-0.098349,0.11362
1,3.2166,-5.0995,7.1392,-0.52901,-0.12095,0.12004
1,3.0204,-5.4525,6.9235,-0.49602,-0.14447,0.12065
1,3.4323,-5.6486,6.8254,-0.42516,-0.1573,0.11759
1,3.0204,-5.7075,6.747,-0.37965,-0.14661,-0.020464
1,3.0989,-5.6094,6.6881,-0.34667,-0.14111,-0.034514
1,3.0793,-5.276,6.747,-0.28283,-0.14111,0.13592
1,3.1774,-5.0798,6.8254,-0.1912,-0.12614,0.10476
0.99179,3.0008,-5.3348,7.3746,-0.092241,-0.096822,0.056505
0.85315,2.9616,-5.0995,7.2765,0.0009163,-0.065973,0.037263
0.65701,3.3146,-4.7856,7.4334,0.079107,-0.032376,0.026878
0.42474,3.4127,-4.6287,7.2373,0.14905,-0.0054978,0.0015272
0.18082,3.2558,-4.4914,7.0019,0.25473,0.026267,0.021075
-0.051453,3.4127,-4.4522,6.5312,0.25595,0.043982,0.051313
-0.29794,3.1774,-4.668,6.8254,0.27214,0.054062,-0.10782
-0.53912,2.8635,-4.6091,7.1589,0.2923,0.06689,-0.1347
-0.73834,2.687,-4.3149,7.3158,0.24587,0.054062,-0.10629
-0.89893,2.8635,-4.0796,7.3942,0.12889,0.010385,-0.033598
-0.99997,2.7851,-4.2953,7.1785,-0.014661,-0.028711,0.014661
-0.99997,3.2166,-4.6287,7.0019,-0.12065,-0.052229,0.01741
-0.99997,3.1185,-4.9229,6.9039,-0.10812,-0.054062,-0.0097738
-0.99997,3.3146,-5.0995,7.2765,-0.07758,-0.035736,-0.013744
-0.99997,3.2166,-5.1779,7.1589,-0.048564,-0.0067195,0.076358
-0.99997,3.5696,-5.2956,7.2765,-0.024129,0.023824,0.069639
-0.99997,3.2754,-4.8053,7.2177,-0.013134,0.047953,0.06017
-0.99997,3.0597,-3.8638,7.3746,-0.029322,0.071777,0.051618
-0.99997,2.6282,-3.55,7.4334,-0.14813,0.091324,0.03543
-0.99997,2.7851,-3.6088,6.845,-0.1347,0.093462,0.010996
-0.99997,2.9616,-4.1972,7.0216,-0.17685,0.067806,0.0030543
-0.99997,3.1185,-4.8053,7.0608,-0.21411,0.024129,0.0067195
-0.99997,3.2166,-5.0798,7.2961,-0.24374,-0.01741,-0.014355
-0.99997,3.3146,-4.7856,7.2373,-0.24923,-0.049786,-0.026267
-0.99997,3.1185,-4.3934,7.9434,-0.22755,-0.071471,-0.026878
-0.99997,3.0204,-4.4522,7.6296,-0.18173,-0.075136,-0.012217
-0.99997,3.0008,-4.3934,7.3158,-0.084299,-0.060781,-0.010079
-0.99997,3.0793,-4.5699,6.9235,-0.14264,-0.038179,-0.0076358
-0.99997,3.0008,-4.7856,6.9627,-0.050091,-0.019242,-0.007025
-0.99997,3.1774,-4.7856,7.0608,-0.016188,-0.0085521,-0.0009163
-0.95151,3.1577,-4.8837,7.0804,0.019242,-0.0036652,0.0039706
-0.896,3.1577,-4.7856,7.1589,0.047342,0.0051924,0.0027489
-0.84894,3.3343,-4.5699,7.2373,0.059254,0.018021,-0.0009163
-0.80896,3.1774,-4.413,7.3354,0.053145,0.028405,-0.0061087
-0.78528,3.1185,-4.6287,7.1196,-0.13042,0.031154,-0.0073304
-0.75925,3.2558,-4.668,7.1589,-0.086743,0.028711,-0.0082467
-0.73816,2.9616,-4.6484,7.1589,-0.055894,0.0012217,-0.00061087
-0.70938,3.0989,-4.9426,7.2177,-0.062003,0.0058032,-0.0042761
-0.67508,3.2558,-4.5699,7.2765,-0.054062,0.012523,-0.0036652
-0.64731,3.3146,-4.668,7.1785,-0.034819,0.020769,-0.0042761
-0.62051,3.1774,-4.7072,7.1589,-0.018326,0.026267,-0.0030543
-0.61377,3.2754,-4.5699,7.2765,-0.013134,0.02474,-0.0015272
-0.58978,3.1774,-4.5699,7.1589,-0.01741,0.019853,0.0009163
-0.57199,3.1774,-4.6091,7.1589,-0.027184,0.014966,0.0012217
-0.5416,3.1185,-4.6287,7.1589,-0.039401,0.013439,-0.011912
-0.51941,3.0793,-4.6484,7.1589,-0.043677,0.016493,-0.012828
-0.48773,3.2166,-4.7072,7.1392,-0.043982,0.01741,-0.0033598
-0.46292,3.3146,-4.6484,7.2177,-0.036041,0.018631,-0.002138
-0.44562,3.3146,-4.766,7.1589,-0.025962,0.022907,-0.0018326
-0.42752,3.2362,-4.4914,7.2373,-0.011912,0.025656,-0.0030543
-0.41345,3.0793,-4.5699,7.0804,0.0009163,0.030543,-0.0073304
-0.39661,3.2362,-4.7268,7.0608,0.0067195,0.033903,-0.011301
-0.38602,3.2362,-4.8053,7.1196,0.0073304,0.033292,-0.011606
-0.36887,3.1185,-4.7856,7.2961,-0.00030543,0.030238,-0.011912
-0.36017,3.2754,-4.8249,7.1589,-0.013744,0.029322,-0.01405
-0.34177,3.2362,-4.6287,7.1589,-0.032987,0.026267,-0.013439
-0.32343,3.2362,-4.6287,7.1196,-0.048869,0.019853,-0.010079
-0.3064,3.0989,-4.668,7.1196,-0.059254,0.013744,-0.0088575
-0.29315,3.2558,-4.8053,7.1392,-0.059559,0.01069,-0.009163
-0.28458,3.2558,-4.7072,7.1785,-0.054062,0.010385,-0.010385
-0.28296,3.0793,-4.6876,7.1589,-0.045204,0.01405,-0.0079412
-0.27747,3.2362,-4.5111,7.2373,-0.049175,0.022297,-0.009163
-0.26685,3.0008,-4.6091,7.1589,-0.036652,0.02474,-0.011301
-0.25519,3.0008,-4.668,7.2373,-0.026267,0.024129,-0.009163
-0.24811,3.3146,-4.766,7.1392,-0.021686,0.021991,-0.0073304
-0.24594,3.3146,-4.7072,7.1392,-0.025351,0.017715,-0.0067195
-0.2355,3.0793,-4.766,7.0608,-0.032681,0.010079,-0.0064141
-0.22684,3.0989,-4.7268,7.1785,-0.041539,0.0058032,-0.0058032
-0.22626,3.2362,-4.6287,7.1785,-0.037568,0.027489,-0.0042761
-0.21945,3.0008,-4.6287,7.1785,-0.033598,0.02474,-0.0042761
-0.19669,3.0793,-4.7072,6.9823,-0.028711,0.01741,-0.014966
-0.19577,3.0989,-4.5699,7.1392,-0.0281,0.014661,-0.016493
-0.19742,3.1774,-4.7072,7.0608,-0.027794,0.014661,-0.014661
-0.18906,3.0793,-4.7856,7.0019,-0.025962,0.015882,-0.0094684
-0.19064,3.1577,-4.7072,7.1196,-0.029322,0.014355,-0.0076358
-0.20325,3.2558,-4.7856,7.1392,-0.035125,0.013744,-0.0058032
-0.19977,3.2558,-4.7856,7.1196,0.0054978,0.010996,-0.011912
-0.1976,3.1774,-4.7856,7.0019,0.024129,0.0085521,-0.0061087
-0.21829,3.1774,-4.766,7.1589,0.034514,0.016493,-0.0064141
-0.22534,3.2362,-4.5699,7.1589,0.026267,0.030849,-0.0082467
-0.23221,3.1185,-4.6484,7.1589,0.011606,0.03879,-0.0067195
-0.22882,3.1185,-4.7072,7.1196,0.0018326,0.031765,-0.0054978
-0.23642,3.2362,-4.7856,7.1196,-0.023213,0.032376,-0.0054978
-0.23404,3.1774,-4.7856,6.9823,-0.013439,0.030543,-0.01069
-0.2189,3.0989,-4.6287,7.0608,-0.040928,0.025351,-0.0067195
-0.22638,3.0989,-4.7072,7.0804,-0.039095,0.027794,-0.0064141
-0.19525,3.2362,-4.7268,7.1196,-0.026573,0.023824,-0.010385
-0.18896,3.0008,-4.766,7.1785,-0.014966,0.015882,-0.0097738
-0.17053,3.2362,-4.7856,7.1589,-0.0045815,0.0079412,-0.0015272
-0.15372,3.1774,-4.7856,7.0216,0.0061087,0.0082467,-0.0033598
-0.14819,3.1774,-4.668,7.1196,-0.021686,0.013134,-0.0073304
-0.14288,3.3931,-4.7856,7.0216,-0.035736,0.018326,-0.0061087
-0.1575,3.0793,-4.7072,7.0019,-0.029627,0.026573,-0.021075
-0.17798,3.2558,-4.6484,7.0608,-0.031765,0.0281,-0.016799
-0.19922,3.0597,-4.5699,7.1785,-0.0281,0.033598,-0.013439
-0.21014,3.2362,-4.5699,7.1392,-0.027489,0.03543,-0.01741
-0.22302,3.2166,-4.6484,7.1785,-0.019853,0.040623,-0.014355
-0.22635,3.1774,-4.7072,7.1392,-0.016188,0.040623,-0.019242
-0.23422,3.1774,-4.7856,7.0804,-0.018326,0.038485,-0.021991
-0.25284,3.0793,-4.7856,7.0019,-0.020159,0.031765,-0.020769
-0.2699,3.2558,-4.5699,7.2373,-0.088575,-0.0015272,0.011301
-0.25339,2.8635,-4.8837,7.3746,-0.049175,0.010996,0.007025
-0.23267,3.2558,-4.6484,7.2373,-0.022297,0.020159,-0.0042761
-0.22351,3.0008,-4.8249,7.2765,-0.010385,0.026878,0.0009163
-0.2308,3.1774,-5.2564,7.2177,-0.01405,0.025962,0.007025
-0.26993,3.5696,-5.7467,6.8254,-0.030849,0.018631,0.0094684
-0.33966,3.5696,-4.9622,6.9235,-0.051007,0.0054978,0.010996
-0.42651,2.9224,-3.9423,7.2373,-0.065057,-0.0073304,0.012828
-0.52734,2.9224,-3.3735,7.61,-0.068417,-0.017104,-0.0054978
-0.60425,2.9224,-3.2362,7.6492,-0.061697,-0.019853,-0.0085521
-0.65958,3.0793,-3.7069,7.61,-0.052229,-0.016799,0.0039706
-0.67719,3.1774,-3.9227,7.3746,-0.041233,-0.014661,0
-0.65979,3.2166,-4.158,7.5903,-0.027794,-0.0097738,-0.0036652
-0.60114,3.2558,-4.7856,7.3158,-0.019548,-0.0036652,-0.0051924
-0.5275,3.4323,-5.1191,7.1589,-0.018326,0.0039706,-0.0058032
-0.43314,3.2754,-5.021,7.2177,0.0033598,0.002138,-0.0064141
-0.34262,3.0793,-4.668,7.3158,-0.49266,-0.028405,-0.020769
-0.24521,2.942,-4.4522,7.1392,-0.52198,-0.044288,-0.02474
-0.18259,2.9224,-4.4522,7.1196,-0.50946,-0.057116,0.055589
-0.07428,3.0793,-4.7856,7.0608,-0.43921,-0.042761,0.036041
0.00064087,3.0793,-4.8053,7.1196,-0.34575,-0.009163,0.015577
0.067963,3.1577,-4.9426,7.0608,-0.24709,0.02474,0.0051924
0.11917,3.2754,-4.7856,7.0608,-0.1628,0.050396,-0.00030543
0.17957,3.2362,-4.5503,7.1589,-0.11545,0.059865,-0.011606
0.20367,3.0204,-4.6484,7.2373,-0.12187,0.055589,-0.011912
0.22726,3.0793,-4.7856,7.2177,-0.15333,0.040928,-0.0079412
0.25159,3.0793,-4.7856,7.1589,-0.18021,0.029016,-0.025962
0.27484,3.1774,-4.766,7.1589,-0.19853,0.01069,-0.027184
0.29193,3.1774,-4.7072,7.0608,-0.19823,-0.0012217,-0.025045
0.29379,3.0008,-4.7072,7.0216,-0.1854,-0.0042761,-0.019548
0.31381,3.1774,-5.2564,7.1392,-0.16127,-0.0073304,-0.018631
0.28098,3.4912,-6.7666,6.6097,-0.12462,-0.0051924,-0.016188
0.21567,3.805,-5.6486,6.747,-0.032376,0.0064141,-0.0009163
0.14401,3.1774,-3.2558,7.7865,-0.032987,0.0058032,-0.00030543
0.068909,2.687,-1.9417,8.1199,-0.038179,0.0042761,-0.0036652
-0.031494,2.7459,-2.0594,8.0218,-0.039401,0.0018326,-0.0033598
-0.12955,2.7851,-3.0989,7.708,-0.037568,-0.0015272,-0.0045815
-0.18045,3.0989,-3.6873,7.61,-0.037874,0.0009163,-0.002138
-0.18762,3.0793,-4.7072,7.61,-0.018631,0.0009163,-0.0036652
-0.15814,3.4127,-5.3937,6.8254,-0.026573,0.0012217,-0.0042761
-0.097565,3.3931,-5.5898,6.9235,0.013744,0.10171,-0.0082467
-0.023041,3.2558,-5.2368,7.1785,-0.053145,0.07086,-0.0064141
0.048218,3.0793,-4.4914,7.4531,-0.12217,0.032987,-0.047037
0.10229,2.9616,-4.158,7.4727,-0.18173,0.0027489,-0.04612
0.17297,3.0204,-4.1384,7.3746,-0.22266,-0.018631,-0.041233
0.22134,3.1185,-4.3345,7.1785,-0.23854,-0.03146,-0.028711
0.28329,3.0793,-4.7072,7.1196,-0.2248,-0.03543,-0.018937
0.35022,3.3146,-5.021,7.0608,-0.18692,-0.031154,-0.015272
0.3851,3.2558,-4.9229,7.1196,-0.1347,-0.018631,-0.00061087
0.44016,3.1185,-4.6091,7.1392,-0.079107,-0.0027489,0.0042761
0.46432,3.2558,-4.5699,7.1589,-0.033903,0.01069,-0.010996
0.48834,3.0989,-4.6484,7.1785,-0.0054978,0.018937,-0.013439
0.51208,3.0597,-4.5699,7.1392,0.0048869,0.018326,-0.014661
0.517,3.1185,-4.7856,7.2373,-0.0045815,0.010079,-0.011301
0.5191,3.0793,-4.7856,7.3158,-0.019853,-0.0015272,-0.0076358
0.51004,3.0989,-4.5699,7.1785,-0.033903,-0.0088575,-0.0048869
0.50958,3.0793,-4.5503,7.2373,-0.046731,-0.012217,0.00030543
0.49387,3.0793,-4.668,7.1589,-0.036957,-0.013439,-0.0024435
0.47354,3.0793,-4.5699,7.1589,-0.025962,-0.010079,0.0058032
0.44452,3.0204,-4.6484,7.1785,-0.017104,-0.0051924,0.0051924
0.42679,3.2558,-4.6287,7.1392,-0.016493,0.0009163,0.0061087
0.41217,3.3146,-4.6287,7.1392,-0.014966,0.0073304,0.0067195
0.39032,3.2362,-4.6484,7.2373,-0.046426,0.010996,0.0058032
0.3692,3.2558,-4.7072,7.1589,-0.053756,0.010079,0.0027489
0.35788,3.0793,-4.7072,7.1589,-0.035125,-0.026878,0.0094684
0.3454,3.1185,-4.9426,7.3158,-0.040317,-0.037874,0.0048869
0.3266,3.2166,-4.5503,7.1589,-0.043371,-0.041233,-0.00030543
0.31616,3.2362,-4.6091,7.1589,-0.045815,-0.037568,-0.0009163
0.29697,3.0793,-4.766,7.2177,-0.044899,-0.034514,0.0079412
0.27463,3.2558,-4.5699,7.1589,-0.043677,-0.029932,0.0085521
0.26447,3.0008,-4.5699,7.2765,-0.045204,-0.026267,0.0067195
0.24457,3.1185,-4.6287,7.2177,-0.047647,-0.019853,0.010079
0.23926,3.0989,-4.5111,7.1392,-0.024435,0.0024435,-0.019548
0.24243,3.1185,-4.668,7.0608,-0.027794,0,-0.017104
0.25397,3.2558,-4.6287,7.2373,-0.032681,0.0009163,-0.0076358
0.25064,3.2362,-4.7072,7.1589,-0.037568,0.0027489,-0.010996
0.25101,3.0989,-4.766,7.2177,-0.040317,0.00061087,-0.013439
0.25409,3.3343,-4.8249,7.1392,-0.040928,0.00061087,-0.015882
0.25772,3.0989,-4.6287,7.1785,-0.041844,0.0039706,-0.016188
0.24847,3.2754,-4.6091,7.1392,-0.041844,0.0058032,-0.018631
0.25195,3.2558,-4.668,7.2177,-0.03146,0.007025,-0.018021
0.24051,3.0793,-4.8053,7.2765,-0.025962,0.0097738,-0.018631
0.23776,3.2754,-4.668,7.2373,-0.022907,0.015882,-0.015882
0.23486,3.3146,-4.6091,7.0804,-0.026267,0.019242,-0.015577
0.22144,3.2754,-4.4914,7.1589,-0.032987,0.018021,-0.011912
0.22311,3.1185,-4.7072,7.1589,-0.036346,0.016188,-0.010385
0.22073,3.1774,-4.6484,7.1589,-0.033292,0.013439,-0.013439
0.21832,3.3146,-4.7268,7.1589,-0.025962,0.012217,-0.017104
0.21576,3.2558,-4.7072,7.0804,-0.020159,0.014966,0.0018326
0.20758,3.2166,-4.6484,7.3158,-0.0073304,0.019242,0.0085521
0.19519,3.2362,-4.5699,7.2177,0.011301,0.019242,-0.020159
0.1723,3.0204,-4.7856,7.2177,0.033903,0.02138,-0.016493
0.15942,3.2558,-4.8837,7.1196,0.029016,0.019548,-0.014661
0.14505,3.2754,-4.5699,7.0019,0.010385,0.0039706,-0.010079
0.12778,3.2166,-4.7072,7.1589,0.00061087,-0.0027489,0.002138
0.11499,3.4127,-4.6484,7.0804,-0.023518,-0.016799,0.0012217
0.085876,3.2166,-4.766,7.1589,0.97341,0.22571,0.069639
0.094757,3.3146,-4.7856,7.1392,1.0363,0.30452,0.11332
0.10428,3.2166,-4.668,7.2373,0.95784,0.31521,-0.012828
0.10153,3.2558,-4.6287,7.1589,0.76908,0.26573,0.0085521
0.087402,3.1774,-4.6484,7.0608,0.53695,0.19426,0.021075
0.056763,3.0793,-4.9426,7.1392,0.33078,0.12798,0.041233
0.003418,3.2166,-5.1975,7.0216,0.18784,0.084605,0.053451
-0.074066,3.3146,-5.5113,6.5312,0.13134,0.08491,0.052534
-0.16891,3.4912,-4.5699,7.0608,-0.22999,0.1179,0.044899
-0.26956,2.9224,-3.8442,7.4531,-0.42669,0.13806,0.017715
-0.3692,2.8047,-3.6873,7.7865,-0.58643,0.10049,0.16463
-0.44409,3.2558,-5.0798,7.0019,-0.75014,0.026573,0.19761
-0.49487,3.7069,-5.6486,6.9235,-0.88575,-0.020769,0.17471
-0.5116,3.4716,-4.3934,7.4531,-0.91111,-0.050702,0.11668
-0.5314,3.0989,-2.9028,8.0807,0.087965,-0.083689,0.079107
-0.54099,2.7851,-2.5105,8.0022,-0.032376,-0.10599,0.06689
-0.54779,2.8047,-2.9028,7.6296,-0.47281,-0.10904,0.1182
-0.47342,3.0008,-3.2362,7.6296,-0.38179,-0.088575,0.093157
-0.3652,2.6086,-3.3931,8.3945,-0.34728,-0.058032,0.026878
-0.20438,2.7655,-3.9227,8.0807,-0.35705,-0.033598,0.062614
-0.014252,3.2362,-4.2561,8.0807,-0.40134,-0.0094684,0.083994
0.17178,3.0793,-4.5699,7.9434,-0.44776,0.0094684,0.086437
0.35437,3.2558,-4.6484,7.708,-0.79932,0.0012217,0.092241
0.51855,3.1774,-4.4522,7.3746,-0.62614,-0.019548,0.11301
0.68936,3.2558,-4.0207,7.1589,-0.21594,-0.016493,0.040928
0.85062,3.0597,-4.3542,7.3746,-0.061087,0.015577,0.05681
0.97232,3.2558,-4.9622,7.0608,0.087354,0.058948,0.064752
1,3.0008,-5.4133,7.0608,0.19853,0.11912,0.045815
1,3.0008,-5.1975,7.0608,0.23915,0.18326,0.022602
1,2.9616,-4.2953,7.4727,0.19884,0.22846,0.0051924
1,2.6478,-3.8442,7.61,-0.43738,0.24526,0.0076358
1,2.4713,-4.158,7.5511,-0.35216,0.22877,0.022602
1,2.6086,-5.2368,7.1392,-1.0638,1.1533,-1.7565
1,2.8635,-6.2174,6.8647,-0.94592,1.2773,-1.7003
1,3.3931,-5.7467,6.5312,-0.86926,1.3989,-1.9429
1,3.4127,-5.6682,6.8058,-0.85216,1.5024,-1.916
1,3.1774,-6.139,7.1589,-0.88453,1.5635,-1.8891
1,3.5892,-5.9232,7.7865,-0.94531,1.5876,-1.8552
1,3.3735,-5.1191,8.0807,-1.0119,1.5895,-1.824
1,3.805,-4.8837,7.4531,-1.0647,1.5681,-1.7969
1,5.0014,-5.9821,5.9036,-1.0812,1.5287,-1.1594
1,5.4721,-7.2961,5.2956,-1.0763,1.4884,-1.1078
1,5.5702,-7.5315,5.1191,-1.0522,1.4551,-1.6322
1,5.5113,-6.4724,5.2368,-1.0223,1.4245,-1.5522
1,4.8053,-4.7072,5.4329,-1.0208,1.3848,-1.4542
1,4.4326,-3.4519,5.8055,-1.0641,1.3436,-1.3552
1,4.1188,-3.5304,6.0605,-1.1524,1.3173,-1.2788
1,4.158,-4.0796,5.8055,-1.2764,1.2944,-1.2181
1,4.0403,-4.0796,5.9036,-1.4029,1.2547,-0.92027
1,3.7069,-4.0011,6.0801,-1.4752,1.1826,-0.87598
1,3.4912,-3.7265,6.3547,-1.4496,1.1005,-1.0675
1,2.8635,-3.3146,6.8254,-1.3186,1.0431,-1.051
1,2.6086,-3.3146,7.1785,-1.1072,1.0128,-1.0525
1,2.6478,-3.2362,7.3158,-0.8714,1.003,-1.0348
1,2.3732,-3.2362,7.2373,-0.65485,1.011,-0.99357
1,2.6282,-3.55,7.0608,-0.48747,1.0223,-0.9557
1,2.589,-3.8638,6.8254,-0.52473,0.64324,-1.9603
1,2.4517,-4.3934,7.3158,-0.43585,0.78221,-1.9676
1,2.1182,-5.2956,7.5903,-0.47556,0.87445,-1.5812
1,2.589,-5.9036,7.5511,-0.60598,0.92638,-1.6512
1,2.7851,-5.9624,7.4531,-0.80879,0.94684,-1.7104
1,2.5497,-5.7467,7.6492,-1.0165,0.95173,-1.7669
1,2.2948,-5.3348,7.4727,-1.1652,0.97219,-1.8384
1,2.1378,-5.1975,7.61,-1.2104,1.0406,-1.9117
1,1.6867,-5.6486,7.8061,-0.78099,0.48228,-0.002138
1,1.6083,-6.2763,7.8649,-0.6463,0.50641,0.0051924
1,1.7064,-6.6685,7.6884,-0.47037,0.54856,0.0067195
1,1.8633,-6.0213,7.61,-0.28436,0.59223,-0.016188
1,1.6867,-5.5506,7.6492,-0.12187,0.62278,-0.027794
1,1.7064,-5.5898,7.6296,-0.01069,0.63377,-0.025656
1,1.7456,-5.4133,6.4332,0.040317,0.62064,-0.016493
1,2.0202,-5.2564,5.4525,0.047037,0.58399,-0.01069
1,2.2359,-5.5898,5.4329,-0.10415,0.53359,-0.083078
1,2.5105,-5.2368,5.276,-0.17898,0.48106,-0.092546
1,2.3928,-4.6484,5.4917,-0.23457,0.4218,0.0024435
1,2.4517,-4.6484,5.5113,-0.25565,0.36346,-0.0036652
1,2.1182,-5.4133,5.8252,-0.25076,0.30727,-0.0088575
1,2.1771,-7.3942,5.9232,-0.25992,0.2587,-0.016799
1,3.0793,-8.6887,5.0798,0.016188,0.22816,-0.036346
1,3.1577,-8.0218,4.4914,-0.036957,0.19334,-0.064752
1,2.7459,-6.7666,4.5699,-0.48014,0.15149,-0.21228
1,2.687,-6.3547,4.9229,-0.31796,0.11301,-0.23946
1,2.7851,-6.6881,4.9229,-0.34728,0.044899,-0.10415
1,2.942,-7.2765,4.8837,-0.3653,-0.042455,-0.1182
1,3.4127,-7.708,4.6484,-0.38179,-0.099876,-0.14233
1,3.4127,-7.3942,4.7268,-0.35766,-0.11668,-0.18143
1,3.2558,-7.0216,4.9426,-0.32162,-0.12645,-0.20556
1,2.8635,-6.5312,5.1779,-0.36499,-0.17746,-0.20495
1,2.8635,-6.2959,5.1191,-1.5308,0.064752,0.037263
0.97845,2.687,-6.492,5.0995,-1.1848,0.23854,0.026878
0.92859,2.687,-6.9235,5.1779,-0.89583,0.38882,0.057116
0.87143,2.8635,-7.2177,5.276,-0.73457,0.48045,0.075747
0.84058,3.1774,-7.2961,5.1779,-0.69455,0.5174,0.071471
0.80966,2.9224,-7.0804,5.2368,-0.74587,0.51435,0.05681
0.79062,3.2362,-6.9039,4.8837,-0.8207,0.49388,0.047342
0.7872,3.7265,-6.7666,4.6091,-0.84452,0.47861,0.042455
0.79309,3.4323,-6.8254,4.8641,-0.21472,-0.071471,0.034819
0.81903,3.8638,-7.3942,4.4914,-0.18815,-0.051007,0.025656
0.83511,4.0207,-6.7666,4.4914,-0.16738,-0.040623,0.056505
0.82196,3.2558,-6.6097,3.5304,-0.15241,-0.030238,0.053756
0.80133,3.3146,-7.0216,3.0597,-0.14386,-0.020159,0.054367
0.75293,3.2754,-6.3939,3.2166,-0.10812,-0.0097738,0.045815
0.71176,3.0008,-5.4525,3.6873,-0.061697,0.0064141,0.043677
0.67233,2.3732,-4.9426,3.6873,-0.019548,0.021075,0.044288
0.65012,2.3732,-5.7467,3.3931,0.022297,0.034514,0.011301
0.66937,2.4909,-6.4528,3.8246,0.040012,0.047037,0.011912
0.70245,2.6282,-7.4727,4.1384,0.031154,0.054978,0.024435
0.7579,2.4517,-7.9238,4.413,0.012217,0.057116,0.02474
0.81409,2.432,-8.4141,4.6287,-0.012217,0.050396,0.020464
0.89877,2.3732,-8.4729,4.8641,-0.053451,0.041844,0.01405
0.95163,2.589,-7.708,5.5702,-0.074831,0.029322,0.0085521
0.97488,2.1575,-6.5312,5.7663,-0.085521,0.019548,0.0073304
0.98019,2.4517,-6.0605,5.7467,0.53023,0.40928,0.018021
0.93359,2.6086,-5.9624,5.5702,0.62003,0.42211,0.037263
0.88177,2.9224,-6.3743,5.2956,0.64538,0.40378,0.062614
0.81607,2.9224,-6.6489,5.1779,0.61117,0.36255,0.027794
0.73621,3.2558,-6.7666,4.8249,0.53726,0.30391,-0.0012217
0.64459,3.0008,-6.9627,4.766,0.4105,0.22541,-0.010385
0.55389,3.2166,-7.0804,4.4914,0.24862,0.13928,-0.0067195
0.47623,3.0597,-6.8647,4.4914,0.07422,0.057116,0.0027489
0.38474,2.9224,-7.0804,4.413,-0.091324,-0.011912,0.066584
0.30469,3.0793,-6.9627,4.5111,-0.22694,-0.058338,0.063225
0.22101,2.9224,-7.0019,4.5503,-0.32193,-0.083689,0.053756
0.13571,2.8047,-7.0019,4.6484,-0.36835,-0.10018,0.065363
0.045898,2.9224,-7.0019,4.6484,-0.3821,-0.10904,0.07422
-0.034851,2.9224,-6.6685,4.766,-0.37232,-0.10965,0.076053
-0.11465,2.8635,-6.7666,4.7268,-0.3485,-0.10599,0.073304
-0.16486,2.8635,-6.9823,4.5699,-0.30299,-0.094684,0.069639
-0.21637,3.0008,-6.9235,4.6287,0.081551,-0.0085521,0.020159
-0.25894,2.7459,-6.9039,4.6091,0.068722,-0.0085521,0.030543
-0.2851,2.9224,-6.9823,4.4914,0.066584,-0.014355,-0.0009163
-0.30237,2.7851,-6.9627,4.6484,0.064141,-0.023518,0.0024435
-0.33243,2.8635,-6.8647,4.7268,0.059865,-0.026878,0.0036652
-0.36533,2.7459,-6.6685,4.6484,0.0064141,-0.026878,0.012217
-0.37704,2.9224,-6.7666,4.6484,0.082467,-0.025045,0.013134
-0.39896,2.7459,-6.9823,4.668,0.089186,-0.040623,0.013744
-0.41614,3.0204,-7.0019,4.6484,-0.047037,0.032987,-0.015882
-0.42917,2.8047,-6.7666,4.5699,-0.048564,0.033903,-0.017104
-0.44778,2.9224,-6.7077,4.668,-0.056505,0.035736,-0.015577
-0.45474,2.8635,-6.7666,4.6484,-0.064141,0.033598,-0.018326
-0.46832,2.7851,-6.9039,4.668,-0.069639,0.030543,-0.019548
-0.48102,2.942,-7.0804,4.6484,-0.075136,0.026878,-0.020464
-0.48761,2.6478,-6.7666,4.7268,-0.078496,0.023518,-0.018631
-0.49164,2.8635,-6.9823,4.5699,-0.079107,0.020464,-0.015577
-0.49347,2.7655,-6.8647,4.6484,-0.061697,0.020769,0.0082467
-0.48523,2.9224,-6.9235,4.4914,-0.051007,0.021991,0.0094684
-0.47498,2.8439,-7.0216,4.4522,-0.041233,0.020769,-0.013134
-0.46188,2.9616,-6.845,4.5503,-0.031154,0.022297,-0.0094684
-0.44559,2.8635,-6.9039,4.4914,-0.014661,0.024129,-0.0064141
-0.43124,2.7459,-7.0019,4.6091,0.0030543,0.025656,-0.0018326
-0.40738,2.7655,-6.9823,4.413,-0.074526,0.025045,0.0036652
-0.39774,2.7851,-6.845,4.6091,-0.069639,0.022602,0.007025
-0.37439,2.7459,-6.845,4.6091,0.033598,0.021686,-0.01405
-0.37332,2.8635,-6.9823,4.6484,0.040317,0.016799,-0.01069
-0.38354,2.8047,-6.8647,4.4914,0.043982,0.011606,0.0073304
-0.38651,2.7066,-6.7666,4.7268,0.050396,0.0042761,0.0018326
-0.40326,2.9028,-6.845,4.6484,0.061392,-0.0036652,-0.0039706
-0.42825,2.8635,-6.6489,4.7268,0.07025,-0.0082467,-0.0076358
-0.43671,2.942,-6.845,4.6484,0.016188,-0.010079,-0.010385
-0.45532,3.0008,-6.9039,4.5503,0.025351,-0.010385,-0.012828
-0.4736,3.0793,-6.9823,4.4914,-0.42883,-0.37874,-1.3668
-0.47189,2.8635,-7.2177,4.7072,-0.53451,-0.57788,-1.4337
-0.47443,2.942,-6.6881,4.8053,-0.5733,-0.77305,-0.47617
-0.47192,3.0008,-6.6685,4.7856,-0.45723,-0.88178,-0.62033
-0.47751,2.687,-6.7077,4.8641,-0.12217,-0.93707,-0.76175
-0.47769,2.7851,-7.0019,4.766,0.48136,-0.93707,-0.92852
-0.48514,2.687,-6.9823,4.8641,1.1729,-0.91508,-1.0956
-0.47632,2.9028,-7.0804,4.9229,1.8488,-0.88667,-1.2434
-0.45099,2.9224,-7.7473,5.3348,2.4596,-0.8543,-0.86957
-0.38275,3.2558,-8.7868,5.0406,2.901,-0.83566,-0.72968
-0.26126,3.7069,-9.1006,6.2959,3.1484,-0.84116,-1.4251
-0.091217,3.5696,-9.9047,6.845,3.2089,-0.86193,-1.3693
0.093658,3.8834,-10.67,6.3743,3.1133,-0.90927,-1.2953
0.26926,5.4133,-10.277,5.9821,2.9123,-0.9893,-1.2068
0.41101,5.7467,-9.2771,6.1978,2.6347,-1.0727,-1.1057
0.5376,5.9232,-7.1589,6.5508,2.3115,-1.138,-0.9951
0.62292,5.6879,-5.021,6.5901,1.8076,-1.16,0.33414
0.63666,5.0995,-3.1381,6.747,1.5846,-1.128,0.42211
0.59796,4.9622,-1.7456,6.6685,1.3793,-1.0547,-0.5623
0.49249,4.9622,-1.1964,6.2959,1.1805,-0.97922,-0.36713
0.35703,5.1191,-0.68647,5.2564,1.007,-0.91263,-0.16738
0.21155,5.5898,-0.94144,4.7856,0.87842,-0.84971,-0.0045815
0.065826,5.1191,-2.1378,4.7268,0.78435,-0.78099,0.11148
-0.066284,4.5111,-3.5304,4.8249,0.7254,-0.71563,0.22083
-0.15405,4.0403,-4.9426,4.9818,0.70891,-0.66523,0.66371
-0.23492,4.1188,-5.7663,4.4914,0.74556,-0.61392,0.75931
-0.30984,4.3149,-6.1978,4.413,0.84483,-0.53451,0.46578
-0.38083,4.3738,-4.9622,4.4914,0.97494,-0.41508,0.4725
-0.4772,4.2561,-3.55,5.0406,1.153,-0.30574,0.47067
-0.58667,3.903,-4.1972,5.5898,1.4151,-0.21319,0.4777
-0.73227,4.0207,-4.7072,4.668,1.5678,-0.025045,0.48136
-0.89621,4.1776,-4.2561,4.2365,1.5021,0.14539,0.52626
-0.99997,4.06,-3.6873,4.5503,-0.14844,0.14416,0.13408
-0.99997,4.158,-3.197,5.7663,-0.064752,0.15821,0.15455
-0.99997,3.3735,-3.7854,7.7865,0.052229,0.19517,0.16952
-0.99997,2.8439,-4.9426,8.8848,0.15974,0.23549,0.13653
-0.99997,3.1774,-4.7268,8.3945,0.24771,0.26909,0.12034
-0.99997,3.4323,-4.1972,7.7865,0.31093,0.30116,0.11423
-0.99997,3.4127,-3.8638,7.2961,0.33964,0.3262,0.11423
-0.99997,3.7069,-3.6677,7.4727,0.33017,0.34056,0.1182
-0.99997,3.5892,-3.6677,8.0807,0.043982,0.33323,0.14508
-0.99997,3.4127,-3.4519,8.4141,-0.072693,0.31796,0.13653
-0.99997,3.4127,-3.3931,8.1787,-0.14875,0.30299,0.16554
-0.99997,3.5696,-3.2362,7.963,-0.16707,0.29627,0.16738
-0.99997,3.1185,-3.4716,7.9238,-0.11454,0.30574,0.16585
-0.99997,2.942,-4.1384,8.0611,-0.0097738,0.34056,0.15302
-0.99997,3.2558,-4.5503,7.963,0.2697,0.39615,0.135
-0.99997,3.6285,-4.3934,7.7669,0.16829,0.45998,0.13561
-0.99997,3.55,-3.8638,7.6884,0.35277,0.5339,0.097738
-0.99997,3.3343,-3.2362,7.61,0.40959,0.61239,0.059865
-0.99997,3.2754,-2.5105,8.0022,0.38729,0.67165,0.12675
-0.99997,3.2166,-2.4713,8.0807,0.27184,0.68875,0.12339
-0.99997,3.0793,-2.8243,8.0807,0.03207,0.6524,0.12767
-0.99997,3.3343,-3.0793,7.8061,-0.31429,0.5565,0.13347
-0.99997,3.2362,-3.3735,7.6884,0.12034,0.38882,0.13408
-0.99997,2.8635,-3.3735,7.9434,0.24832,0.15913,0.12492
-0.99997,2.7459,-3.2362,8.7083,-1.3916,-0.12187,0.18112
-0.99997,1.7652,-2.9028,10.16,-1.6295,-0.42516,0.16035
-0.99997,0.98067,-2.6086,11.395,-1.8494,-0.69639,0.024129
-0.99997,0.43149,-2.6674,11.631,-2.0659,-0.91111,0.028405
-0.99997,0.56879,-2.7655,10.846,-2.2614,-1.076,0.069333
-0.99997,1.2356,-2.8832,10.003,-2.3903,-1.2175,0.1124
-0.99997,1.824,-2.8439,9.0221,-0.71349,-1.3457,0.14966
-0.99997,1.7456,-3.3539,7.4531,-1.0934,-1.4325,0.17685
-0.99997,2.2948,-4.2953,5.7467,2.3195,0.94837,-0.4441
-0.99997,2.9224,-5.3348,4.0207,2.463,0.95753,-0.48258
-0.99997,3.5696,-5.2564,3.1577,2.4823,0.96669,-0.38607
-0.99997,4.0403,-5.4525,2.5301,2.2898,0.94745,-0.36041
-0.99997,4.668,-5.2564,2.2555,1.9086,0.88209,-0.30665
-0.99997,4.5111,-5.1191,2.7851,1.4752,0.76511,-0.30268
-0.99997,4.0011,-5.3937,3.8442,1.1118,0.62766,-0.34911
-0.99997,3.7854,-5.4525,4.668,0.92088,0.53603,-0.39218
-0.97156,3.805,-5.4525,5.5506,0.88117,0.50091,0.075442
-0.82632,3.1577,-5.1191,6.2174,0.85704,0.47892,0.1014
-0.71066,2.6478,-5.3937,6.8647,0.75992,0.43707,-0.4554
-0.6514,3.0989,-6.2763,7.3354,0.56688,0.37904,-0.36072
-0.63541,3.0793,-5.8252,8.4729,0.28802,0.32467,-0.24679
-0.63602,2.589,-4.4522,9.434,-0.027794,0.26756,-0.14294
-0.71426,1.7456,-3.4519,9.179,-0.30055,0.20647,-0.047037
-0.82751,2.2359,-3.4716,9.3359,-0.46487,0.14508,0.030238
-0.95743,1.5298,-3.3539,9.1202,-0.52534,0.043066,0.79382
-0.99997,1.0199,-3.0008,9.3359,-0.46517,-0.11454,0.86651
-0.99997,0.2942,-1.8829,9.8851,-0.23976,-0.21319,0.11606
-0.99997,0.41188,-0.86299,10.454,0.10873,-0.07758,0.12309
-0.99997,0.50995,-0.62763,10.042,0.20403,0.34178,0.17074
-0.99997,0.90221,-0.90221,9.689,-0.36224,0.78099,0.27397
-0.99997,1.3533,-0.23536,10.12,-1.7736,0.8885,0.38362
-0.99997,1.824,0.19613,10.219,-3.3405,0.32498,0.5455
-0.99997,2.4517,0.39227,9.787,1.6417,1.1805,-0.32712
-0.99997,2.0202,0.45111,10.16,1.678,1.1545,-0.36805
-0.99997,1.7456,-0.86299,12.415,1.6286,1.0556,-0.059865
-0.99997,2.2359,-2.6282,10.474,1.5488,0.91905,-0.028405
-0.99997,4.2561,-0.86299,5.4329,1.4707,0.85246,-0.069944
-0.99997,0.17652,3.5892,11.101,1.5018,0.85246,-0.18387
-0.99997,-4.766,4.9229,12.925,1.6854,0.88392,-0.27245
-0.99997,-4.766,-3.3931,7.7473,1.9279,0.93646,-0.29871
-0.99997,0.70608,-9.2183,4.4914,0.3485,0.078191,-0.40073
-0.99997,3.5696,-8.4141,4.5111,0.28161,0.17318,-0.3824
-0.99997,2.0006,-4.1972,6.2174,0.15333,0.20861,-0.146
-0.79672,1.3337,-0.86299,7.8061,0.050091,0.19181,-0.18876
-0.50449,1.2749,-0.37265,8.6299,0.01069,0.12889,-0.24679
-0.25644,2.2751,-1.2553,9.179,0.023518,0.07025,-0.30146
-0.021881,2.4713,-1.7456,9.1202,0.12034,0.057116,-0.3485
0.18393,2.2163,-1.9417,9.1202,0.2978,0.077885,-0.3879
0.33044,2.0006,-1.8829,8.9437,-0.013744,0.11484,-0.15547
0.36377,1.5298,-1.1768,8.4337,-0.16829,0.14966,-0.15516
0.30603,0.41188,-0.72569,9.1006,-0.32895,0.17287,-0.35033
0.2002,-0.49033,-1.6279,9.6694,-0.36346,0.13164,-0.30085
0.099335,-0.52956,-3.8638,10.513,-0.33353,0.03879,-0.22602
0.060822,0.90221,-4.6484,10.258,-0.29108,-0.0085521,-0.1857
0.047882,1.216,-3.4519,9.9636,0.054978,-0.023824,-0.18692
0.0097961,1.118,-1.9809,9.9832,0.051924,-0.022907,-0.16585
-0.049561,1.3533,-1.5102,9.4732,-0.62492,0.14233,0.18051
-0.12933,1.4318,-2.3144,8.1787,-0.81367,-0.067195,0.18387
-0.21536,1.3533,-3.8834,7.2373,-0.88362,-0.20678,0.080329
-0.27005,1.824,-5.2564,7.0019,-0.80176,-0.24038,0.012523
-0.30258,1.824,-5.021,7.4531,-0.63897,-0.25473,-0.0073304
-0.3121,1.4318,-4.3345,8.0022,-0.52412,-0.29138,0.045815
-0.32913,0.8826,-3.4127,8.1199,-0.551,-0.35003,0.12004
-0.36673,0.90221,-3.0008,7.8649,-0.72785,-0.43463,0.15852
-0.42572,1.0591,-2.6086,7.5903,-1.0131,-0.52993,-0.15058
-0.46094,1.2356,-2.1967,7.5511,-1.2804,-0.61575,-0.14447
-0.48331,1.0787,-1.726,7.9434,-1.4099,-0.64324,0.15455
-0.47855,0.80415,-2.432,8.1787,-1.3854,-0.60415,0.1011
-0.44766,1.1964,-3.6677,8.4141,-1.2184,-0.53542,0.034514
-0.38568,1.4906,-3.7658,8.4926,-0.92638,-0.41753,-0.033903
-0.314,1.2945,-3.3931,9.0221,-0.56383,-0.24923,-0.093462
-0.23972,1.118,-3.5304,9.3163,-0.19609,-0.07758,-0.13378
-0.16666,1.2749,-3.5696,9.0417,1.668,0.54947,0.60018
-0.092896,1.6083,-3.8834,9.0025,1.748,0.67073,0.55375
-0.025116,1.824,-3.1381,8.6299,1.6845,0.71288,0.37385
0.029633,1.3729,-2.4713,8.7083,1.5107,0.70372,0.44807
0.048248,1.118,-2.4124,8.4141,1.2297,0.66859,0.51832
0.080414,1.5102,-2.5105,7.9042,0.88667,0.59407,0.57635
0.092529,1.7064,-2.1182,7.6884,0.56047,0.48686,0.61025
0.098846,1.2945,-1.5102,8.0022,0.30879,0.38546,0.62125
0.0961,0.74531,-1.0983,8.1591,-0.15088,0.30116,0.043371
0.097565,0.60801,-0.80415,8.5514,0.20525,0.22266,-0.12828
0.11917,0.96105,-0.39227,9.0025,0.029322,0.1744,0.49297
0.11136,0.96105,-1.0003,9.3359,-0.053145,0.17593,0.41844
0.14169,1.2945,-2.1967,9.1594,-0.026573,0.16188,0.36957
0.20203,1.1768,-3.2558,9.434,-0.0051924,0.097738,0.34911
0.32385,1.4318,-4.3345,9.5125,-0.045815,0.015577,0.29291
0.46881,2.1575,-4.158,8.8652,-0.12156,-0.08827,0.18692
0.62567,2.0594,-2.8832,8.7279,0.5568,0.19945,0.40439
0.77219,1.1964,-0.86299,9.3359,1.0424,0.34728,0.3766
0.87137,0.23536,0.23536,10.454,1.5321,0.53206,0.23274
0.89929,-0.23536,0.078453,10.513,1.8802,0.69578,0.28222
0.90805,-0.13729,-0.098066,9.6694,2.0256,0.7813,0.33017
0.92435,0.39227,-0.39227,9.4732,1.9813,0.78527,0.36011
0.95892,0.66685,-0.49033,8.9044,1.7559,0.71563,0.39981
1,0.66685,0.078453,8.8064,1.4117,0.56566,0.41905
1,0.49033,1.0787,9.1202,0.93371,0.39401,0.26053
1,0.17652,1.8829,9.4144,0.82161,0.27489,0.3036
1,-0.05884,1.7064,9.787,0.77274,0.22449,0.34239
1,-0.11768,0.35304,9.7478,0.75961,0.21044,0.30513
1,-0.2942,-0.80415,10.12,0.80726,0.20281,0.281
1,-0.05884,-0.94144,9.5125,0.95692,0.22358,0.27245
1,-0.33343,-1.2553,8.9044,1.182,0.29688,0.26603
1,-0.68647,-2.4713,9.6694,1.4355,0.41203,0.25443
1,-1.0787,-3.4519,10.297,0.25534,0.17746,-0.1127
1,-1.1572,-3.0008,10.454,0.146,0.14325,-0.073609
1,-0.82376,-1.9809,10.454,0.093768,0.10385,-0.12828
1,-0.039227,-1.5691,9.6497,0.11454,0.073915,-0.14691
1,0.49033,-0.70608,9.5125,0.17104,0.060781,-0.17013
1,0.74531,0.47072,9.5125,0.2022,0.073609,-0.17685
1,1.0199,1.0983,9.3359,0.4609,0.10507,-0.16982
1,1.5298,1.2356,9.0221,0.3769,0.12706,-0.15149
1,1.7456,1.3925,8.4926,-1.106,-0.14752,0.23671
1,1.9221,1.8829,8.218,-1.0043,-0.15333,0.19578
0.91739,1.3533,3.0401,8.2572,-0.90775,-0.18021,0.36041
0.62839,0.70608,2.9616,7.9434,-0.83353,-0.21961,0.39859
0.35428,0.49033,1.1572,8.3749,-0.77733,-0.24282,0.40959
0.10968,0.098066,-0.86299,9.8851,-0.68631,-0.22877,0.38546
-0.065857,-0.35304,-2.3732,10.532,-0.56505,-0.19548,0.33964
-0.19,-0.35304,-2.7655,10.375,-0.45143,-0.15272,0.29138
-0.27325,-0.13729,-2.9028,9.4732,-0.16402,-0.11454,0.016493
-0.32663,0.17652,-3.0989,8.7083,-0.045815,-0.10415,0.00030543
-0.34454,0.098066,-3.8638,8.7083,0.095906,-0.08094,0.15088
-0.32477,0.74531,-3.6677,9.3555,0.20495,-0.029932,0.037874
-0.29327,1.216,-3.0401,8.8456,0.24221,0.050091,-0.054062
-0.26086,1.1964,-2.1378,8.316,0.21961,0.14264,-0.042455
-0.24332,0.80415,-1.9417,8.6299,-0.33017,0.197,0.0039706
-0.2439,0.86299,-2.6674,8.8456,-0.23915,0.18845,0.022602
-0.23856,1.0395,-3.0793,8.7279,0.11087,0.15088,-0.10904
-0.22421,1.0591,-2.9812,8.5318,0.14447,0.10446,-0.1179
-0.22458,1.118,-2.3732,8.8456,0.23121,0.065057,-0.026573
-0.2088,0.8826,-1.9809,8.9437,0.34697,0.062003,-0.059559
-0.23352,1.1964,-1.9809,8.7083,0.43921,0.090103,-0.09163
-0.24405,1.216,-2.0594,8.6887,0.48228,0.13317,-0.11057
-0.26654,1.3533,-1.7848,8.8652,0.17104,0.16799,-0.10965
-0.27954,1.1768,-1.5691,8.7475,0.12462,0.18418,-0.10476
-0.28873,1.118,-1.7456,8.8064,0.022297,0.033903,-0.0042761
-0.26453,0.90221,-2.0986,9.3359,0.0009163,0.025351,-0.0033598
-0.23883,0.74531,-1.824,9.2575,-0.014661,0.018326,-0.03543
-0.19022,0.90221,-1.7456,9.1202,-0.019548,0.010385,-0.037263
-0.17703,0.66685,-1.8829,8.9437,-0.0064141,0.015577,-0.040012
-0.14166,0.8826,-2.1967,8.8064,-0.0045815,0.014355,-0.034514
-0.098541,0.98067,-2.3144,8.8652,-0.018631,-0.00030543,-0.01405
-0.052246,0.98067,-2.0398,8.9633,-0.037263,-0.018937,-0.0042761
-0.012573,0.74531,-2.1378,9.0613,-0.041539,-0.037263,-0.0054978
0.032715,0.74531,-2.2751,8.8848,-0.0281,-0.043066,-0.018937
0.067383,0.98067,-2.1967,9.0417,-0.0018326,-0.029016,-0.0058032
0.10577,0.98067,-2.1378,8.9044,0.027184,-0.012523,-0.0061087
0.13651,0.92183,-1.9809,9.1202,0.046731,-0.00061087,0.0030543
0.1507,0.74531,-1.9613,8.9437,0.03543,0.016493,0.0067195
0.16885,0.90221,-2.0594,9.0221,0.0012217,0.022907,0.0039706
0.18277,0.80415,-2.0594,9.1986,-0.032376,0.011301,0.0015272
0.18027,0.74531,-1.8829,9.1202,-0.053451,0.0094684,-0.041844
0.18069,0.80415,-2.0006,9.0221,-0.058338,0.025045,-0.046731
0.16208,0.90221,-2.1182,8.9044,-0.052534,0.041539,-0.031154
0.14761,0.90221,-1.9809,8.7868,-0.041539,0.054672,-0.029016
0.12808,0.96105,-1.9417,8.9044,-0.026267,0.065057,-0.027794
0.099915,0.92183,-2.0594,8.8064,-0.0094684,0.067501,-0.030543
0.087402,1.0787,-1.9809,8.6887,0.013134,0.064752,-0.026878
0.060944,1.216,-2.0986,8.9044,0.038485,0.065973,-0.030238
0.036987,1.1768,-2.2948,9.0417,0.062919,0.06689,-0.060476
0.011322,1.118,-2.2555,9.0221,0.06353,0.067501,-0.068722
0.00094604,0.98067,-2.1378,9.1202,0.041233,0.067501,-0.047037
-0.026154,0.74531,-1.9809,9.1202,0.027184,0.067806,-0.043371
-0.046661,0.8826,-1.8829,9.2183,0.015272,0.065363,-0.046731
-0.067291,0.86299,-1.8829,9.179,-0.0024435,0.05284,-0.048564
-0.098083,1.1768,-2.2751,8.9437,-0.031765,0.029016,-0.044899
-0.10898,1.0591,-2.2751,8.9044,-0.033903,0.007025,-0.048258
-0.12393,0.98067,-1.8829,9.2183,-0.088881,0.030238,-0.017715
-0.11475,0.72569,-1.824,9.1202,-0.12248,0.016799,-0.014966
-0.10248,0.70608,-1.9809,9.179,-0.15577,-0.013439,0.0030543
-0.087189,0.92183,-2.0006,8.8652,-0.17593,-0.038485,-0.00061087
-0.089996,0.86299,-1.8044,8.8064,-0.16921,-0.043982,-0.011301
-0.10092,0.80415,-1.824,8.9437,-0.14386,-0.038179,-0.021686
-0.083557,0.80415,-1.6671,9.1594,-0.11637,-0.03146,-0.020159
-0.076935,0.5884,-1.8044,8.9437,-0.097738,-0.026267,-0.017715
-0.052185,0.74531,-1.9809,8.8064,-0.11942,-0.027489,-0.050091
-0.026398,0.96105,-1.9613,8.8064,-0.12553,-0.037874,-0.048258
0.0015869,1.0003,-1.7848,8.8652,-0.12523,-0.054062,-0.012523
0.032654,0.70608,-1.824,8.9633,-0.11668,-0.066279,-0.017715
0.063751,0.96105,-2.0986,8.8064,-0.093157,-0.074526,-0.021991
0.09256,1.118,-2.3144,8.8456,-0.069944,-0.07758,-0.025045
0.13345,1.2356,-2.2751,8.6887,-0.096517,-0.080023,-0.034514
0.18008,1.118,-2.0594,8.8652,-0.10629,-0.079718,-0.04612
0.2164,1.1964,-1.9417,9.1202,-0.05681,-0.076053,-0.047953
0.24738,1.118,-2.2751,9.0221,-0.070555,-0.072693,-0.051618
0.26688,1.2945,-2.2751,9.1202,-0.093768,-0.075747,-0.048869
0.30048,1.2945,-2.2163,9.1202,-0.11148,-0.079718,-0.043677
0.32172,0.86299,-2.2163,9.1986,-0.10507,-0.072998,-0.041233
0.33939,1.0395,-2.1967,9.179,-0.073304,-0.058948,-0.050702
0.35129,1.0199,-2.2948,9.0221,-0.060781,-0.042761,-0.061087
0.35989,0.80415,-2.3144,9.0025,-0.05681,-0.037263,-0.059865
0.3389,1.0395,-2.2948,8.8064,-0.17654,-0.040928,0.0033598
0.32126,0.96105,-2.1967,8.7868,-0.18998,-0.051313,0.0036652
0.28067,1.118,-2.2948,8.6299,-0.18204,-0.054978,0.043677
0.23621,1.6083,-2.589,8.4141,-0.15608,-0.051618,0.03879
0.19208,1.2356,-2.5693,8.7279,-0.11881,-0.040012,0.03207
0.15375,1.3729,-2.7262,8.8064,-0.08491,-0.015272,0.016493
0.10931,1.5298,-2.4713,8.7279,-0.068417,0.012217,0.0018326
0.061676,1.5495,-2.2948,8.7083,-0.069639,0.028711,0.00030543
0.011383,1.5102,-2.2163,8.5906,0.27581,0.29749,0.14569
-0.049164,1.5298,-2.2751,8.5514,0.23243,0.24618,0.054672
-0.10175,1.5102,-1.9809,8.5318,0.28527,0.2022,0.076664
-0.15933,1.2749,-1.8829,8.6299,0.38607,0.1854,0.099876
-0.2366,1.0591,-1.7456,8.6887,0.5678,0.18601,0.11026
-0.31598,0.56879,-1.8044,9.179,0.69486,0.27733,0.097738
-0.39536,0.5884,-2.2751,9.2183,0.45601,0.21136,0.066584
-0.46591,0.5884,-2.7459,8.7083,0.074526,-0.057421,0.14752
-0.53275,0.80415,-2.6282,8.8652,-0.43982,-0.42364,-0.11179
-0.56332,0.66685,-2.3536,9.6694,-0.85246,-0.82558,-0.065057
-0.58609,0.90221,-2.0594,9.179,-1.0143,-1.0586,0.024435
-0.60056,1.118,-2.1575,8.0218,-0.93982,-1.1026,-0.047037
-0.59338,1.3337,-2.0594,8.5906,-0.72998,-1.0256,-0.051618
-0.59601,1.118,-2.7262,9.0417,-0.52595,-0.91416,-0.051618
-0.57935,1.5298,-2.5693,8.7083,-0.30513,-0.81031,-0.079412
-0.59134,1.5495,-2.6086,8.316,-0.12798,-0.67501,-0.10934
-0.59891,1.5298,-2.1182,8.4141,-0.057116,-0.55222,0.084299
-0.63437,1.2356,-1.6279,8.8064,-0.08491,-0.47281,0.071471
-0.67435,1.0787,-1.3533,9.179,-0.19364,-0.43524,-0.036346
-0.76855,0.56879,-1.7456,9.3163,-0.32345,-0.41936,-0.018326
-0.89291,0.27459,-2.2751,9.4928,-0.4499,-0.4105,0.013439
-0.99997,0.41188,-2.1967,7.9042,-0.56963,-0.40195,0.059865
-0.99997,-1.7064,-2.0594,12.925,-0.65729,-0.39034,0.098655
-0.99997,-1.6279,-1.471,13.435,-0.67684,-0.36255,0.098655
-0.99997,0.54917,-2.0594,9.2183,0.1576,0.10263,-0.0024435
-0.99997,0.76492,-2.4713,7.0608,0.17135,0.13164,0.029932
-0.99997,1.0395,-2.2948,6.9627,0.22022,0.16585,-0.042455
-0.99997,1.7456,-1.9417,7.4531,0.30238,0.22724,-0.059865
-0.99997,1.824,-1.824,8.1787,0.39279,0.28772,-0.08491
-0.99997,2.0006,-1.471,8.8652,0.4496,0.32315,-0.087659
-0.99997,2.2359,-1.3141,8.6299,0.44502,0.32345,-0.057727
-0.95111,2.2948,-1.5887,8.2572,0.39798,0.31734,-0.024129
-0.75281,2.6086,-2.432,7.7865,0.010996,0.08827,-0.01069
-0.53473,2.8635,-2.687,7.8649,-0.018021,0.074526,-0.0033598
-0.30307,2.8635,-2.3144,8.0807,0.01741,0.025656,0.10171
-0.11334,2.5301,-2.2751,8.5318,0.099571,-0.01741,0.087659
0.044067,2.3732,-2.3144,8.6495,0.16554,-0.019242,0.055283
0.16904,2.2948,-2.5105,8.8652,0.19487,0.0051924,0.020159
0.2713,2.2163,-3.0401,8.9437,0.12492,0.036041,0.010385
0.36722,2.2359,-3.3539,8.8652,0.067806,0.054367,0.0058032
0.43518,2.4517,-3.3146,8.316,0.05681,0.049786,-0.21441
0.47983,2.5301,-2.8832,8.316,-0.043371,0.029016,-0.23732
0.51468,2.0594,-2.589,8.8064,-0.13683,0.011606,-0.010385
0.52484,1.5298,-2.2751,9.2575,-0.15363,0.015882,-0.055589
0.53207,1.3533,-2.432,9.4928,-0.083994,0.021991,-0.093157
0.50784,1.4318,-2.687,9.0417,0.043371,0.044899,-0.11576
0.47592,1.4906,-2.942,8.4926,0.18723,0.1066,-0.1518
0.44681,1.7064,-2.7459,8.2572,0.13714,0.17287,-0.18631
0.39981,1.3729,-2.1967,8.8652,-0.090103,-0.091935,0.047953
0.37494,1.2356,-1.9809,9.1202,-0.10599,-0.12309,0.049786
0.33496,1.216,-1.9809,9.0025,-0.039095,-0.10629,0.046426
0.29129,1.6867,-1.9417,8.9044,0.073304,-0.048258,0.027489
0.2529,1.5495,-1.9613,8.8456,0.20495,0.016188,0.022907
0.21683,1.3925,-1.8437,8.7083,0.33445,0.077274,0.030849
0.17282,1.4906,-1.6279,8.4926,0.41997,0.11698,0.034208
0.098907,1.3729,-2.2948,8.8652,0.42455,0.12889,0.039095
0.029022,1.7652,-2.7851,8.9437,0.2025,0.10324,0.094684
-0.020508,2.1575,-3.0008,9.0417,0.18234,0.058948,0.10446
-0.059662,1.8633,-2.2948,9.0025,0.18692,0.025351,0.036957
-0.10138,2.1378,-1.9809,8.9437,0.19059,0.011912,0.021991
-0.13843,2.6282,-2.2948,8.4141,0.18906,0.012217,0.028711
-0.16989,2.8635,-2.7851,8.0022,0.17013,0.013439,0.051007
-0.18307,2.432,-3.0989,8.0807,0.3543,0.028405,0.070555
-0.19177,1.8044,-3.0401,8.9044,0.26603,0.062003,0.08094
-0.19696,1.5495,-2.2751,9.5125,-0.16188,-0.045815,-0.020769
-0.20053,0.96105,-1.8044,9.434,-0.096517,-0.062614,-0.0054978
-0.24915,1.0199,-1.1768,8.7868,-0.009163,-0.062003,-0.025351
-0.28665,0.66685,-1.0591,8.5318,0.085827,-0.046426,-0.037874
-0.34683,0.49033,-1.3141,8.6299,0.16707,-0.023824,-0.045815
-0.38251,0.49033,-2.3732,9.0417,0.20769,-0.0024435,-0.040623
-0.37933,0.98067,-2.432,8.8848,0.19731,0.016188,-0.036346
-0.39294,1.3533,-1.5102,9.2575,0.13256,0.01741,-0.036957
-0.38913,1.1964,-1.0199,9.434,-0.10843,0.055283,0.059865
-0.40125,1.6083,-1.3337,8.7083,-0.056505,0.040012,0.052229
-0.42804,1.3925,-1.8829,8.6887,-0.019853,0.019242,-0.0097738
-0.44864,1.4514,-2.5693,9.0417,0.01405,0.0054978,-0.012828
