0,0.0101
0.001,0.0105
0.002,0.0174
0.003,0.0183
0.004,0.0304
0.005,0.0354
0.006,0.0249
0.007,0.0072
0.008,0.0048
0.009,-0.0018
0.01,0.0002
0.011,-0.0016
0.012,-0.0033
0.013,-0.0018
0.014,-0.0005
0.015,-0.0016
0.016,-0.0005
0.017,0.0004
0.018,0.0088
0.019,0.0055
0.02,0.0046
0.021,0.0055
0.022,0.0112
0.023,0.0105
0.024,0.015
0.025,0.0119
0.026,0.0081
0.027,0.0057
0.028,0.0006
0.029,0.0068
0.03,0.0044
0.031,0.0006
0.032,0.0024
0.033,0.0055
0.034,0.0061
0.035,0.0074
0.036,0.0031
0.037,0.0015
0.038,0.0061
0.039,0.0004
0.04,0.0026
0.041,0.0059
0.042,0.0002
0.043,0.0055
0.044,0.0022
0.045,0.0004
0.046,0.0042
0.047,-0.0012
0.048,-0.0005
0.049,0.0041
0.05,-0.0042
0.051,-0.0038
0.052,-0.0071
0.053,0.0081
0.054,0.0103
0.055,0.0204
0.056,0.0222
0.057,0.0172
0.058,-0.0023
0.059,-0.0102
0.06,-0.0223
0.061,-0.0245
0.062,-0.0144
0.063,-0.0089
0.064,-0.0139
0.065,-0.0153
0.066,-0.0113
0.067,-0.0078
0.068,-0.0067
0.069,-0.0077
0.07,-0.0122
0.071,-0.0031
0.072,0.0004
0.073,0.0015
0.074,0.0024
0.075,0.0015
0.076,0.0022
0.077,0
0.078,-0.0005
0.079,0
0.08,0.0006
0.081,-0.0007
0.082,0.0006
0.083,-0.0056
0.084,-0.0011
0.085,0.0046
0.086,0.0039
0.087,0.0057
0.088,-0.0012
0.089,0.009
0.09,0.0077
0.091,0.0088
0.092,0.0031
0.093,0.0041
0.094,0.005
0.095,0.0026
0.096,0.0004
0.097,0.0079
0.098,0.005
0.099,0.0059
0.1,0.0052
0.101,0.0044
0.102,0.0035
0.103,0.003
0.104,0.0074
0.105,0.0147
0.106,0.0176
0.107,0.0204
0.108,0.0129
0.109,0.0059
0.11,-0.0025
0.111,-0.0036
0.112,-0.0066
0.113,-0.0075
0.114,-0.0034
0.115,-0.0119
0.116,-0.0086
0.117,-0.0077
0.118,-0.0049
0.119,-0.0042
0.12,0.0042
0.121,0.0009
0.122,0.0019
0.123,0.0028
0.124,0.0035
0.125,0.0042
0.126,0.0009
0.127,0.0004
0.128,0.0009
0.129,0.0064
0.13,0.0072
0.131,0.0161
0.132,0.0127
0.133,0.0094
0.134,0.0103
0.135,0.0094
0.136,0.0101
0.137,0.0108
0.138,0.0046
0.139,0.0039
0.14,-0.0014
0.141,0.0031
0.142,0.0026
0.143,0.0042
0.144,0.003
0.145,-0.0001
0.146,0.0061
0.147,0.0052
0.148,0.0044
0.149,0.0145
0.15,0.0132
0.151,0.0072
0.152,0.0061
0.153,0.0101
0.154,0.0253
0.155,0.0187
0.156,0.0046
0.157,0.0064
0.158,0.0015
0.159,-0.006
0.16,-0.002
0.161,0.0015
0.162,0.0026
0.163,0.0035
0.164,-0.0011
0.165,0.0013
0.166,-0.0009
0.167,0.0009
0.168,0.0092
0.169,0.0059
0.17,0.003
0.171,-0.0055
0.172,-0.0066
0.173,0.0004
0.174,-0.0023
0.175,0.0033
0.176,0.0118
0.177,0.0061
0.178,0.009
0.179,0.0081
0.18,0.0041
0.181,-0.0029
0.182,0.0017
0.183,-0.0007
0.184,0.0046
0.185,0.0064
0.186,0.0033
0.187,0.0028
0.188,0.0015
0.189,0.0002
0.19,-0.0025
0.191,0.0031
0.192,0.0024
0.193,0.0031
0.194,0.0037
0.195,-0.0007
0.196,0.0009
0.197,0.0042
0.198,0.0011
0.199,0.0039
0.2,0.0042
0.201,0.0097
0.202,0.0075
0.203,0.0057
0.204,-0.0023
0.205,0.0072
0.206,0.0139
0.207,0.0055
0.208,0.0226
0.209,0.0249
0.21,0.0139
0.211,0.0039
0.212,0.0094
0.213,0.0044
0.214,0.0149
0.215,0.0026
0.216,0.0108
0.217,0.0064
0.218,-0.0086
0.219,-0.0146
0.22,-0.0201
0.221,-0.0185
0.222,-0.017
0.223,-0.0102
0.224,-0.0137
0.225,-0.0126
0.226,-0.0077
0.227,-0.0067
0.228,-0.0091
0.229,-0.0069
0.23,0.0006
0.231,0.0015
0.232,0.0061
0.233,0.0085
0.234,0.0092
0.235,0.0074
0.236,0.003
0.237,0.0035
0.238,0.0048
0.239,0.0061
0.24,0.0041
0.241,0.0066
0.242,0.0085
0.243,0.0092
0.244,0.005
0.245,-0.0045
0.246,0.0022
0.247,0.0107
0.248,0.0074
0.249,0.0044
0.25,0.0035
0.251,0.0042
0.252,0.0064
0.253,0.0046
0.254,0.0052
0.255,0.0072
0.256,0.0099
0.257,0.0165
0.258,0.0063
0.259,0.0213
0.26,0.0273
0.261,0.0108
0.262,0.013
0.263,0.007
0.264,-0.0058
0.265,-0.0075
0.266,0
0.267,-0.0012
0.268,-0.0047
0.269,-0.0014
0.27,-0.0044
0.271,-0.0089
0.272,-0.0113
0.273,-0.0121
0.274,-0.0075
0.275,-0.0005
0.276,0.0022
0.277,-0.0053
0.278,0.0039
0.279,0.005
0.28,0.0083
0.281,0.0033
0.282,0.0042
0.283,0.0099
0.284,0.0077
0.285,0.0031
0.286,0.0075
0.287,0.0037
0.288,0.0083
0.289,0.0077
0.29,0.0061
0.291,0.0048
0.292,0.0006
0.293,0.0079
0.294,0.005
0.295,0.0077
0.296,0.007
0.297,0.0092
0.298,0.0097
0.299,0.0066
0.3,0.0083
0.301,0.0086
0.302,0.0017
0.303,-0.0033
0.304,-0.0005
0.305,0.0019
0.306,0.005
0.307,-0.0034
0.308,0.0114
0.309,0.0174
0.31,0.0266
0.311,0.0249
0.312,0.0264
0.313,0.0059
0.314,-0.0029
0.315,-0.0003
0.316,-0.0027
0.317,-0.0137
0.318,-0.0077
0.319,-0.0131
0.32,-0.0214
0.321,-0.011
0.322,-0.0069
0.323,-0.013
0.324,-0.0051
0.325,-0.0022
0.326,0.0063
0.327,0.0052
0.328,-0.0018
0.329,-0.0009
0.33,0.0048
0.331,0.007
0.332,0.0052
0.333,0.0033
0.334,0.0061
0.335,0.0057
0.336,0.0079
0.337,0.0141
0.338,0.0187
0.339,0.0079
0.34,0.0004
0.341,0.0044
0.342,-0.0016
0.343,0.0017
0.344,-0.0012
0.345,0.0033
0.346,0.0026
0.347,0.0048
0.348,0.0066
0.349,0.0085
0.35,0.0022
0.351,-0.0001
0.352,0.002
0.353,0.0026
0.354,0.0008
0.355,0.007
0.356,0.0046
0.357,0.0013
0.358,-0.0009
0.359,0.0094
0.36,0.0169
0.361,0.0209
0.362,0.0244
0.363,0.0187
0.364,0.0279
0.365,0.0194
0.366,0.0092
0.367,-0.0003
0.368,-0.0139
0.369,-0.023
0.37,-0.0247
0.371,-0.0232
0.372,-0.0164
0.373,-0.013
0.374,-0.0141
0.375,-0.0131
0.376,-0.0086
0.377,0.0039
0.378,0.0167
0.379,0.0118
0.38,0.0103
0.381,0.0063
0.382,-0.0049
0.383,-0.0034
0.384,0.0033
0.385,0.0118
0.386,0.0061
0.387,0.009
0.388,0.0063
0.389,0.0039
0.39,0.0017
0.391,0.0022
0.392,0.0004
0.393,-0.0001
0.394,0.0002
0.395,0.0006
0.396,0.0052
0.397,-0.0005
0.398,0.0002
0.399,0.002
0.4,0.0026
0.401,0.0077
0.402,0.0059
0.403,0.0064
0.404,0.0013
0.405,0.0031
0.406,0.0026
0.407,0.0031
0.408,-0.0001
0.409,0.0053
0.41,0.0123
0.411,0.0226
0.412,0.0293
0.413,0.0233
0.414,0.0085
0.415,-0.0016
0.416,-0.0034
0.417,0.0015
0.418,-0.006
0.419,-0.002
0.42,-0.008
0.421,-0.0069
0.422,0
0.423,0.0009
0.424,0.0101
0.425,0.0066
0.426,0.0033
0.427,-0.0016
0.428,0.0048
0.429,0.0088
0.43,0.0066
0.431,0.0048
0.432,0.0017
0.433,0.0055
0.434,0.0031
0.435,0.0053
0.436,0.0108
0.437,0.0055
0.438,0.0022
0.439,0.0017
0.44,0.0033
0.441,0.0088
0.442,0.0081
0.443,0.0114
0.444,0.007
0.445,0.0053
0.446,0.0041
0.447,0.0009
0.448,0.002
0.449,-0.0036
0.45,-0.006
0.451,0.0024
0.452,-0.0033
0.453,0.0079
0.454,0.0004
0.455,-0.0036
0.456,0.0024
0.457,0.0057
0.458,0.0066
0.459,0.0079
0.46,0.007
0.461,0.0194
0.462,0.0249
0.463,0.0233
0.464,0.0129
0.465,0.0033
0.466,-0.0102
0.467,-0.0121
0.468,-0.0137
0.469,-0.0152
0.47,-0.0219
0.471,-0.0159
0.472,-0.0102
0.473,-0.0033
0.474,-0.0023
0.475,-0.0016
0.476,0.0006
0.477,0.0024
0.478,0.0119
0.479,0.0052
0.48,0.0017
0.481,0.0028
0.482,0.0057
0.483,0.0066
0.484,0.0074
0.485,0.0052
0.486,0.0033
0.487,0.0077
0.488,0.015
0.489,0.0039
0.49,-0.0097
0.491,-0.0005
0.492,0.0044
0.493,0
0.494,0.0041
0.495,0.0052
0.496,0.0063
0.497,0.0033
0.498,0.0079
0.499,0.0072
0.5,0.0079
0.501,0.0061
0.502,0.0055
0.503,0.0028
0.504,0.0061
0.505,0.013
0.506,-0.0001
0.507,0.0017
0.508,0
0.509,0.0044
0.51,0.0079
0.511,0.0039
0.512,-0.0073
0.513,0.0152
0.514,0.0248
0.515,0.0277
0.516,0.0198
0.517,0.027
0.518,0.016
0.519,0.0019
0.52,-0.0073
0.521,-0.0089
0.522,-0.0133
0.523,-0.0121
0.524,-0.0086
0.525,-0.0119
0.526,-0.0027
0.527,-0.0038
0.528,-0.0071
0.529,-0.0042
0.53,-0.0033
0.531,-0.0089
0.532,-0.002
0.533,-0.0029
0.534,0.0011
0.535,0.0004
0.536,0.0009
0.537,0.0004
0.538,0.0031
0.539,0.0107
0.54,0.005
0.541,0.002
0.542,0.0048
0.543,0.0024
0.544,0.0031
0.545,0.0026
0.546,0.0031
0.547,0.0037
0.548,0.0041
0.549,0.0044
0.55,0.0017
0.551,0.0042
0.552,0.0061
0.553,0.0041
0.554,0.0042
0.555,0.0002
0.556,-0.0036
0.557,-0.0023
0.558,-0.0066
0.559,-0.0117
0.56,-0.0219
0.561,-0.0221
0.562,-0.0326
0.563,-0.0313
0.564,-0.0302
0.565,-0.0291
0.566,-0.034
0.567,-0.0368
0.568,-0.0408
0.569,-0.0293
0.57,-0.0044
0.571,0.0134
0.572,0.0165
0.573,0.0136
0.574,0.0431
0.575,0.0627
0.576,0.0876
0.577,0.1101
0.578,0.1368
0.579,0.1546
0.58,0.1515
0.581,0.1366
0.582,0.1769
0.583,0.2057
0.584,0.2108
0.585,0.1487
0.586,0.174
0.587,0.1663
0.588,0.1733
0.589,0.2176
0.59,0.2348
0.591,0.2086
0.592,0.156
0.593,0.1072
0.594,0.0628
0.595,0.0226
0.596,-0.0351
0.597,-0.1199
0.598,-0.2668
0.599,-0.3669
0.6,-0.3488
0.601,-0.3984
0.602,-0.4134
0.603,-0.427
0.604,-0.3896
0.605,-0.3559
0.606,-0.3662
0.607,-0.3382
0.608,-0.3129
0.609,-0.2898
0.61,-0.2409
0.611,-0.2221
0.612,-0.2001
0.613,-0.1714
0.614,-0.1347
0.615,-0.13
0.616,-0.091
0.617,-0.0437
0.618,0.0006
0.619,0.0293
0.62,0.0766
0.621,0.1209
0.622,0.1381
0.623,0.1643
0.624,0.1786
0.625,0.1914
0.626,0.2031
0.627,0.2209
0.628,0.237
0.629,0.2458
0.63,0.2379
0.631,0.2112
0.632,0.1934
0.633,0.1773
0.634,0.1566
0.635,0.1432
0.636,0.1264
0.637,0.1064
0.638,0.1039
0.639,0.0918
0.64,0.0808
0.641,0.0667
0.642,0.0539
0.643,0.0489
0.644,0.0354
0.645,0.0335
0.646,0.0253
0.647,0.0209
0.648,0.0141
0.649,0.013
0.65,0.0097
0.651,0.0107
0.652,0.0042
0.653,0.005
0.654,0.0028
0.655,-0.0034
0.656,-0.0058
0.657,-0.008
0.658,-0.0099
0.659,-0.0055
0.66,-0.0049
0.661,-0.0036
0.662,-0.0106
0.663,-0.0119
0.664,-0.011
0.665,-0.0082
0.666,0.0009
0.667,0.0044
0.668,0.0123
0.669,0.0031
0.67,-0.013
0.671,-0.0152
0.672,-0.0212
0.673,-0.0267
0.674,-0.0218
0.675,-0.0203
0.676,-0.0216
0.677,-0.0227
0.678,-0.0216
0.679,-0.0207
0.68,-0.0197
0.681,-0.0157
0.682,-0.0119
0.683,-0.0152
0.684,-0.0082
0.685,-0.0073
0.686,-0.008
0.687,-0.0088
0.688,-0.0055
0.689,-0.0073
0.69,-0.0034
0.691,-0.0047
0.692,-0.0034
0.693,-0.0045
0.694,-0.0042
0.695,-0.0067
0.696,-0.004
0.697,0.0002
0.698,-0.0003
0.699,0.003
0.7,0.0017
0.701,-0.0011
0.702,-0.0007
0.703,0.0004
0.704,-0.0003
0.705,-0.0022
0.706,-0.0009
0.707,0.0006
0.708,0.0011
0.709,0.0041
0.71,0.0044
0.711,0.0019
0.712,-0.0007
0.713,0.0026
0.714,0.0028
0.715,0.005
0.716,0.0112
0.717,0.0196
0.718,0.0275
0.719,0.0183
0.72,0.0172
0.721,0.0002
0.722,-0.0069
0.723,-0.0135
0.724,-0.0115
0.725,-0.0097
0.726,-0.008
0.727,-0.0066
0.728,-0.0106
0.729,-0.0071
0.73,-0.006
0.731,-0.0031
0.732,-0.0003
0.733,0.0037
0.734,0.0059
0.735,0.0041
0.736,0.0059
0.737,-0.0025
0.738,-0.0014
0.739,0.0019
0.74,0.0048
0.741,0.002
0.742,0.0028
0.743,0.0006
0.744,0.0052
0.745,0.0008
0.746,0.0002
0.747,0.0068
0.748,0.0059
0.749,0.0019
0.75,0.0026
0.751,0.002
0.752,0.009
0.753,0.0063
0.754,0.0039
0.755,0.0046
0.756,0.0108
0.757,0.0085
0.758,0.0123
0.759,0.0077
0.76,0.0096
0.761,0.0068
0.762,0.0035
0.763,0.0066
0.764,0.0039
0.765,0.0057
0.766,0.0031
0.767,0.0086
0.768,0.0171
0.769,0.0182
0.77,0.0211
0.771,0.0108
0.772,0.0068
0.773,0.0033
0.774,0.0022
0.775,-0.0069
0.776,-0.0104
0.777,-0.0137
0.778,-0.0128
0.779,-0.0119
0.78,-0.0078
0.781,-0.0086
0.782,-0.0131
0.783,-0.0075
0.784,-0.0036
0.785,0.0039
0.786,0.0009
0.787,0
0.788,0.0057
0.789,0.0035
0.79,0.0068
0.791,0.0037
0.792,0.0031
0.793,-0.0023
0.794,-0.0016
0.795,0.0017
0.796,0.0061
0.797,0.0044
0.798,0.002
0.799,0.0033
0.8,0.0037
0.801,0.0072
0.802,0.005
0.803,0.0077
0.804,0.0074
0.805,0.0033
0.806,0.0046
0.807,0.0077
0.808,0.0097
0.809,0.0055
0.81,0.0039
0.811,0.0052
0.812,0.003
0.813,0.0068
0.814,0.0081
0.815,0.005
0.816,0.0057
0.817,0.0019
0.818,0.0094
0.819,0.0264
0.82,0.024
0.821,0.0306
0.822,0.0246
0.823,0.0118
0.824,0.0068
0.825,0.0024
0.826,0.0037
0.827,-0.0023
0.828,0.0055
0.829,0.0006
0.83,0.0015
0.831,0.0008
0.832,0.0015
0.833,0.0048
0.834,0.0017
0.835,0.0101
0.836,0.0066
0.837,0.0033
0.838,0.0042
0.839,0.0107
0.84,0.0099
0.841,0.0092
0.842,0.0097
0.843,0.0053
0.844,0.0059
0.845,0.0026
0.846,0.0048
0.847,0.0028
0.848,0.0039
0.849,0.005
0.85,0.0004
0.851,0.0009
0.852,0.0015
0.853,-0.0058
0.854,-0.0067
0.855,-0.0003
0.856,0.002
0.857,-0.0018
0.858,-0.0036
0.859,0.0008
0.86,-0.0031
0.861,-0.0055
0.862,-0.0097
0.863,-0.0091
0.864,-0.0058
0.865,-0.0007
0.866,-0.0012
0.867,-0.0001
0.868,-0.0033
0.869,0.0052
0.87,-0.0033
0.871,-0.0044
0.872,0.0026
0.873,0.0129
0.874,0.0169
0.875,0.0085
0.876,-0.0086
0.877,-0.0157
0.878,-0.0135
0.879,-0.0155
0.88,-0.0137
0.881,-0.0153
0.882,-0.0168
0.883,-0.0128
0.884,-0.0117
0.885,-0.0106
0.886,-0.0077
0.887,-0.0067
0.888,-0.0044
0.889,-0.0022
0.89,-0.0003
0.891,0.0015
0.892,0.0009
0.893,-0.0014
0.894,-0.0011
0.895,0.0028
0.896,0.0052
0.897,0.0103
0.898,0.0121
0.899,0.009
0.9,0.0096
0.901,0.0063
0.902,0.0075
0.903,0.0048
0.904,0.009
0.905,0.0017
0.906,0.0026
0.907,-0.0001
0.908,0.0006
0.909,-0.0001
0.91,0.0044
0.911,0.0026
0.912,0.0031
0.913,-0.0014
0.914,0.0017
0.915,0.0055
0.916,0.0052
0.917,0.0074
0.918,0.0086
0.919,0.0066
0.92,0.0116
0.921,0.0097
0.922,0.0193
0.923,0.026
0.924,0.0075
0.925,0.005
0.926,-0.0022
0.927,0
0.928,-0.002
0.929,0.0035
0.93,-0.0047
0.931,-0.0003
0.932,-0.0016
0.933,-0.0005
0.934,0.0074
0.935,0.0044
0.936,-0.0001
0.937,0.0074
0.938,0.0024
0.939,0.0033
0.94,0.0057
0.941,0.0079
0.942,0.0074
0.943,0.0017
0.944,0.0086
0.945,0.0041
0.946,0.0048
0.947,0.0086
0.948,0.0068
0.949,0.0037
0.95,0.0088
0.951,0.0083
0.952,0.0077
0.953,0.0039
0.954,0.0015
0.955,0.0085
0.956,0.0035
0.957,0.0063
0.958,0.0022
0.959,-0.0016
0.96,0.003
0.961,0.0024
0.962,0.0041
0.963,0.0017
0.964,0.002
0.965,0.0059
0.966,0.0105
0.967,0.0099
0.968,0.0116
0.969,0.0086
0.97,0.0041
0.971,0.0136
0.972,0.0176
0.973,0.026
0.974,0.0249
0.975,0.0097
0.976,-0.0056
0.977,-0.0077
0.978,-0.0131
0.979,-0.0082
0.98,-0.0067
0.981,-0.0055
0.982,-0.0044
0.983,-0.0055
0.984,-0.0045
0.985,0
0.986,0.0041
0.987,0.0033
0.988,0.0039
0.989,0.0044
0.99,0.0061
0.991,0.0037
0.992,0.005
0.993,0.0011
0.994,0.0044
0.995,0.0048
0.996,0.0028
0.997,0.0077
0.998,0.0072
0.999,0.0041
1,0.0002
1.001,0.0015
1.002,0.0046
1.003,0.0066
1.004,0.0031
1.005,-0.002
1.006,-0.0025
1.007,-0.002
1.008,0.0019
1.009,0.0031
1.01,0.0035
1.011,0.0024
1.012,0.0028
1.013,0.0039
1.014,0.0059
1.015,0.0096
1.016,0.0119
1.017,0.0068
1.018,0.0035
1.019,0.0041
1.02,0.005
1.021,-0.0023
1.022,0.0108
1.023,0.0163
1.024,0.018
1.025,0.0284
1.026,0.0216
1.027,0.0031
1.028,0.0006
1.029,-0.0115
1.03,-0.0181
1.031,-0.0121
1.032,-0.0175
1.033,-0.0126
1.034,-0.0111
1.035,-0.0071
1.036,-0.006
1.037,-0.0027
1.038,0.0002
1.039,-0.0025
1.04,-0.0018
1.041,0.0004
1.042,0.0009
1.043,0.0053
1.044,0.007
1.045,0.0103
1.046,0.0072
1.047,0.0061
1.048,0.0072
1.049,0.0039
1.05,0.0077
1.051,0.0031
1.052,0.0013
1.053,0.0052
1.054,0.0075
1.055,0.0024
1.056,0.007
1.057,0.0026
1.058,0.002
1.059,0.0053
1.06,-0.0016
1.061,0.0033
1.062,0.0042
1.063,0.005
1.064,0.0028
1.065,0.0061
1.066,0.0118
1.067,0.0064
1.068,0.0083
1.069,0.0039
1.07,0.0033
1.071,0.0006
1.072,0.003
1.073,0.0099
1.074,0.0251
1.075,0.0317
1.076,0.0176
1.077,0.0085
1.078,-0.0031
1.079,-0.0016
1.08,-0.0056
1.081,-0.0067
1.082,-0.0056
1.083,-0.0047
1.084,-0.0075
1.085,-0.0051
1.086,-0.0029
1.087,-0.0011
1.088,-0.0005
1.089,0.0022
1.09,0.0026
1.091,-0.0005
1.092,-0.0001
1.093,0.0009
1.094,0.0013
1.095,0.0059
1.096,0.0077
1.097,0.0072
1.098,0.0033
1.099,0.0046
1.1,0.0097
1.101,0.0079
1.102,0.0048
1.103,0.0053
1.104,0.005
1.105,0.0037
1.106,-0.0001
1.107,0.0031
1.108,0.0019
1.109,0.0074
1.11,0.0052
1.111,-0.0011
1.112,-0.0034
1.113,-0.0012
1.114,0.009
1.115,0.0165
1.116,0.0097
1.117,0.0013
1.118,-0.002
1.119,0.003
1.12,0.0039
1.121,0.0031
1.122,0.0116
1.123,0.0046
1.124,0.0037
1.125,0.0161
1.126,0.0326
1.127,0.026
1.128,0.0119
1.129,-0.0009
1.13,-0.0058
1.131,-0.0102
1.132,-0.0062
1.133,-0.0051
1.134,-0.013
1.135,-0.006
1.136,-0.0069
1.137,-0.0093
1.138,-0.0115
1.139,-0.0097
1.14,-0.0078
1.141,-0.004
1.142,-0.0073
1.143,-0.0003
1.144,0.0006
1.145,0.0015
1.146,0.0022
1.147,0.0015
1.148,0.0033
1.149,0.0015
1.15,0.0031
1.151,0.0035
1.152,0.0039
1.153,-0.0007
1.154,0.0037
1.155,0.0009
1.156,0.0022
1.157,-0.002
1.158,-0.0014
1.159,-0.0027
1.16,-0.0014
1.161,-0.0025
1.162,0
1.163,0.0055
1.164,0.0094
1.165,0.0099
1.166,0.0068
1.167,0.0052
1.168,0.0064
1.169,0.0077
1.17,0.0105
1.171,0.0101
1.172,0.0061
1.173,0.0064
1.174,0.0139
1.175,0.0172
1.176,0.0222
1.177,0.0306
1.178,0.0317
1.179,0.0205
1.18,0.007
1.181,-0.0058
1.182,-0.0042
1.183,-0.0027
1.184,-0.004
1.185,-0.0075
1.186,-0.0064
1.187,-0.0073
1.188,-0.0082
1.189,-0.0042
1.19,-0.0049
1.191,-0.0016
1.192,-0.0034
1.193,-0.0007
1.194,0.0017
1.195,0.0086
1.196,0.0077
1.197,0.0086
1.198,0.0063
1.199,0.0116
1.2,0.0083
1.201,0.0052
1.202,0.009
1.203,0.0077
1.204,0.0026
1.205,-0.002
1.206,-0.0025
1.207,0.0026
1.208,0.0072
1.209,0.0015
1.21,-0.0007
1.211,0.0039
1.212,0.0033
1.213,0.0072
1.214,0.0039
1.215,0.0035
1.216,0.0024
1.217,0.0059
1.218,-0.0001
1.219,0.0022
1.22,0.003
1.221,0.0024
1.222,-0.0033
1.223,-0.0025
1.224,-0.0023
1.225,-0.0029
1.226,0.0053
1.227,-0.0003
1.228,0.0129
1.229,0.0147
1.23,0.0163
1.231,0.0149
1.232,0.0108
1.233,0.0143
1.234,0.0176
1.235,0.0024
1.236,-0.0042
1.237,0.0019
1.238,-0.0073
1.239,-0.0089
1.24,-0.0164
1.241,-0.0124
1.242,-0.0113
1.243,-0.0056
1.244,-0.0066
1.245,-0.0093
1.246,-0.0086
1.247,-0.0033
1.248,-0.0078
1.249,-0.0047
1.25,-0.0031
1.251,0.0024
1.252,0.0094
1.253,0.0085
1.254,0.0092
1.255,0.0114
1.256,0.0108
1.257,0.0052
1.258,0.003
1.259,0.0063
1.26,0.0081
1.261,0.0053
1.262,0.0041
1.263,0.0072
1.264,0.0075
1.265,0.0057
1.266,0.0039
1.267,0.0019
1.268,-0.0023
1.269,-0.0018
1.27,0.0009
1.271,-0.0023
1.272,0.0046
1.273,0.0037
1.274,0.0028
1.275,-0.0016
1.276,-0.0009
1.277,0.0107
1.278,0.0222
1.279,0.0266
1.28,0.0334
1.281,0.0345
1.282,0.0174
1.283,0.0103
1.284,0.0037
1.285,-0.0064
1.286,-0.0045
1.287,0.0004
1.288,-0.0011
1.289,-0.0023
1.29,-0.0012
1.291,-0.0045
1.292,0.0024
1.293,-0.0003
1.294,-0.0011
1.295,-0.0018
1.296,-0.0023
1.297,0.0033
1.298,-0.0036
1.299,-0.0045
1.3,-0.0038
1.301,-0.0031
1.302,-0.0012
1.303,0.0019
1.304,0.0002
1.305,0.0077
1.306,0.002
1.307,0.003
1.308,0.0057
1.309,0.005
1.31,0.0028
1.311,0.0009
1.312,0.0028
1.313,0.0033
1.314,-0.0022
1.315,-0.006
1.316,-0.0106
1.317,-0.0201
1.318,-0.0351
1.319,-0.0492
1.32,-0.0474
1.321,-0.0556
1.322,-0.0661
1.323,-0.0538
1.324,-0.0388
1.325,-0.0207
1.326,0.0013
1.327,0.0182
1.328,0.0291
1.329,0.0352
1.33,0.0627
1.331,0.0822
1.332,0.0857
1.333,0.1082
1.334,0.117
1.335,0.1304
1.336,0.1425
1.337,0.1447
1.338,0.1386
1.339,0.1441
1.34,0.1392
1.341,0.1196
1.342,0.1491
1.343,0.1452
1.344,0.1203
1.345,0.156
1.346,0.1798
1.347,0.2101
1.348,0.1983
1.349,0.1447
1.35,0.0445
1.351,-0.0238
1.352,-0.086
1.353,-0.1197
1.354,-0.2532
1.355,-0.3078
1.356,-0.3574
1.357,-0.3724
1.358,-0.386
1.359,-0.3486
1.36,-0.2697
1.361,-0.2184
1.362,-0.1717
1.363,-0.197
1.364,-0.1893
1.365,-0.1963
1.366,-0.1774
1.367,-0.1486
1.368,-0.112
1.369,-0.1073
1.37,-0.0857
1.371,-0.0818
1.372,-0.0783
1.373,-0.0558
1.374,-0.041
1.375,-0.0223
1.376,0.0141
1.377,0.054
1.378,0.0696
1.379,0.0934
1.38,0.1062
1.381,0.1258
1.382,0.1507
1.383,0.1668
1.384,0.1698
1.385,0.1776
1.386,0.1753
1.387,0.1819
1.388,0.1718
1.389,0.1663
1.39,0.1548
1.391,0.1473
1.392,0.1267
1.393,0.1119
1.394,0.0932
1.395,0.0764
1.396,0.0698
1.397,0.0557
1.398,0.0429
1.399,0.0279
1.4,0.0138
1.401,0.0046
1.402,0.0063
1.403,0.0019
1.404,0.0006
1.405,0.0041
1.406,0.0008
1.407,-0.0084
1.408,-0.0073
1.409,-0.004
1.41,-0.0031
1.411,-0.0003
1.412,-0.006
1.413,-0.0099
1.414,-0.0066
1.415,-0.0097
1.416,-0.008
1.417,-0.0084
1.418,-0.0023
1.419,-0.0047
1.42,-0.0025
1.421,-0.002
1.422,-0.0089
1.423,-0.0117
1.424,-0.0141
1.425,-0.0119
1.426,-0.0113
1.427,-0.0056
1.428,-0.0104
1.429,-0.0142
1.43,-0.004
1.431,0.0096
1.432,0.0187
1.433,0.0138
1.434,0.0182
1.435,0.0141
1.436,0.0057
1.437,0
1.438,-0.0029
1.439,-0.015
1.44,-0.0133
1.441,-0.0208
1.442,-0.0168
1.443,-0.0157
1.444,-0.0168
1.445,-0.0139
1.446,-0.0055
1.447,-0.0111
1.448,-0.0102
1.449,-0.0075
1.45,-0.0051
1.451,-0.0121
1.452,-0.0111
1.453,-0.0055
1.454,-0.0047
1.455,-0.0029
1.456,-0.0047
1.457,-0.002
1.458,-0.0053
1.459,-0.0031
1.46,-0.0042
1.461,-0.0007
1.462,-0.0038
1.463,-0.0027
1.464,-0.0053
1.465,-0.0042
1.466,-0.0049
1.467,-0.0007
1.468,0.0011
1.469,-0.0005
1.47,0.0041
1.471,0.0059
1.472,0.0064
1.473,0.0031
1.474,0.0053
1.475,0.005
1.476,0.0075
1.477,0.0123
1.478,0.0129
1.479,0.013
1.48,0.0068
1.481,0.0193
1.482,0.0284
1.483,0.0301
1.484,0.0315
1.485,0.022
1.486,0.0059
1.487,-0.0007
1.488,-0.0067
1.489,-0.0122
1.49,-0.0073
1.491,-0.0029
1.492,-0.0069
1.493,-0.008
1.494,-0.0091
1.495,-0.0082
1.496,-0.0055
1.497,-0.0078
1.498,-0.0071
1.499,-0.0025
1.5,0.0019
1.501,-0.0044
1.502,-0.0067
1.503,-0.0075
1.504,0
1.505,-0.0009
1.506,0
1.507,0.0008
1.508,0.003
1.509,0.0105
1.51,0.0055
1.511,0.0064
1.512,0.0072
1.513,0.0064
1.514,0.0059
1.515,0.0077
1.516,0.0061
1.517,0.0048
1.518,0.0044
1.519,0.0072
1.52,0.0046
1.521,0.0079
1.522,0.0141
1.523,0.0114
1.524,0.0107
1.525,0.0099
1.526,0.0066
1.527,0.0022
1.528,0.0061
1.529,0.0074
1.53,0.0042
1.531,0.0046
1.532,0.0108
1.533,0.0154
1.534,0.0246
1.535,0.028
1.536,0.0156
1.537,0.0074
1.538,-0.0001
1.539,-0.0014
1.54,-0.0049
1.541,-0.0082
1.542,-0.0053
1.543,-0.008
1.544,-0.004
1.545,-0.0001
1.546,-0.002
1.547,-0.0025
1.548,0.0002
1.549,0.0015
1.55,0.0046
1.551,0.005
1.552,0.0068
1.553,0.0057
1.554,0.0037
1.555,0.0035
1.556,0.007
1.557,0.0101
1.558,0.0055
1.559,0.0037
1.56,0.0009
1.561,0.0006
1.562,0.0028
1.563,0.0039
1.564,0.0064
1.565,0.009
1.566,0.0044
1.567,0.0026
1.568,0.007
1.569,0.0053
1.57,-0.0012
1.571,0.0033
1.572,0.0026
1.573,0.0048
1.574,0.0053
1.575,0.0048
1.576,0.0042
1.577,0.003
1.578,0.0072
1.579,0.0088
1.58,0.0075
1.581,0.0057
1.582,0.0088
1.583,0.015
1.584,0.016
1.585,0.0284
1.586,0.0339
1.587,0.0156
1.588,0.0085
1.589,0.0063
1.59,0.0002
1.591,-0.0016
1.592,0.0033
1.593,-0.0011
1.594,0.0002
1.595,0.0013
1.596,0.0002
1.597,0.0094
1.598,0.0105
1.599,0.0026
1.6,0.0035
1.601,-0.0067
1.602,-0.0055
1.603,-0.0044
1.604,-0.0033
1.605,-0.0062
1.606,0.0077
1.607,-0.0023
1.608,0.0031
1.609,-0.0018
1.61,-0.0003
1.611,-0.0071
1.612,-0.0082
1.613,-0.0093
1.614,-0.0084
1.615,-0.0075
1.616,-0.0067
1.617,-0.0106
1.618,-0.0111
1.619,-0.008
1.62,-0.0142
1.621,-0.0119
1.622,-0.008
1.623,-0.0047
1.624,-0.0091
1.625,-0.0075
1.626,-0.0042
1.627,-0.0029
1.628,-0.004
1.629,-0.0058
1.63,-0.004
1.631,0
1.632,-0.0001
1.633,-0.004
1.634,0.0035
1.635,0.0138
1.636,0.026
1.637,0.0244
1.638,0.02
1.639,0.005
1.64,0.003
1.641,-0.0062
1.642,-0.0078
1.643,-0.0122
1.644,-0.0055
1.645,-0.0044
1.646,-0.0011
1.647,-0.004
1.648,-0.0067
1.649,-0.0044
1.65,-0.0082
1.651,0.0008
1.652,-0.0003
1.653,0.0008
1.654,-0.0022
1.655,-0.0012
1.656,0.0028
1.657,0.0035
1.658,0.0053
1.659,0.0035
1.66,0.0052
1.661,0.0039
1.662,0.0008
1.663,0.0046
1.664,0.0042
1.665,0.0064
1.666,0.0026
1.667,0.0039
1.668,0.0042
1.669,0.0088
1.67,0.007
1.671,0.0075
1.672,0.0072
1.673,0.0075
1.674,0.0086
1.675,0.0112
1.676,0.0072
1.677,0.0068
1.678,0.0046
1.679,0.005
1.68,0.0068
1.681,0.0108
1.682,0.0096
1.683,0.0086
1.684,0.0074
1.685,0.0136
1.686,0.022
1.687,0.0323
1.688,0.0335
1.689,0.015
1.69,0.0072
1.691,-0.0049
1.692,-0.0027
1.693,-0.0047
1.694,-0.0066
1.695,-0.0049
1.696,-0.0005
1.697,-0.0073
1.698,-0.0038
1.699,-0.0005
1.7,0.0024
1.701,0.0033
1.702,-0.0007
1.703,-0.0014
1.704,-0.002
1.705,0.0024
1.706,-0.0014
1.707,0.0031
1.708,0.005
1.709,0.0055
1.71,0.0068
1.711,0.0064
1.712,0.0068
1.713,0.0033
1.714,0.0064
1.715,0.0009
1.716,-0.0012
1.717,-0.0018
1.718,-0.0062
1.719,-0.0045
1.72,0.003
1.721,0.0019
1.722,0.0028
1.723,0.0019
1.724,0.0094
1.725,0.0044
1.726,0.0035
1.727,0.0042
1.728,0.005
1.729,0.0083
1.73,0.0052
1.731,0.0068
1.732,0.0072
1.733,0.0094
1.734,0.0094
1.735,0.0083
1.736,0.0139
1.737,0.0015
1.738,0.0253
1.739,0.0284
1.74,0.0077
1.741,-0.0001
1.742,-0.0025
1.743,-0.0091
1.744,-0.0111
1.745,-0.0056
1.746,-0.004
1.747,-0.0055
1.748,-0.0014
1.749,0.002
1.75,0.0031
1.751,0.0041
1.752,0.0013
1.753,0.0053
1.754,-0.0031
1.755,0.0026
1.756,0.0075
1.757,0.0011
1.758,0.0052
1.759,0.0074
1.76,0.0092
1.761,0.0022
1.762,0.005
1.763,0.0057
1.764,0.0035
1.765,0.003
1.766,0.0024
1.767,0.0052
1.768,0.0064
1.769,0.0068
1.77,0.0064
1.771,0.003
1.772,-0.0012
1.773,0.0039
1.774,0.002
1.775,0.0039
1.776,0.0044
1.777,0.0011
1.778,0.0008
1.779,-0.0012
1.78,-0.0001
1.781,-0.0049
1.782,0.0046
1.783,0.0006
1.784,0.0066
1.785,0.005
1.786,0.0061
1.787,0.0172
1.788,0.0129
1.789,0.0224
1.79,0.0189
1.791,0.0246
1.792,0.0134
1.793,-0.0031
1.794,-0.0053
1.795,-0.0113
1.796,-0.0131
1.797,-0.0181
1.798,-0.0137
1.799,-0.0097
1.8,-0.0086
1.801,-0.0097
1.802,-0.0067
1.803,-0.0077
1.804,-0.002
1.805,0.0002
1.806,0.0008
1.807,0.0013
1.808,0.0019
1.809,0.0015
1.81,0.0066
1.811,0.0061
1.812,0.0092
1.813,0.0075
1.814,0.0072
1.815,0.0068
1.816,0.0048
1.817,0.0066
1.818,0.0026
1.819,0.0059
1.82,0.0037
1.821,0.0009
1.822,0.0035
1.823,-0.0005
1.824,-0.0009
1.825,0.0061
1.826,0.0011
1.827,0.0039
1.828,0.0046
1.829,0.0039
1.83,0.0033
1.831,0.0028
1.832,0.0033
1.833,0.0099
1.834,0.0015
1.835,0.0048
1.836,0.0042
1.837,0.0072
1.838,0.0099
1.839,0.0224
1.84,0.0315
1.841,0.0299
1.842,0.0103
1.843,0.0024
1.844,0
1.845,-0.0022
1.846,-0.0042
1.847,-0.0023
1.848,-0.0073
1.849,0.0002
1.85,-0.0066
1.851,0.0019
1.852,0.0167
1.853,0.0147
1.854,0.0055
1.855,-0.006
1.856,-0.0016
1.857,-0.0003
1.858,-0.0038
1.859,-0.0049
1.86,0
1.861,-0.0009
1.862,-0.0001
1.863,-0.0009
1.864,0.0037
1.865,0.0031
1.866,0.0026
1.867,0.0081
1.868,0.0059
1.869,0.0105
1.87,0.0048
1.871,0.0055
1.872,0.0037
1.873,0.0031
1.874,0.0048
1.875,0.0044
1.876,0.0031
1.877,-0.0007
1.878,-0.002
1.879,-0.0042
1.88,-0.0031
1.881,-0.0012
1.882,-0.006
1.883,-0.0091
1.884,-0.0007
1.885,0.0004
1.886,-0.0007
1.887,0.0072
1.888,0.0022
1.889,0.0143
1.89,0.0094
1.891,0.0319
1.892,0.0224
1.893,0.0194
1.894,0.0061
1.895,-0.0011
1.896,-0.0033
1.897,-0.0012
1.898,0.0006
1.899,-0.0044
1.9,0.0031
1.901,0.0019
1.902,-0.0016
1.903,-0.0005
1.904,-0.0014
1.905,-0.0005
1.906,0.0019
1.907,0.0057
1.908,0.0011
1.909,0.0017
1.91,0
1.911,0.0013
1.912,0.0017
1.913,0.0072
1.914,0.0079
1.915,0.0125
1.916,0.0156
1.917,0.0083
1.918,0.0092
1.919,0.0156
1.92,0.0116
1.921,0.0094
1.922,0.0019
1.923,0.0028
1.924,-0.0036
1.925,0.0004
1.926,-0.008
1.927,-0.0023
1.928,0.0108
1.929,0.0127
1.93,0.0044
1.931,0.003
1.932,0.0017
1.933,0.0006
1.934,0.0017
1.935,0.0008
1.936,-0.0095
1.937,-0.0027
1.938,-0.0009
1.939,-0.002
1.94,0.0105
1.941,0.0321
1.942,0.0291
1.943,0.0158
1.944,-0.0011
1.945,-0.0033
1.946,-0.0012
1.947,-0.0067
1.948,-0.0084
1.949,-0.0009
1.95,-0.0049
1.951,-0.006
1.952,-0.0093
1.953,-0.0102
1.954,-0.0093
1.955,-0.0069
1.956,-0.0062
1.957,-0.0095
1.958,0
1.959,-0.0012
1.96,0.0022
1.961,0.0011
1.962,0.0002
1.963,0.0048
1.964,0.0024
1.965,0.0002
1.966,-0.0016
1.967,-0.0011
1.968,0.0017
1.969,0.003
1.97,0.0052
1.971,0.0031
1.972,0.0035
1.973,0.0009
1.974,-0.0031
1.975,-0.0025
1.976,-0.0012
1.977,0.0019
1.978,0.0074
1.979,0.0035
1.98,0.0041
1.981,0.0009
1.982,-0.0029
1.983,-0.0005
1.984,0.0026
1.985,0.0037
1.986,0.0055
1.987,0.011
1.988,0.0103
1.989,0.0108
1.99,0.0075
1.991,0.0171
1.992,0.0183
1.993,0.0194
1.994,0.0273
1.995,0.0141
1.996,0.0013
1.997,0.003
1.998,-0.0014
1.999,-0.0055
2,-0.002
2.001,-0.0009
2.002,0
2.003,-0.0027
2.004,-0.0034
2.005,0.0019
2.006,0.0024
2.007,-0.0071
2.008,-0.0031
2.009,-0.002
2.01,0.0013
2.011,0.0022
2.012,0.0013
2.013,-0.0011
2.014,0.0042
2.015,0.0037
2.016,0.0068
2.017,0.0052
2.018,0.0048
2.019,0.0061
2.02,0.0041
2.021,0.009
2.022,0.0044
2.023,0.0039
2.024,0.0055
2.025,0.0022
2.026,0.0019
2.027,0.0046
2.028,0.0035
2.029,0.0083
2.03,0.0088
2.031,0.0061
2.032,0.0037
2.033,0.0088
2.034,0.007
2.035,0.0088
2.036,0.0004
2.037,0.0064
2.038,0.0075
2.039,0.0105
2.04,0.0086
2.041,0.0096
2.042,0.0152
2.043,0.0191
2.044,0.0237
2.045,0.0306
2.046,0.0222
2.047,0.0074
2.048,-0.0027
2.049,-0.0045
2.05,-0.0062
2.051,-0.0047
2.052,-0.0142
2.053,-0.0131
2.054,-0.0142
2.055,-0.0073
2.056,-0.0082
2.057,-0.0089
2.058,-0.0097
2.059,-0.0091
2.06,-0.0086
2.061,-0.008
2.062,-0.0104
2.063,-0.0174
2.064,-0.0243
2.065,-0.0364
2.066,-0.0413
2.067,-0.0489
2.068,-0.0556
2.069,-0.0545
2.07,-0.0534
2.071,-0.0443
2.072,-0.0307
2.073,-0.0142
2.074,0.0189
2.075,0.0237
2.076,0.0279
2.077,0.0553
2.078,0.0802
2.079,0.1028
2.08,0.1353
2.081,0.157
2.082,0.1765
2.083,0.18
2.084,0.1575
2.085,0.1842
2.086,0.2091
2.087,0.2448
2.088,0.1828
2.089,0.1744
2.09,0.1974
2.091,0.2093
2.092,0.2302
2.093,0.2364
2.094,0.2192
2.095,0.1509
2.096,0.0482
2.097,-0.0201
2.098,-0.0824
2.099,-0.1388
2.1,-0.2105
2.101,-0.2946
2.102,-0.351
2.103,-0.3612
2.104,-0.3706
2.105,-0.4129
2.106,-0.4359
2.107,-0.4151
2.108,-0.3578
2.109,-0.3347
2.11,-0.3416
2.111,-0.2973
2.112,-0.2686
2.113,-0.232
2.114,-0.1889
2.115,-0.1602
2.116,-0.134
2.117,-0.1102
2.118,-0.0886
2.119,-0.069
2.12,-0.0296
2.121,0.007
2.122,0.0403
2.123,0.0705
2.124,0.1061
2.125,0.1394
2.126,0.1696
2.127,0.1657
2.128,0.1835
2.129,0.193
2.13,0.2079
2.131,0.2104
2.132,0.208
2.133,0.2058
2.134,0.2119
2.135,0.1954
2.136,0.1888
2.137,0.1747
2.138,0.1546
2.139,0.1359
2.14,0.1288
2.141,0.1134
2.142,0.0987
2.143,0.0887
2.144,0.0905
2.145,0.0822
2.146,0.0687
2.147,0.0669
2.148,0.042
2.149,0.0313
2.15,0.0152
2.151,0.0064
2.152,-0.0014
2.153,-0.0086
2.154,-0.0108
2.155,-0.0128
2.156,-0.011
2.157,-0.0126
2.158,-0.0141
2.159,-0.0208
2.16,-0.0243
2.161,-0.021
2.162,-0.0201
2.163,-0.0174
2.164,-0.0166
2.165,-0.0188
2.166,-0.0142
2.167,-0.0148
2.168,-0.0131
2.169,-0.0164
2.17,-0.0161
2.171,-0.0207
2.172,-0.0201
2.173,-0.015
2.174,-0.0117
2.175,-0.0122
2.176,-0.0117
2.177,-0.0113
2.178,-0.011
2.179,-0.0099
2.18,-0.0117
2.181,-0.0062
2.182,-0.01
2.183,-0.0095
2.184,-0.0089
2.185,-0.0095
2.186,-0.0082
2.187,-0.0095
2.188,-0.0122
2.189,-0.0126
2.19,-0.0071
2.191,-0.0049
2.192,-0.0044
2.193,-0.0067
2.194,0.0002
2.195,0.0105
2.196,0.0092
2.197,0.0176
2.198,0.0233
2.199,0.0163
2.2,0.0042
2.201,0.0026
2.202,-0.0018
2.203,-0.0086
2.204,-0.017
2.205,-0.0067
2.206,-0.008
2.207,-0.0069
2.208,-0.0036
2.209,-0.0007
2.21,-0.0016
2.211,-0.0023
2.212,-0.0062
2.213,-0.008
2.214,-0.0075
2.215,-0.008
2.216,-0.0056
2.217,-0.0078
2.218,-0.0051
2.219,-0.0069
2.22,-0.0051
2.221,-0.0044
2.222,-0.0051
2.223,-0.0022
2.224,-0.0018
2.225,-0.0036
2.226,-0.0038
2.227,-0.0007
2.228,-0.0003
2.229,-0.0022
2.23,0.0033
2.231,0.0041
2.232,0.0008
2.233,0.0002
2.234,0.0053
2.235,0.0048
2.236,0.0066
2.237,0.0039
2.238,0.0063
2.239,0.0105
2.24,0.0099
2.241,0.0103
2.242,0.0145
2.243,0.0129
2.244,0.0101
2.245,0.0068
2.246,0.0138
2.247,0.0207
2.248,0.0198
2.249,0.0255
2.25,0.0293
2.251,0.0191
2.252,0.0026
2.253,0.0004
2.254,-0.0056
2.255,-0.0075
2.256,-0.0091
2.257,-0.0077
2.258,-0.0117
2.259,-0.0082
2.26,-0.0093
2.261,-0.0064
2.262,-0.0055
2.263,-0.0014
2.264,-0.0022
2.265,0.0011
2.266,-0.0007
2.267,0.0055
2.268,0.0048
2.269,0.0041
2.27,0.0022
2.271,-0.0009
2.272,-0.0003
2.273,-0.0007
2.274,0.0035
2.275,0.0019
2.276,0.0022
2.277,0.0009
2.278,-0.0001
2.279,-0.0012
2.28,-0.0053
2.281,0.0002
2.282,0.0009
2.283,0.0028
2.284,0.0072
2.285,0.0055
2.286,0.011
2.287,0.0057
2.288,0.0063
2.289,0.0119
2.29,0.0097
2.291,0.0092
2.292,0.0097
2.293,0.0114
2.294,0.0059
2.295,0.0006
2.296,-0.0016
2.297,0.0086
2.298,0.0161
2.299,0.0121
2.3,0.0257
2.301,0.0202
2.302,0.0052
2.303,-0.0009
2.304,-0.0027
2.305,-0.0077
2.306,-0.0121
2.307,-0.0053
2.308,-0.0113
2.309,-0.0034
2.31,-0.0044
2.311,-0.0053
2.312,-0.0029
2.313,-0.0036
2.314,0.0026
2.315,0.0033
2.316,0.0072
2.317,0.0077
2.318,0.0096
2.319,0.0079
2.32,0.0083
2.321,0.0079
2.322,0.0107
2.323,0.0057
2.324,0.0075
2.325,0.007
2.326,0.0053
2.327,0.0066
2.328,0.0035
2.329,0.0063
2.33,0.0044
2.331,0.0019
2.332,0.0064
2.333,0.0097
2.334,0.0092
2.335,0.003
2.336,0.0053
2.337,0.0046
2.338,0.0052
2.339,0.0121
2.34,0.013
2.341,0.0138
2.342,0.013
2.343,0.0193
2.344,0.0233
2.345,0.0118
2.346,0.0108
2.347,0.0026
2.348,0.0041
2.349,0.0053
2.35,0.0165
2.351,0.027
2.352,0.0282
2.353,0.0198
2.354,0.005
2.355,-0.0051
2.356,-0.0142
2.357,-0.0093
2.358,-0.0137
2.359,-0.0124
2.36,-0.0135
2.361,-0.0102
2.362,-0.0131
2.363,-0.0104
2.364,-0.0047
2.365,-0.0069
2.366,-0.0115
2.367,-0.0097
2.368,-0.0058
2.369,-0.0071
2.37,-0.0011
2.371,-0.0003
2.372,0.0004
2.373,-0.0042
2.374,-0.006
2.375,-0.0111
2.376,-0.0093
2.377,-0.0049
2.378,-0.0033
2.379,-0.0066
2.38,-0.0034
2.381,-0.0045
2.382,-0.0034
2.383,-0.0082
2.384,-0.0051
2.385,-0.0045
2.386,0
2.387,-0.0005
2.388,0.0011
2.389,0.0015
2.39,0.0037
2.391,0.0009
2.392,0.002
2.393,-0.002
2.394,0.0013
2.395,0.0017
2.396,0.002
2.397,0.005
2.398,0.0039
2.399,0.0086
2.4,0.0169
2.401,0.0317
2.402,0.0257
2.403,0.0165
2.404,0.005
2.405,-0.0025
2.406,-0.0093
2.407,-0.0082
2.408,-0.0049
2.409,-0.0078
2.41,-0.0106
2.411,-0.0082
2.412,-0.0044
2.413,0.0031
2.414,0.0022
2.415,0.0031
2.416,0.0024
2.417,0.0002
2.418,0.002
2.419,0.0077
2.42,0.0085
2.421,0.0103
2.422,0.0097
2.423,0.0046
2.424,0.0064
2.425,0.0046
2.426,0.0008
2.427,0.0083
2.428,0.0116
2.429,0.0107
2.43,0.0134
2.431,0.0077
2.432,0.0055
2.433,0.0037
2.434,0.0081
2.435,0.0019
2.436,0.0075
2.437,0.0068
2.438,0.0035
2.439,0.0041
2.44,0.0057
2.441,0.0061
2.442,0.0112
2.443,0.0066
2.444,0.0048
2.445,0.0053
2.446,0.005
2.447,0.0053
2.448,0.0028
2.449,0.0048
2.45,0.0105
2.451,0.0145
2.452,0.026
2.453,0.0211
2.454,0.0107
2.455,0.0011
2.456,-0.0049
2.457,-0.006
2.458,-0.0051
2.459,-0.006
2.46,-0.0067
2.461,-0.0089
2.462,-0.0084
2.463,-0.0027
2.464,-0.0034
2.465,-0.008
2.466,-0.0011
2.467,-0.0001
2.468,0.0022
2.469,-0.0016
2.47,-0.0011
2.471,0.0033
2.472,0.0006
2.473,-0.0007
2.474,0.0006
2.475,0.0026
2.476,0.0008
2.477,0.0026
2.478,0.0041
2.479,0.0048
2.48,0.0088
2.481,0.005
2.482,0.0026
2.483,0.0039
2.484,0.0028
2.485,0.0009
2.486,0.0064
2.487,0.0057
2.488,0.009
2.489,0.0059
2.49,0.0053
2.491,0.002
2.492,0.0042
2.493,0.0053
2.494,0.0035
2.495,0.0002
2.496,0.0048
2.497,0.0053
2.498,0.0015
2.499,0.0013
2.5,0.0017
2.501,0.0086
2.502,0.0238
2.503,0.0304
2.504,0.0244
2.505,0.0079
2.506,-0.0075
2.507,-0.0055
2.508,-0.0073
2.509,-0.0056
2.51,-0.01
2.511,0.0022
2.512,0.0006
2.513,-0.0009
2.514,-0.0049
2.515,-0.0014
2.516,-0.0003
2.517,0.0006
2.518,-0.0022
2.519,0.0019
2.52,-0.002
2.521,0.0026
2.522,0.0044
2.523,0.0083
2.524,0.0037
2.525,0.0042
2.526,0.0059
2.527,0.0026
2.528,-0.0044
2.529,-0.0073
2.53,-0.0045
2.531,-0.0022
2.532,0
2.533,0.0019
2.534,0
2.535,-0.0016
2.536,-0.004
2.537,-0.0036
2.538,0.0009
2.539,0.0004
2.54,0.0055
2.541,0.0061
2.542,0.0055
2.543,0.005
2.544,0.0063
2.545,0.0041
2.546,0.0037
2.547,0.0055
2.548,0.0096
2.549,0.002
2.55,0.0028
2.551,0.0061
2.552,0.0213
2.553,0.0279
2.554,0.0339
2.555,0.0211
2.556,0.0096
2.557,0.002
2.558,0.0008
2.559,-0.0027
2.56,-0.0038
2.561,-0.0029
2.562,-0.0056
2.563,0
2.564,0.0039
2.565,-0.0007
2.566,-0.0012
2.567,0.005
2.568,0.0009
2.569,0.0031
2.57,0.0013
2.571,0.0019
2.572,0.0057
2.573,0.0033
2.574,0.0002
2.575,0.0048
2.576,0.0053
2.577,0.0059
2.578,0.0063
2.579,0.0031
2.58,0.0059
2.581,0.0101
2.582,0.0063
2.583,0.005
2.584,0.0037
2.585,0.0009
2.586,0.0059
2.587,-0.0031
2.588,0.0004
2.589,0.0129
2.59,0.0145
2.591,0.0101
2.592,0.0006
2.593,-0.0029
2.594,-0.0018
2.595,-0.0047
2.596,-0.002
2.597,-0.0027
2.598,0.0026
2.599,0.0031
2.6,0
2.601,-0.0009
2.602,-0.0003
2.603,0.0072
2.604,0.0196
2.605,0.018
2.606,0.0255
2.607,0.0323
2.608,0.0211
2.609,0.0015
2.61,-0.0011
2.611,-0.0082
2.612,-0.006
2.613,-0.008
2.614,-0.0062
2.615,-0.0111
2.616,-0.0126
2.617,-0.0086
2.618,-0.0121
2.619,-0.0088
2.62,-0.0018
2.621,0.0046
2.622,0.0039
2.623,0.0031
2.624,0.0037
2.625,-0.0033
2.626,-0.0005
2.627,0.0019
2.628,-0.0003
2.629,0.003
2.63,0.0011
2.631,0.0028
2.632,0.0061
2.633,0.0048
2.634,0.0075
2.635,0.0086
2.636,0.009
2.637,0.0044
2.638,0.0063
2.639,0.0057
2.64,0.0096
2.641,0.0063
2.642,0.0059
2.643,0.0055
2.644,0.0081
2.645,0.0041
2.646,0.0037
2.647,-0.0005
2.648,0
2.649,-0.0003
2.65,0.0039
2.651,0.0033
2.652,0.0028
2.653,0.0004
2.654,0.0074
2.655,0.0123
2.656,0.0207
2.657,0.0264
2.658,0.0172
2.659,0.0011
2.66,-0.0055
2.661,-0.0034
2.662,-0.0089
2.663,-0.0106
2.664,-0.0031
2.665,-0.0044
2.666,-0.0055
2.667,-0.0066
2.668,-0.0016
2.669,-0.0007
2.67,-0.0014
2.671,0.0008
2.672,0.0026
2.673,0.0031
2.674,0.0015
2.675,0.0039
2.676,0.0035
2.677,0.0074
2.678,0.005
2.679,0.0072
2.68,0.0092
2.681,0.0103
2.682,0.007
2.683,0.0059
2.684,0.0085
2.685,0.0096
2.686,0.005
2.687,0.0068
2.688,0.0063
2.689,0.0046
2.69,0.0033
2.691,0.0046
2.692,0.0035
2.693,0.0009
2.694,0.0057
2.695,0.0075
2.696,0.0037
2.697,0.0041
2.698,-0.0011
2.699,0.0064
2.7,-0.0027
2.701,0.0008
2.702,0.0064
2.703,0.0086
2.704,0.0077
2.705,0.0216
2.706,0.0156
2.707,0.0248
2.708,0.0264
2.709,0.016
2.71,0.0037
2.711,-0.0012
2.712,-0.0027
2.713,-0.0095
2.714,-0.0106
2.715,-0.0073
2.716,-0.0044
2.717,-0.0071
2.718,-0.0095
2.719,-0.0025
2.72,-0.0016
2.721,0.0008
2.722,-0.0014
2.723,0.0019
2.724,0.0037
2.725,0.0009
2.726,0.0042
2.727,0.003
2.728,-0.0033
2.729,-0.0042
2.73,-0.0082
2.731,-0.0075
2.732,-0.008
2.733,-0.0036
2.734,0.0015
2.735,0.0061
2.736,0.0066
2.737,0.0072
2.738,0.0075
2.739,0.0006
2.74,-0.0064
2.741,-0.0073
2.742,-0.0049
2.743,-0.0056
2.744,0.0006
2.745,0.0046
2.746,-0.0038
2.747,-0.0049
2.748,-0.0099
2.749,-0.0053
2.75,-0.006
2.751,-0.0022
2.752,0.0068
2.753,0.0033
2.754,0.0086
2.755,0.0053
2.756,0.0205
2.757,0.0271
2.758,0.0291
2.759,0.0383
2.76,0.0367
2.761,0.0171
2.762,0.0145
2.763,0.0074
2.764,0.0008
2.765,-0.0012
2.766,-0.0067
2.767,-0.0051
2.768,-0.0036
2.769,0.0004
2.77,0.0015
2.771,-0.0018
2.772,0.0011
2.773,0.002
2.774,0.0028
2.775,0.0006
2.776,0
2.777,0.0031
2.778,0.0048
2.779,0.0061
2.78,0.0121
2.781,0.0081
2.782,0.0042
2.783,0.0048
2.784,-0.0009
2.785,0.0013
2.786,0.0019
2.787,0.0013
2.788,0.0052
2.789,0.0048
2.79,0.007
2.791,0.0066
2.792,0.0024
2.793,0.0008
2.794,0.0031
2.795,0.0035
2.796,0.0063
2.797,0.0074
2.798,0.007
2.799,0.0077
2.8,0.0079
2.801,0.0086
2.802,0.0064
2.803,0.0066
2.804,0.0026
2.805,0.002
2.806,0.0026
2.807,0.0101
2.808,0.0204
2.809,0.0108
2.81,0.0193
2.811,0.0249
2.812,0.0118
2.813,-0.0011
2.814,-0.006
2.815,-0.0104
2.816,-0.0091
2.817,-0.008
2.818,-0.0091
2.819,-0.01
2.82,-0.0073
2.821,-0.0066
2.822,-0.0073
2.823,-0.0027
2.824,0.0017
2.825,-0.0045
2.826,0.0011
2.827,0.0004
2.828,-0.0042
2.829,-0.0011
2.83,0.0041
2.831,0.0046
2.832,0.0052
2.833,0.0024
2.834,-0.0009
2.835,0.0061
2.836,0.0011
2.837,-0.0128
2.838,-0.0269
2.839,-0.036
2.84,-0.0476
2.841,-0.0551
2.842,-0.0591
2.843,-0.0626
2.844,-0.0615
2.845,-0.0483
2.846,-0.0245
2.847,-0.002
2.848,0.0187
2.849,0.0266
2.85,0.0387
2.851,0.063
2.852,0.0855
2.853,0.1123
2.854,0.1445
2.855,0.1661
2.856,0.172
2.857,0.1603
2.858,0.1709
2.859,0.2002
2.86,0.2276
2.861,0.2383
2.862,0.1895
2.863,0.1687
2.864,0.1749
2.865,0.1806
2.866,0.2068
2.867,0.221
2.868,0.1994
2.869,0.1403
2.87,0.0471
2.871,-0.0152
2.872,-0.0489
2.873,-0.1206
2.874,-0.2047
2.875,-0.3288
2.876,-0.3784
2.877,-0.3634
2.878,-0.377
2.879,-0.4143
2.88,-0.4255
2.881,-0.3742
2.882,-0.3275
2.883,-0.3528
2.884,-0.3144
2.885,-0.2794
2.886,-0.2605
2.887,-0.2202
2.888,-0.2047
2.889,-0.1809
2.89,-0.1507
2.891,-0.1389
2.892,-0.1212
2.893,-0.0789
2.894,-0.0269
2.895,0.022
2.896,0.0537
2.897,0.094
2.898,0.1306
2.899,0.1449
2.9,0.1577
2.901,0.1694
2.902,0.1872
2.903,0.1967
2.904,0.2115
2.905,0.209
2.906,0.2161
2.907,0.2181
2.908,0.2071
2.909,0.2132
2.91,0.204
2.911,0.1925
2.912,0.17
2.913,0.1407
2.914,0.1211
2.915,0.1104
2.916,0.0879
2.917,0.0731
2.918,0.0652
2.919,0.0531
2.92,0.0421
2.921,0.0361
2.922,0.027
2.923,0.0154
2.924,0.0169
2.925,0.0129
2.926,0.0094
2.927,0.0061
2.928,0.0052
2.929,-0.0033
2.93,-0.0022
2.931,-0.0113
2.932,-0.0078
2.933,-0.0067
2.934,-0.0097
2.935,-0.0142
2.936,-0.0119
2.937,-0.0157
2.938,-0.0175
2.939,-0.0157
2.94,-0.0174
2.941,-0.017
2.942,-0.0166
2.943,-0.017
2.944,-0.0144
2.945,-0.0155
2.946,-0.0201
2.947,-0.0168
2.948,-0.0099
2.949,-0.0144
2.95,-0.0104
2.951,-0.0142
2.952,-0.011
2.953,-0.0115
2.954,-0.0131
2.955,-0.0066
2.956,-0.015
2.957,-0.0117
2.958,-0.0089
2.959,-0.006
2.96,0.0079
2.961,0.018
2.962,0.0198
2.963,0.0116
2.964,0.0011
2.965,-0.0029
2.966,-0.004
2.967,-0.0119
2.968,-0.0089
2.969,-0.008
2.97,-0.0073
2.971,-0.008
2.972,-0.0099
2.973,-0.0117
2.974,-0.0111
2.975,-0.0144
2.976,-0.0122
2.977,-0.0126
2.978,-0.0091
2.979,-0.0095
2.98,-0.015
2.981,-0.0111
2.982,-0.0049
2.983,-0.0025
2.984,-0.0047
2.985,-0.0029
2.986,0.0002
2.987,0.003
2.988,0.0075
2.989,0.0081
2.99,0.0053
2.991,0.003
2.992,0.0033
2.993,0.0044
2.994,0.0094
2.995,0.0075
2.996,0.0081
2.997,0.0064
2.998,0.0031
2.999,0.0083
3,0.0116
3.001,0.0097
3.002,0.0059
3.003,0.0046
3.004,0.0024
3.005,0.0013
3.006,-0.0005
3.007,-0.0038
3.008,0.0008
3.009,-0.0016
3.01,-0.0086
3.011,0.0053
3.012,0.0154
3.013,0.0209
3.014,0.0259
3.015,0.0183
3.016,0.0033
3.017,-0.0027
3.018,-0.0082
3.019,-0.0033
3.02,-0.0077
3.021,-0.0036
3.022,-0.0047
3.023,-0.0058
3.024,-0.0029
3.025,-0.0038
3.026,-0.0095
3.027,-0.0073
3.028,-0.0027
3.029,0.0017
3.03,0.0011
3.031,-0.0022
3.032,-0.0018
3.033,0.0028
3.034,-0.0003
3.035,-0.0042
3.036,-0.0018
3.037,0.0024
3.038,0.0041
3.039,0.0037
3.04,0.0059
3.041,0.0031
3.042,-0.0025
3.043,-0.0001
3.044,0.0006
3.045,0.0108
3.046,0.0064
3.047,0.0105
3.048,0.0094
3.049,0.0105
3.05,0.0096
3.051,0.0123
3.052,0.0066
3.053,0.0028
3.054,0.0061
3.055,0.0092
3.056,0.0075
3.057,0.0108
3.058,0.0178
3.059,0.0187
3.06,0.013
3.061,0.0103
3.062,0.0178
3.063,0.0108
3.064,0.0211
3.065,0.0224
3.066,0.0213
3.067,0.0042
3.068,-0.0029
3.069,-0.0095
3.07,-0.0075
3.071,-0.013
3.072,-0.0179
3.073,-0.0104
3.074,-0.0117
3.075,-0.0128
3.076,-0.0049
3.077,-0.0058
3.078,-0.0031
3.079,-0.0007
3.08,0.0108
3.081,0.0224
3.082,0.0119
3.083,0.0052
3.084,0.0017
3.085,0.0028
3.086,0.0019
3.087,0.0046
3.088,0.0086
3.089,0.0033
3.09,0.0028
3.091,0.0009
3.092,0.0061
3.093,0.0055
3.094,0.0074
3.095,0.0035
3.096,0.0011
3.097,0.0081
3.098,0.013
3.099,0.0121
3.1,0.0064
3.101,0.0072
3.102,0.0105
3.103,0.0136
3.104,0.0052
3.105,0.0086
3.106,0.0075
3.107,0.0085
3.108,0.0094
3.109,0.0053
3.11,0.0075
3.111,0.0086
3.112,0.0119
3.113,0.0215
3.114,0.0392
3.115,0.0416
3.116,0.0262
3.117,0.0121
3.118,0.003
3.119,-0.0053
3.12,-0.0067
3.121,-0.008
3.122,-0.0045
3.123,-0.0012
3.124,-0.0042
3.125,-0.0033
3.126,-0.0025
3.127,-0.011
3.128,-0.0077
3.129,-0.0067
3.13,-0.004
3.131,-0.0016
3.132,-0.0009
3.133,-0.0042
3.134,-0.0036
3.135,-0.0009
3.136,-0.0012
3.137,-0.0044
3.138,-0.004
3.139,-0.0097
3.14,-0.0089
3.141,-0.0067
3.142,-0.0062
3.143,-0.0067
3.144,-0.0016
3.145,-0.0049
3.146,-0.0067
3.147,-0.0084
3.148,-0.0071
3.149,-0.0067
3.15,-0.004
3.151,0.0002
3.152,-0.0036
3.153,-0.0023
3.154,-0.0066
3.155,-0.0027
3.156,-0.004
3.157,-0.0062
3.158,-0.0016
3.159,-0.0034
3.16,-0.0029
3.161,-0.0084
3.162,-0.0016
3.163,-0.0038
3.164,0.0064
3.165,0.0108
3.166,0.0176
3.167,0.0288
3.168,0.0302
3.169,0.0125
3.17,0.0004
3.171,-0.0062
3.172,-0.0042
3.173,-0.0097
3.174,-0.0047
3.175,-0.0062
3.176,-0.0075
3.177,-0.0014
3.178,-0.0047
3.179,-0.0056
3.18,0.0008
3.181,-0.0033
3.182,-0.0055
3.183,-0.0009
3.184,0.0048
3.185,0.0055
3.186,0.0074
3.187,0.0092
3.188,0.0075
3.189,0.0099
3.19,0.0086
3.191,0.0031
3.192,0.0085
3.193,0.0022
3.194,0.0097
3.195,0.0127
3.196,0.0099
3.197,0.0107
3.198,0.0037
3.199,0.0083
3.2,0.0026
3.201,0.0048
3.202,0.003
3.203,0.0048
3.204,-0.0014
3.205,0.0077
3.206,0.0042
3.207,0.0009
3.208,0.0039
3.209,0.0085
3.21,0.0028
3.211,0.0006
3.212,-0.0027
3.213,0.0108
3.214,0.0077
3.215,0.0161
3.216,0.0222
3.217,0.0119
3.218,0.0297
3.219,0.0226
3.22,0.0116
3.221,0.0015
3.222,-0.004
3.223,-0.0089
3.224,-0.0075
3.225,-0.0034
3.226,-0.0069
3.227,-0.0058
3.228,-0.0049
3.229,-0.0022
3.23,0.0002
3.231,-0.0005
3.232,-0.0011
3.233,0.002
3.234,0.0059
3.235,0.0083
3.236,0.0052
3.237,0.0041
3.238,0.0052
3.239,0.0026
3.24,0.0066
3.241,0.0015
3.242,0.002
3.243,0.0039
3.244,0.0077
3.245,0.0064
3.246,0.0077
3.247,0.0039
3.248,0.0035
3.249,-0.0007
3.25,0.002
3.251,0.0053
3.252,0.0057
3.253,0.0046
3.254,0.0088
3.255,0.0037
3.256,0.0031
3.257,0.0037
3.258,0.002
3.259,-0.0025
3.26,0.0019
3.261,0.0002
3.262,0.0015
3.263,-0.0016
3.264,0.0013
3.265,0.0024
3.266,0.0028
3.267,0.0083
3.268,0.0198
3.269,0.0182
3.27,0.0196
3.271,0.0209
3.272,0.0125
3.273,-0.0045
3.274,-0.0117
3.275,-0.0139
3.276,-0.0119
3.277,-0.01
3.278,-0.0084
3.279,-0.0069
3.28,-0.0056
3.281,-0.0067
3.282,-0.0034
3.283,-0.0044
3.284,-0.0034
3.285,-0.0027
3.286,0.0011
3.287,0.003
3.288,0.0024
3.289,0.0041
3.29,0.0053
3.291,0.0057
3.292,0.0068
3.293,0.0086
3.294,0.0119
3.295,0.0081
3.296,0.0077
3.297,0.0046
3.298,0.0026
3.299,0.0052
3.3,0.0063
3.301,0.0022
3.302,-0.0016
3.303,0.003
3.304,0.0061
3.305,0.0022
3.306,0.0035
3.307,0.0066
3.308,0.0039
3.309,-0.0018
3.31,-0.0011
3.311,-0.0018
3.312,0
3.313,0.0019
3.314,0.0002
3.315,0.0028
3.316,0.0031
3.317,0.0101
3.318,0.013
3.319,0.027
3.32,0.029
3.321,0.0125
3.322,0.0059
3.323,0.0039
3.324,-0.0016
3.325,-0.0099
3.326,0.0037
3.327,0.0129
3.328,0.0013
3.329,0.0028
3.33,-0.004
3.331,-0.01
3.332,-0.0111
3.333,-0.0082
3.334,-0.0036
3.335,-0.0012
3.336,-0.0005
3.337,0.0041
3.338,0.0035
3.339,0.0008
3.34,-0.0038
3.341,-0.0069
3.342,0.0015
3.343,0.0075
3.344,0.0086
3.345,0.0057
3.346,0.0048
3.347,0.0055
3.348,0.0002
3.349,0.002
3.35,0.0015
3.351,0.0031
3.352,0.0107
3.353,0.0096
3.354,0.0066
3.355,0.0039
3.356,0.0046
3.357,0.0068
3.358,0.0114
3.359,0.0044
3.36,0.0017
3.361,0.0024
3.362,0.0031
3.363,0.0037
3.364,0.0006
3.365,0.0057
3.366,0.0079
3.367,0.0141
3.368,0.0216
3.369,0.0207
3.37,0.0198
3.371,0.029
3.372,0.0154
3.373,0.0063
3.374,0.0046
3.375,-0.0058
3.376,-0.0071
3.377,-0.006
3.378,-0.0027
3.379,-0.0119
3.38,-0.0108
3.381,-0.0097
3.382,-0.0088
3.383,-0.0097
3.384,-0.0073
3.385,-0.0095
3.386,-0.01
3.387,-0.0044
3.388,-0.0066
3.389,-0.0047
3.39,-0.0016
3.391,-0.0044
3.392,0.0002
3.393,-0.0003
3.394,0.0002
3.395,0.0015
3.396,0.0011
3.397,0.0074
3.398,0.0064
3.399,0.0072
3.4,0.0079
3.401,0.0074
3.402,0.003
3.403,0.0057
3.404,0.0061
3.405,0.0112
3.406,0.0094
3.407,0.0037
3.408,-0.0016
3.409,0.0059
3.41,0.0108
3.411,0.0081
3.412,0.0006
3.413,0.0035
3.414,0.0008
3.415,0.0064
3.416,0.0026
3.417,0.0086
3.418,0.0092
3.419,0.0061
3.42,0.0145
3.421,0.018
3.422,0.0169
3.423,0.0178
3.424,0.0205
3.425,0.0149
3.426,0.0033
3.427,-0.0082
3.428,-0.0067
3.429,-0.008
3.43,-0.0091
3.431,-0.0058
3.432,-0.0067
3.433,-0.0077
3.434,-0.0001
3.435,-0.0011
3.436,-0.0001
3.437,-0.0058
3.438,0.0011
3.439,-0.0016
3.44,0.0008
3.441,0
3.442,0.0046
3.443,0.0041
3.444,0.0024
3.445,0.0028
3.446,0.0031
3.447,-0.0007
3.448,-0.002
3.449,0.0002
3.45,-0.0001
3.451,0.0033
3.452,0.0085
3.453,0.0066
3.454,0.0048
3.455,0.0075
3.456,0.0063
3.457,0.0031
3.458,0.0052
3.459,0.0055
3.46,0.0044
3.461,0.0037
3.462,-0.0005
3.463,0.0026
3.464,0.0042
3.465,0.0066
3.466,0.0053
3.467,0.0042
3.468,0.002
3.469,0.0077
3.47,0.0202
3.471,0.022
3.472,0.0204
3.473,0.0218
3.474,0.0231
3.475,0.0096
3.476,-0.0033
3.477,-0.0049
3.478,-0.0093
3.479,-0.0106
3.48,-0.0166
3.481,-0.0088
3.482,-0.0097
3.483,-0.0088
3.484,-0.008
3.485,-0.0042
3.486,0.0048
3.487,0.0059
3.488,0.0092
3.489,0.0022
3.49,-0.0023
3.491,0
3.492,-0.0007
3.493,0.0011
3.494,0.0017
3.495,-0.0034
3.496,0.0011
3.497,0.0017
3.498,0.0022
3.499,0.0009
3.5,0.0061
3.501,0.0107
3.502,0.0163
3.503,0.0171
3.504,0.0068
3.505,-0.0007
3.506,0.0033
3.507,0.0044
3.508,-0.0058
3.509,-0.0045
3.51,-0.0011
3.511,0.0022
3.512,-0.0007
3.513,-0.0016
3.514,-0.0009
3.515,-0.0031
3.516,-0.0025
3.517,-0.0007
3.518,-0.0012
3.519,-0.0023
3.52,0.0022
3.521,0.0092
3.522,0.0194
3.523,0.0207
3.524,0.0196
3.525,0.0253
3.526,0.0365
3.527,0.0321
3.528,0.0198
3.529,0.0048
3.53,-0.0093
3.531,-0.0075
3.532,-0.0157
3.533,-0.0142
3.534,-0.013
3.535,-0.0095
3.536,-0.0084
3.537,-0.0014
3.538,-0.0005
3.539,0.0035
3.54,-0.0003
3.541,-0.0036
3.542,-0.0018
3.543,-0.0012
3.544,0.0053
3.545,0.0044
3.546,0.0068
3.547,0.0075
3.548,0.0121
3.549,0.0052
3.55,0.0006
3.551,0.0013
3.552,0.0052
3.553,0.0097
3.554,0.0066
3.555,-0.0018
3.556,0.0066
3.557,0.0077
3.558,0.0086
3.559,0.0077
3.56,0.0053
3.561,0.0061
3.562,0.0042
3.563,0.0024
3.564,0.0063
3.565,0.005
3.566,0.0053
3.567,0.0064
3.568,0.0039
3.569,0.0064
3.57,0.002
3.571,0.0041
3.572,0.0083
3.573,0.0178
3.574,0.0055
3.575,0.0039
3.576,0.0053
3.577,0.0231
3.578,0.0255
3.579,0.0101
3.58,0.0041
3.581,0.0022
3.582,0.0039
3.583,-0.0097
3.584,-0.0115
3.585,-0.0033
3.586,-0.0077
3.587,-0.0064
3.588,0.002
3.589,0.0031
3.59,0.0002
3.591,-0.0062
3.592,-0.0055
3.593,-0.0062
3.594,-0.0044
3.595,-0.0012
3.596,0.0004
3.597,0.0017
3.598,0.0013
3.599,0.0002
3.6,-0.0047
3.601,-0.0042
3.602,-0.0023
3.603,-0.0108
3.604,-0.0142
3.605,-0.0291
3.606,-0.0392
3.607,-0.0483
3.608,-0.0533
3.609,-0.0576
3.61,-0.0617
3.611,-0.0556
3.612,-0.0408
3.613,-0.0267
3.614,-0.0029
3.615,0.0132
3.616,0.0161
3.617,0.0348
3.618,0.0568
3.619,0.0775
3.62,0.107
3.621,0.1288
3.622,0.1483
3.623,0.1661
3.624,0.163
3.625,0.1601
3.626,0.2004
3.627,0.2291
3.628,0.2029
3.629,0.1599
3.63,0.1427
3.631,0.1478
3.632,0.1621
3.633,0.1923
3.634,0.204
3.635,0.2005
3.636,0.1518
3.637,0.0606
3.638,0.0482
3.639,0.0145
3.64,-0.0573
3.641,-0.1787
3.642,-0.2946
3.643,-0.3396
3.644,-0.3532
3.645,-0.3905
3.646,-0.4017
3.647,-0.3914
3.648,-0.3448
3.649,-0.3363
3.65,-0.3286
3.651,-0.3078
3.652,-0.2761
3.653,-0.2589
3.654,-0.2223
3.655,-0.208
3.656,-0.1778
3.657,-0.166
3.658,-0.1483
3.659,-0.1322
3.66,-0.0935
3.661,-0.0569
3.662,-0.0139
3.663,0.0149
3.664,0.0621
3.665,0.1064
3.666,0.1236
3.667,0.1392
3.668,0.163
3.669,0.1846
3.67,0.1963
3.671,0.2069
3.672,0.2071
3.673,0.2166
3.674,0.2196
3.675,0.2117
3.676,0.2141
3.677,0.2031
3.678,0.1769
3.679,0.1734
3.68,0.1573
3.681,0.1247
3.682,0.1031
3.683,0.0835
3.684,0.0729
3.685,0.0568
3.686,0.042
3.687,0.0394
3.688,0.0323
3.689,0.0257
3.69,0.0196
3.691,0.0141
3.692,0.0158
3.693,0.0114
3.694,0.0101
3.695,0.0041
3.696,-0.0016
3.697,-0.0025
3.698,-0.0053
3.699,-0.0045
3.7,-0.0053
3.701,-0.002
3.702,-0.0064
3.703,-0.008
3.704,-0.0093
3.705,-0.0097
3.706,-0.0108
3.707,-0.0142
3.708,-0.01
3.709,-0.0128
3.71,-0.0053
3.711,-0.0086
3.712,-0.0095
3.713,-0.0179
3.714,-0.0122
3.715,-0.0131
3.716,-0.0104
3.717,-0.0128
3.718,-0.0089
3.719,-0.0135
3.72,-0.0091
3.721,-0.0097
3.722,-0.013
3.723,-0.0097
3.724,-0.011
3.725,-0.0047
3.726,0.0017
3.727,-0.0023
3.728,0.0061
3.729,0.005
3.73,0.0079
3.731,0.0088
3.732,-0.0036
3.733,0.0092
3.734,0.0042
3.735,-0.0093
3.736,-0.0185
3.737,-0.0234
3.738,-0.0219
3.739,-0.0232
3.74,-0.0221
3.741,-0.0188
3.742,-0.0218
3.743,-0.0172
3.744,-0.0097
3.745,-0.0106
3.746,-0.0042
3.747,-0.0034
3.748,-0.0073
3.749,-0.0055
3.75,-0.0049
3.751,-0.0011
3.752,-0.0007
3.753,0.0035
3.754,0.0041
3.755,0.0053
3.756,0.005
3.757,-0.0012
3.758,-0.004
3.759,-0.0016
3.76,0.0037
3.761,-0.0025
3.762,0.005
3.763,0.0119
3.764,0.0035
3.765,-0.0089
3.766,-0.004
3.767,0.0035
3.768,0.0048
3.769,0.0013
3.77,0.0046
3.771,0.0055
3.772,0.0009
3.773,0.0033
3.774,0.0079
3.775,0.0026
3.776,0.0129
3.777,0.0204
3.778,0.0271
3.779,0.0306
3.78,0.0136
3.781,0.0064
3.782,-0.0045
3.783,0.0015
3.784,-0.0077
3.785,-0.0093
3.786,-0.0078
3.787,-0.0066
3.788,-0.0055
3.789,-0.0044
3.79,-0.0034
3.791,0.003
3.792,0.0006
3.793,0.0028
3.794,0.0009
3.795,0.0041
3.796,0.0013
3.797,0.0046
3.798,0.0033
3.799,0.0053
3.8,-0.0003
3.801,0.002
3.802,0.0042
3.803,0.0048
3.804,0.003
3.805,0.0013
3.806,0.0026
3.807,0.0039
3.808,0.0059
3.809,0.0063
3.81,0.0066
3.811,0.0081
3.812,0.0079
3.813,0.0044
3.814,0.0066
3.815,0.0039
3.816,0.0074
3.817,0.0077
3.818,0.0139
3.819,0.0167
3.82,0.011
3.821,0.0009
3.822,0.0022
3.823,0.0011
3.824,0.0022
3.825,0.002
3.826,0.0011
3.827,0.015
3.828,0.009
3.829,0.0255
3.83,0.0189
3.831,0.0048
3.832,-0.0044
3.833,-0.006
3.834,-0.0104
3.835,-0.0064
3.836,-0.0053
3.837,-0.0064
3.838,-0.0055
3.839,-0.0045
3.84,-0.0038
3.841,-0.0016
3.842,0.0046
3.843,0.0053
3.844,0.0061
3.845,0.0066
3.846,0.0022
3.847,0.0017
3.848,0.003
3.849,0.0099
3.85,0.0008
3.851,0.0042
3.852,0.0053
3.853,0.0044
3.854,0.0072
3.855,0.0096
3.856,0.0088
3.857,0.0094
3.858,0.0099
3.859,0.0072
3.86,0.0039
3.861,0.0035
3.862,0.0055
3.863,0.0044
3.864,0.007
3.865,0.005
3.866,0.0068
3.867,0.0055
3.868,0.0041
3.869,0.002
3.87,0.0033
3.871,0.0008
3.872,0.0026
3.873,0.0019
3.874,0.0061
3.875,0.0105
3.876,0.0072
3.877,0.0099
3.878,0.0174
3.879,0.0231
3.88,0.0323
3.881,0.0238
3.882,0.0227
3.883,0.0116
3.884,0.0041
3.885,-0.0027
3.886,-0.0062
3.887,-0.0073
3.888,-0.0102
3.889,-0.0056
3.89,-0.008
3.891,-0.0058
3.892,-0.0077
3.893,-0.0045
3.894,-0.0018
3.895,-0.0031
3.896,-0.0018
3.897,0.0009
3.898,-0.0001
3.899,-0.0027
3.9,-0.002
3.901,-0.0018
3.902,-0.0016
3.903,0.0019
3.904,-0.0005
3.905,0.0017
3.906,-0.0003
3.907,-0.0007
3.908,-0.0025
3.909,0.002
3.91,-0.0012
3.911,-0.0007
3.912,-0.0058
3.913,-0.004
3.914,-0.0034
3.915,-0.004
3.916,-0.0064
3.917,-0.006
3.918,0.0002
3.919,-0.0007
3.92,-0.0031
3.921,-0.0009
3.922,-0.0042
3.923,-0.0011
3.924,-0.0005
3.925,0.0008
3.926,-0.0023
3.927,0.0013
3.928,-0.0033
3.929,0.0063
3.93,0.0075
3.931,0.0211
3.932,0.0119
3.933,-0.0031
3.934,-0.0011
3.935,-0.0066
3.936,-0.0016
3.937,-0.0091
3.938,-0.0104
3.939,-0.0069
3.94,-0.0058
3.941,-0.0067
3.942,-0.0058
3.943,-0.0001
3.944,-0.0086
3.945,-0.0053
3.946,-0.0044
3.947,-0.0016
3.948,0.0041
3.949,0.0033
3.95,0.0052
3.951,0.007
3.952,0.0143
3.953,0.0074
3.954,0.0064
3.955,0.0105
3.956,0.0052
3.957,0.0046
3.958,0.0052
3.959,0.0035
3.96,0.0002
3.961,0.0033
3.962,0.0053
3.963,0.0072
3.964,0.0097
3.965,0.0138
3.966,0.0154
3.967,0.0099
3.968,0.0107
3.969,0.0074
3.97,0.0105
3.971,0.0053
3.972,0.0059
3.973,0.0041
3.974,0.0092
3.975,0.0046
3.976,0.0064
3.977,0.0103
3.978,0.0101
3.979,0.0088
3.98,0.0158
3.981,0.0187
3.982,0.0308
3.983,0.0259
3.984,0.0123
3.985,-0.0005
3.986,0.0044
3.987,-0.0031
3.988,-0.0044
3.989,-0.0055
3.99,-0.0066
3.991,-0.0056
3.992,-0.0066
3.993,-0.0042
3.994,0.0011
3.995,-0.0007
3.996,-0.0012
3.997,-0.0029
3.998,-0.0025
3.999,-0.0003
4,0.0008
4.001,0.0019
4.002,0.0044
4.003,0.0059
4.004,0.0041
4.005,0.0048
4.006,0.0013
4.007,-0.0053
4.008,0.005
4.009,0.0009
4.01,0.002
4.011,0.0031
4.012,0.0022
4.013,0.0013
4.014,0.0006
4.015,-0.0001
4.016,0.0017
4.017,0.0035
4.018,0.0041
4.019,0.0017
4.02,0.003
4.021,0.005
4.022,0.0031
4.023,0.0035
4.024,0.0055
4.025,0.0013
4.026,0.0019
4.027,0.0024
4.028,0.007
4.029,0.0072
4.03,0.0077
4.031,0.0161
4.032,0.015
4.033,0.0253
4.034,0.0266
4.035,0.0105
4.036,-0.0005
4.037,0.0015
4.038,-0.004
4.039,-0.0056
4.04,-0.0042
4.041,-0.0055
4.042,-0.002
4.043,-0.0031
4.044,-0.004
4.045,-0.0067
4.046,-0.0044
4.047,-0.0005
4.048,0.0013
4.049,0.0031
4.05,0.0026
4.051,0.0039
4.052,-0.0003
4.053,0.0013
4.054,0.0088
4.055,0.0077
4.056,0.0008
4.057,0.0053
4.058,0.0061
4.059,0.0053
4.06,0.0048
4.061,0.0004
4.062,0.0077
4.063,0.0107
4.064,0.0209
4.065,0.0141
4.066,0.0107
4.067,0.0028
4.068,0.0019
4.069,0.0009
4.07,0.0033
4.071,0.0055
4.072,-0.0034
4.073,0.005
4.074,0.0061
4.075,0.007
4.076,0.0042
4.077,0.005
4.078,0.0028
4.079,0.0046
4.08,0.0035
4.081,0.0017
4.082,0.0101
4.083,0.0185
4.084,0.031
4.085,0.0127
4.086,0.0055
4.087,0.0033
4.088,0.0013
4.089,-0.0005
4.09,-0.0055
4.091,-0.0069
4.092,-0.0056
4.093,-0.0067
4.094,-0.0034
4.095,-0.0064
4.096,-0.0036
4.097,-0.0044
4.098,-0.0066
4.099,-0.006
4.1,-0.0003
4.101,0.0004
4.102,-0.0014
4.103,0.0004
4.104,0.0009
4.105,0.0022
4.106,-0.0009
4.107,0.003
4.108,0.0026
4.109,0.0022
4.11,0.0026
4.111,0.0052
4.112,0.0033
4.113,0.0019
4.114,0.0037
4.115,0.0077
4.116,0.0072
4.117,0.0039
4.118,0.0035
4.119,0.0055
4.12,0.003
4.121,0.0004
4.122,-0.0011
4.123,-0.0003
4.124,0.0026
4.125,0.0022
4.126,0.0004
4.127,0.0019
4.128,0.0026
4.129,0.0044
4.13,0.003
4.131,0.002
4.132,0.0015
4.133,0.0044
4.134,0.0107
4.135,0.0246
4.136,0.0346
4.137,0.0145
4.138,0.0066
4.139,-0.0005
4.14,-0.0071
4.141,-0.0131
4.142,-0.0113
4.143,-0.0064
4.144,-0.002
4.145,-0.0033
4.146,0.0028
4.147,-0.0005
4.148,0.0004
4.149,-0.0023
4.15,0.0017
4.151,0.0024
4.152,-0.0022
4.153,0.0022
4.154,0.0028
4.155,0.0024
4.156,0.0046
4.157,0.0101
4.158,0.0031
4.159,0.0041
4.16,0.0048
4.161,0.0055
4.162,0.0022
4.163,0.0041
4.164,0.0024
4.165,0.007
4.166,0.0052
4.167,0.0024
4.168,0.002
4.169,0.0017
4.17,0.0013
4.171,0.0039
4.172,0.0042
4.173,0.0009
4.174,0.0031
4.175,0.0028
4.176,0.0017
4.177,0.005
4.178,0.007
4.179,0.0044
4.18,-0.0003
4.181,0.0028
4.182,0.0072
4.183,0.0009
4.184,0.0134
4.185,0.0079
4.186,0.0262
4.187,0.0286
4.188,0.022
4.189,0.0039
4.19,-0.0033
4.191,-0.0055
4.192,-0.0034
4.193,-0.0089
4.194,-0.0073
4.195,-0.0029
4.196,-0.0069
4.197,-0.0058
4.198,-0.0025
4.199,-0.0016
4.2,-0.0025
4.201,-0.0033
4.202,0.0006
4.203,0.0052
4.204,0.0046
4.205,0.0063
4.206,0.0059
4.207,0.0046
4.208,0.0066
4.209,0.0048
4.21,0.0052
4.211,0.0079
4.212,0.0053
4.213,0.002
4.214,-0.0007
4.215,0.005
4.216,0.0057
4.217,0.0035
4.218,0.0041
4.219,0.0046
4.22,0.0052
4.221,0.0028
4.222,0.0031
4.223,0.0042
4.224,0.0085
4.225,0.0022
4.226,0.0046
4.227,0.0039
4.228,0.0044
4.229,0.0039
4.23,0.0011
4.231,0.0035
4.232,0.0031
4.233,-0.0001
4.234,0.0002
4.235,-0.0023
4.236,0.0031
4.237,0.0147
4.238,0.0196
4.239,0.0182
4.24,0.0249
4.241,0.0284
4.242,0.016
4.243,0.0044
4.244,-0.0031
4.245,-0.0071
4.246,-0.0082
4.247,-0.0093
4.248,-0.0163
4.249,-0.0172
4.25,-0.0148
4.251,-0.0078
4.252,-0.0051
4.253,-0.0027
4.254,-0.0049
4.255,-0.0031
4.256,-0.0036
4.257,-0.0042
4.258,-0.0055
4.259,-0.0042
4.26,-0.0003
4.261,0
4.262,0.0022
4.263,0.0061
4.264,0.0048
4.265,0.0017
4.266,-0.0003
4.267,0.0046
4.268,0.0028
4.269,0.0085
4.27,0.0077
4.271,0.011
4.272,0.0092
4.273,0.0097
4.274,0.013
4.275,0.0088
4.276,0.0094
4.277,0.0019
4.278,0.003
4.279,0
4.28,0.0009
4.281,0.0017
4.282,0.0055
4.283,0.0061
4.284,0.0072
4.285,0.009
4.286,0.0174
4.287,0.0235
4.288,0.0178
4.289,0.0169
4.29,0.0196
4.291,0.0237
4.292,0.0121
4.293,0.0006
4.294,-0.0099
4.295,-0.0111
4.296,-0.0196
4.297,-0.0163
4.298,-0.0192
4.299,-0.0201
4.3,-0.0161
4.301,-0.0122
4.302,-0.0047
4.303,-0.0097
4.304,-0.0069
4.305,-0.0029
4.306,-0.0036
4.307,-0.0055
4.308,-0.0049
4.309,0.0035
4.31,0.0196
4.311,0.013
4.312,0.007
4.313,0.0015
4.314,0.0031
4.315,0.0017
4.316,0.003
4.317,0.0041
4.318,0.0052
4.319,0.0121
4.32,0.0037
4.321,0.0048
4.322,0.018
4.323,0.0125
4.324,0.0108
4.325,0.0064
4.326,0.0077
4.327,0.0066
4.328,0.0077
4.329,0.0107
4.33,0.0079
4.331,0.0039
4.332,0.0046
4.333,0.0092
4.334,0.011
4.335,0.005
4.336,0.0033
4.337,0.0108
4.338,0.0187
4.339,0.0216
4.34,0.028
4.341,0.0156
4.342,0.0028
4.343,0.0044
4.344,-0.006
4.345,-0.0047
4.346,-0.0108
4.347,-0.0075
4.348,-0.0025
4.349,-0.0071
4.35,-0.0031
4.351,-0.0038
4.352,-0.0044
4.353,-0.0012
4.354,-0.0029
4.355,-0.0025
4.356,0.0006
4.357,0.0009
4.358,0.002
4.359,0.0039
4.36,0.0037
4.361,0.003
4.362,0.0048
4.363,0.0013
4.364,0.0068
4.365,0.0046
4.366,0.0041
4.367,0.0022
4.368,0.0061
4.369,0.0037
4.37,0.0024
4.371,0.002
4.372,0.0024
4.373,0.0028
4.374,0.003
4.375,0.0072
4.376,0.009
4.377,0.0107
4.378,0.0031
4.379,0.0042
4.38,0.0013
4.381,0.0041
4.382,-0.0016
4.383,0.0037
4.384,0.0055
4.385,-0.0014
4.386,-0.0016
4.387,-0.008
4.388,-0.0088
4.389,-0.0095
4.39,-0.0157
4.391,-0.0282
4.392,-0.0556
4.393,-0.0595
4.394,-0.063
4.395,-0.0598
4.396,-0.0392
4.397,-0.0258
4.398,-0.0038
4.399,0.005
4.4,0.0183
4.401,0.0403
4.402,0.061
4.403,0.0852
4.404,0.1145
4.405,0.1341
4.406,0.1518
4.407,0.1549
4.408,0.1343
4.409,0.1317
4.41,0.1681
4.411,0.1943
4.412,0.18
4.413,0.1584
4.414,0.1467
4.415,0.1502
4.416,0.1859
4.417,0.2002
4.418,0.2044
4.419,0.2005
4.42,0.1469
4.421,0.0467
4.422,0.0059
4.423,-0.0315
4.424,-0.0879
4.425,-0.2213
4.426,-0.3123
4.427,-0.362
4.428,-0.377
4.429,-0.3905
4.43,-0.3781
4.431,-0.3669
4.432,-0.3156
4.433,-0.2876
4.434,-0.3129
4.435,-0.2898
4.436,-0.2548
4.437,-0.2265
4.438,-0.1822
4.439,-0.1534
4.44,-0.1272
4.441,-0.1034
4.442,-0.0818
4.443,-0.0935
4.444,-0.0758
4.445,-0.0533
4.446,-0.0146
4.447,0.022
4.448,0.0553
4.449,0.0943
4.45,0.1205
4.451,0.1253
4.452,0.1381
4.453,0.1577
4.454,0.1826
4.455,0.1987
4.456,0.2075
4.457,0.2049
4.458,0.2073
4.459,0.2051
4.46,0.191
4.461,0.1782
4.462,0.1632
4.463,0.141
4.464,0.1322
4.465,0.1189
4.466,0.1068
4.467,0.0914
4.468,0.0894
4.469,0.0729
4.47,0.0575
4.471,0.0434
4.472,0.0306
4.473,0.0257
4.474,0.0182
4.475,0.0114
4.476,0.0053
4.477,0.0042
4.478,-0.0007
4.479,-0.0034
4.48,-0.0075
4.481,-0.0097
4.482,-0.013
4.483,-0.0124
4.484,-0.0175
4.485,-0.013
4.486,-0.0161
4.487,-0.0077
4.488,-0.0126
4.489,-0.0115
4.49,0.0033
4.491,-0.0027
4.492,0.0101
4.493,0.0085
4.494,-0.008
4.495,-0.019
4.496,-0.017
4.497,-0.0225
4.498,-0.0274
4.499,-0.026
4.5,-0.0219
4.501,-0.0185
4.502,-0.0174
4.503,-0.0183
4.504,-0.0192
4.505,-0.0168
4.506,-0.0115
4.507,-0.0148
4.508,-0.0078
4.509,-0.0106
4.51,-0.0113
4.511,-0.006
4.512,-0.0042
4.513,-0.0047
4.514,-0.0042
4.515,-0.0045
4.516,-0.0014
4.517,-0.0034
4.518,-0.0016
4.519,-0.0005
4.52,-0.0051
4.521,-0.0033
4.522,-0.0014
4.523,-0.0009
4.524,-0.0005
4.525,-0.0027
4.526,-0.0031
4.527,-0.0005
4.528,-0.0023
4.529,-0.0031
4.53,-0.0012
4.531,0.0011
4.532,-0.0029
4.533,-0.0012
4.534,0.0011
4.535,0.0081
4.536,0.0011
4.537,0.002
4.538,0.0077
4.539,0.0057
4.54,0.0079
4.541,0.0182
4.542,0.0196
4.543,0.0264
4.544,0.018
4.545,0.0055
4.546,-0.0027
4.547,-0.0071
4.548,-0.0084
4.549,-0.0119
4.55,-0.0086
4.551,-0.0077
4.552,-0.0012
4.553,-0.0053
4.554,-0.0045
4.555,0.0044
4.556,0.0129
4.557,0.0026
4.558,-0.0014
4.559,-0.0025
4.56,-0.0014
4.561,0.0035
4.562,0.0008
4.563,0.0015
4.564,-0.0007
4.565,0.0011
4.566,0.0006
4.567,0.0022
4.568,0.0009
4.569,0.0079
4.57,0.0088
4.571,0.0042
4.572,0.005
4.573,0.0011
4.574,0.0006
4.575,0.0011
4.576,0.0039
4.577,0.0026
4.578,0.0057
4.579,0.003
4.58,0.0011
4.581,0.0044
4.582,0.0041
4.583,-0.0016
4.584,-0.0009
4.585,0.003
4.586,0.0011
4.587,0.0055
4.588,0.005
4.589,0.0017
4.59,0.0042
4.591,0.0055
4.592,0.0052
4.593,0.0108
4.594,0.0165
4.595,0.0218
4.596,0.0185
4.597,0.009
4.598,0.024
4.599,0.022
4.6,0.0129
4.601,-0.0055
4.602,-0.0078
4.603,-0.0144
4.604,-0.0124
4.605,-0.0142
4.606,-0.0126
4.607,-0.0111
4.608,-0.0044
4.609,-0.0055
4.61,-0.0066
4.611,-0.0075
4.612,-0.0029
4.613,-0.0053
4.614,-0.0031
4.615,0.0031
4.616,0.0039
4.617,0.0061
4.618,0.0066
4.619,0.0072
4.62,0.0044
4.621,0.0068
4.622,0.0064
4.623,0.0075
4.624,0.0086
4.625,0.0039
4.626,0.0044
4.627,0.0072
4.628,0.0068
4.629,0.009
4.63,0.0118
4.631,0.0099
4.632,0.0066
4.633,0.0105
4.634,0.0092
4.635,0.005
4.636,0.0055
4.637,0.0088
4.638,0.0066
4.639,0.0086
4.64,0.0061
4.641,0.0079
4.642,0.009
4.643,0.0136
4.644,0.0211
4.645,0.0182
4.646,0.0266
4.647,0.0233
4.648,0.0081
4.649,0.0059
4.65,-0.0042
4.651,-0.0023
4.652,-0.0007
4.653,-0.0051
4.654,-0.0038
4.655,-0.0003
4.656,-0.0014
4.657,-0.0064
4.658,-0.0018
4.659,0.0006
4.66,0.0028
4.661,-0.0005
4.662,0.0052
4.663,0.0074
4.664,0.0068
4.665,0.0074
4.666,0.0046
4.667,0.0059
4.668,0.0119
4.669,0.0112
4.67,0.0074
4.671,-0.0016
4.672,-0.0077
4.673,-0.0088
4.674,0.0024
4.675,0.0068
4.676,0.0055
4.677,0.009
4.678,0.0057
4.679,0.0048
4.68,-0.0016
4.681,-0.004
4.682,-0.0062
4.683,-0.0056
4.684,-0.0038
4.685,-0.0033
4.686,-0.0078
4.687,-0.0097
4.688,-0.0069
4.689,-0.0023
4.69,-0.0042
4.691,-0.0069
4.692,-0.0038
4.693,-0.0034
4.694,0.0035
4.695,0.0167
4.696,0.0222
4.697,0.0139
4.698,0.0004
4.699,-0.0051
4.7,-0.0067
4.701,-0.0082
4.702,-0.0095
4.703,-0.013
4.704,-0.0051
4.705,-0.01
4.706,-0.011
4.707,-0.0102
4.708,-0.0033
4.709,-0.0023
4.71,-0.0031
4.711,-0.0009
4.712,-0.0055
4.713,-0.0099
4.714,-0.0025
4.715,-0.0034
4.716,-0.0025
4.717,-0.0001
4.718,-0.0023
4.719,0.0009
4.72,0.0028
4.721,0.0055
4.722,0.0052
4.723,0.0121
4.724,0.013
4.725,0.0066
4.726,0.0059
4.727,0.0037
4.728,0.0042
4.729,0.0037
4.73,0.0064
4.731,0.0097
4.732,0.0075
4.733,0.0013
4.734,0.0022
4.735,0.0079
4.736,0.0041
4.737,0.0022
4.738,0.0017
4.739,0.0055
4.74,0.0079
4.741,0.0066
4.742,0.002
4.743,0.005
4.744,0.0068
4.745,0.013
4.746,0.0107
4.747,0.0222
4.748,0.0304
4.749,0.0169
4.75,0.0041
4.751,0.0024
4.752,-0.002
4.753,-0.006
4.754,-0.0071
4.755,-0.0014
4.756,-0.0044
4.757,-0.0016
4.758,-0.0009
4.759,-0.0001
4.76,0.0004
4.761,-0.0014
4.762,0.0002
4.763,0.0026
4.764,0.003
4.765,0.0002
4.766,0.0037
4.767,0.005
4.768,0.0112
4.769,0.0085
4.77,0.0061
4.771,0.0053
4.772,0.0059
4.773,0.009
4.774,0.0096
4.775,0.0083
4.776,0.0086
4.777,0.0048
4.778,0.0044
4.779,0.0013
4.78,0.0024
4.781,0.002
4.782,0.0046
4.783,0.0006
4.784,0.0022
4.785,0.0019
4.786,0.0022
4.787,0.0002
4.788,-0.0033
4.789,-0.0011
4.79,-0.0014
4.791,0.002
4.792,0.0052
4.793,0.0024
4.794,-0.0009
4.795,-0.0005
4.796,0.005
4.797,0.0057
4.798,0.0063
4.799,0.0057
4.8,0.0019
4.801,0.0094
4.802,0.0061
4.803,0.0052
4.804,0.0061
4.805,0.0152
4.806,0.0187
4.807,0.0266
4.808,0.0154
4.809,0.0019
4.81,-0.0036
4.811,-0.0053
4.812,-0.0009
4.813,-0.0022
4.814,-0.0056
4.815,-0.0089
4.816,-0.004
4.817,-0.0049
4.818,-0.0025
4.819,-0.0047
4.82,-0.0029
4.821,-0.0011
4.822,-0.0005
4.823,-0.0051
4.824,0.0019
4.825,0.0064
4.826,0.0057
4.827,0.0035
4.828,0.0053
4.829,0.0059
4.83,0.0075
4.831,0.0063
4.832,0.0075
4.833,0.0072
4.834,0.009
4.835,0.0101
4.836,0.0116
4.837,0.0074
4.838,0.0068
4.839,0.0074
4.84,0.005
4.841,0.0053
4.842,0.0074
4.843,0.0092
4.844,0.0081
4.845,0.0042
4.846,-0.0003
4.847,0.0072
4.848,0.0204
4.849,0.0185
4.85,0.0169
4.851,0.0213
4.852,0.0008
4.853,-0.0022
4.854,-0.01
4.855,-0.0077
4.856,-0.0142
4.857,-0.0122
4.858,-0.0104
4.859,-0.0088
4.86,-0.0073
4.861,-0.0033
4.862,-0.0044
4.863,-0.0033
4.864,0.0017
4.865,0.0044
4.866,0.002
4.867,0.0028
4.868,0.0046
4.869,0.0064
4.87,0.007
4.871,0.0046
4.872,0.0059
4.873,0.0097
4.874,0.0094
4.875,0.0052
4.876,0.0057
4.877,0.0061
4.878,0.0057
4.879,0.0046
4.88,0.0072
4.881,0.0127
4.882,0.0074
4.883,0.0055
4.884,0.0086
4.885,0.0092
4.886,0.0068
4.887,0.0037
4.888,0.0057
4.889,0.0031
4.89,0.0028
4.891,0
4.892,0.0026
4.893,0
4.894,-0.0014
4.895,-0.0007
4.896,0.0006
4.897,0.0013
4.898,0.0048
4.899,0.0123
4.9,0.0248
4.901,0.0132
4.902,0.0057
4.903,0.0044
4.904,-0.004
4.905,-0.0051
4.906,-0.008
4.907,-0.0071
4.908,-0.0078
4.909,-0.01
4.91,-0.0082
4.911,-0.0051
4.912,-0.0056
4.913,-0.0011
4.914,0.0008
4.915,0.007
4.916,0.0013
4.917,0.002
4.918,0.0002
4.919,0.002
4.92,0.0048
4.921,0.0044
4.922,0.0031
4.923,0.0059
4.924,0.0077
4.925,0.0103
4.926,0.0063
4.927,0.0024
4.928,0.002
4.929,0.0052
4.93,0.0024
4.931,0.0081
4.932,0.0041
4.933,0.0033
4.934,0.0039
4.935,0.0033
4.936,0.0039
4.937,0.0015
4.938,0.0046
4.939,0.0057
4.94,0.0107
4.941,0.0044
4.942,0.002
4.943,-0.0001
4.944,0.0017
4.945,0.0022
4.946,0.0017
4.947,0.0013
4.948,-0.002
4.949,0.005
4.95,0.0202
4.951,0.0268
4.952,0.0207
4.953,0.0079
4.954,-0.0003
4.955,-0.0018
4.956,-0.0031
4.957,-0.0042
4.958,-0.0031
4.959,-0.006
4.96,-0.0014
4.961,-0.0071
4.962,-0.0064
4.963,-0.0031
4.964,0
4.965,-0.0005
4.966,-0.0009
4.967,-0.0031
4.968,-0.0011
4.969,0.0046
4.97,0.0053
4.971,0.0061
4.972,-0.0029
4.973,-0.004
4.974,0.0017
4.975,-0.0012
4.976,0.0015
4.977,0.0008
4.978,0.0046
4.979,0.0052
4.98,0.0083
4.981,0.0044
4.982,0.009
4.983,0.0072
4.984,0.0066
4.985,0.0053
4.986,0.0075
4.987,0.0086
4.988,0.0112
4.989,0.0072
4.99,0.0075
4.991,0.0097
4.992,0.0152
4.993,0.0083
4.994,0.011
4.995,0.007
4.996,0.0031
4.997,-0.0001
4.998,0.0006
4.999,0.005
5,0.0112
5.001,0.0088
5.002,0.0204
5.003,0.0286
5.004,0.015
5.005,0.0059
5.006,-0.0023
5.007,0.002
5.008,0.0008
5.009,-0.0053
5.01,-0.002
5.011,-0.0029
5.012,-0.002
5.013,-0.0012
5.014,-0.0051
5.015,-0.0069
5.016,-0.0051
5.017,-0.0034
5.018,-0.0031
5.019,-0.0027
5.02,0.0011
5.021,0.0015
5.022,0.0028
5.023,0.0039
5.024,0.0028
5.025,0.0002
5.026,0
5.027,-0.0007
5.028,0
5.029,-0.0001
5.03,-0.0031
5.031,-0.0012
5.032,-0.0001
5.033,-0.0047
5.034,-0.0066
5.035,-0.0084
5.036,-0.0045
5.037,-0.0012
5.038,0.0019
5.039,0.0046
5.04,0.0057
5.041,0.009
5.042,0.0063
5.043,0.0013
5.044,0.0031
5.045,0.0063
5.046,0.0057
5.047,0.0132
5.048,0.0189
5.049,0.0086
5.05,0.0057
5.051,0.0048
5.052,0.0072
5.053,0.0156
5.054,0.0145
5.055,0.0194
5.056,0.024
5.057,0.0165
5.058,0.0013
5.059,-0.0053
5.06,0.0008
5.061,-0.0047
5.062,-0.0097
5.063,-0.0082
5.064,-0.0069
5.065,-0.0058
5.066,-0.0069
5.067,-0.0078
5.068,-0.0014
5.069,-0.0007
5.07,0
5.071,-0.0033
5.072,0.0037
5.073,0.0064
5.074,0.0057
5.075,0.0035
5.076,0.0041
5.077,0.0059
5.078,0.0053
5.079,0.0099
5.08,0.0068
5.081,0.0063
5.082,0.0075
5.083,0.0053
5.084,0.0042
5.085,0.0068
5.086,0.0094
5.087,0.0061
5.088,0.0009
5.089,0.0042
5.09,0.0074
5.091,0.0079
5.092,0.0055
5.093,0.0033
5.094,0.0044
5.095,0.0048
5.096,0.003
5.097,0.0015
5.098,0.0022
5.099,0.003
5.1,0.0042
5.101,0.0037
5.102,0.007
5.103,0.0139
5.104,0.0189
5.105,0.0253
5.106,0.0277
5.107,0.0161
5.108,0.0011
5.109,-0.0049
5.11,-0.0067
5.111,-0.0084
5.112,-0.0069
5.113,-0.0056
5.114,-0.0091
5.115,-0.0058
5.116,-0.0049
5.117,-0.0022
5.118,0.0002
5.119,-0.0005
5.12,0.0028
5.121,0.0033
5.122,-0.0029
5.123,-0.0086
5.124,-0.0108
5.125,-0.0197
5.126,-0.0232
5.127,-0.0402
5.128,-0.0523
5.129,-0.0545
5.13,-0.0565
5.131,-0.0584
5.132,-0.0501
5.133,-0.0305
5.134,-0.0172
5.135,0.0048
5.136,0.0136
5.137,0.0215
5.138,0.0383
5.139,0.0537
5.14,0.0718
5.141,0.0985
5.142,0.1163
5.143,0.1388
5.144,0.1537
5.145,0.1458
5.146,0.1482
5.147,0.1592
5.148,0.1612
5.149,0.1337
5.15,0.1454
5.151,0.1515
5.152,0.1266
5.153,0.1623
5.154,0.1956
5.155,0.2172
5.156,0.2289
5.157,0.1753
5.158,0.0751
5.159,0.0068
5.16,-0.0554
5.161,-0.1118
5.162,-0.2043
5.163,-0.2915
5.164,-0.3479
5.165,-0.3786
5.166,-0.388
5.167,-0.3627
5.168,-0.3089
5.169,-0.26
5.17,-0.2027
5.171,-0.2257
5.172,-0.2188
5.173,-0.2126
5.174,-0.1953
5.175,-0.1692
5.176,-0.1358
5.177,-0.1142
5.178,-0.0946
5.179,-0.0769
5.18,-0.0673
5.181,-0.0586
5.182,-0.0344
5.183,-0.0183
5.184,0.0204
5.185,0.057
5.186,0.0808
5.187,0.0936
5.188,0.1053
5.189,0.1159
5.19,0.1321
5.191,0.1469
5.192,0.1603
5.193,0.1723
5.194,0.1789
5.195,0.193
5.196,0.1839
5.197,0.1689
5.198,0.1588
5.199,0.1496
5.2,0.1346
5.201,0.1245
5.202,0.1068
5.203,0.0903
5.204,0.0925
5.205,0.0865
5.206,0.0883
5.207,0.0634
5.208,0.0456
5.209,0.0295
5.21,0.0147
5.211,0.0013
5.212,-0.0058
5.213,-0.0124
5.214,-0.0185
5.215,-0.0166
5.216,-0.0183
5.217,-0.0227
5.218,-0.0159
5.219,-0.017
5.22,-0.0137
5.221,-0.0108
5.222,-0.0135
5.223,-0.0142
5.224,-0.0121
5.225,-0.0115
5.226,-0.0133
5.227,-0.0161
5.228,-0.0106
5.229,-0.0067
5.23,-0.01
5.231,-0.0082
5.232,-0.0099
5.233,-0.0075
5.234,-0.0078
5.235,-0.0075
5.236,-0.004
5.237,-0.0027
5.238,-0.0055
5.239,-0.0073
5.24,-0.0077
5.241,-0.0056
5.242,-0.0055
5.243,-0.0047
5.244,-0.0045
5.245,-0.0016
5.246,-0.0058
5.247,-0.0053
5.248,-0.0066
5.249,-0.0044
5.25,-0.0055
5.251,-0.0036
5.252,-0.0033
5.253,-0.0031
5.254,-0.0029
5.255,0.0013
5.256,0.0108
5.257,0.0176
5.258,0.0211
5.259,0.0086
5.26,-0.0029
5.261,-0.0133
5.262,-0.0121
5.263,-0.0131
5.264,-0.0121
5.265,-0.0111
5.266,-0.0121
5.267,-0.0128
5.268,-0.0089
5.269,-0.0084
5.27,-0.004
5.271,-0.0056
5.272,0.0019
5.273,-0.0014
5.274,0.0077
5.275,0.0017
5.276,0.0028
5.277,0.0037
5.278,0.0064
5.279,0.0072
5.28,0.0064
5.281,0.0019
5.282,-0.0038
5.283,-0.0016
5.284,0.003
5.285,-0.0027
5.286,0.0026
5.287,0.0044
5.288,0.0013
5.289,-0.0025
5.29,-0.0058
5.291,0.0011
5.292,0.0163
5.293,0.0097
5.294,0.0077
5.295,0.0022
5.296,0.0006
5.297,0.005
5.298,-0.0018
5.299,0.0017
5.3,-0.004
5.301,-0.0011
5.302,-0.0038
5.303,0.0053
5.304,0.0057
5.305,0.0046
5.306,0.0057
5.307,0.0169
5.308,0.0125
5.309,0.0248
5.31,0.0165
5.311,0
5.312,-0.0022
5.313,-0.0082
5.314,-0.01
5.315,-0.0117
5.316,-0.0042
5.317,-0.0029
5.318,-0.0018
5.319,-0.0051
5.32,-0.006
5.321,-0.0069
5.322,-0.0029
5.323,-0.0082
5.324,-0.0049
5.325,-0.0018
5.326,0.0009
5.327,-0.0003
5.328,0.0019
5.329,0.0022
5.33,0.0072
5.331,0.0077
5.332,0.0083
5.333,0.0088
5.334,0.0101
5.335,0.0097
5.336,0.007
5.337,0.0081
5.338,0.0099
5.339,0.0107
5.34,0.0081
5.341,0.007
5.342,0.0077
5.343,0.0079
5.344,0.0066
5.345,0.0035
5.346,0.0024
5.347,0.0035
5.348,-0.002
5.349,0.005
5.35,0.0096
5.351,0.0152
5.352,0.013
5.353,0.0112
5.354,0.0107
5.355,0.0108
5.356,0.0057
5.357,0.016
5.358,0.0204
5.359,0.0381
5.36,0.031
5.361,0.02
5.362,0.0059
5.363,0.0004
5.364,-0.0012
5.365,-0.0056
5.366,-0.0124
5.367,-0.0089
5.368,-0.0122
5.369,-0.0192
5.37,-0.0146
5.371,-0.0089
5.372,-0.0051
5.373,-0.0018
5.374,0
5.375,0.0017
5.376,0.003
5.377,0.0052
5.378,0.0055
5.379,0.0037
5.38,0.007
5.381,0.0074
5.382,0.0024
5.383,0.007
5.384,0.0075
5.385,0.0092
5.386,0.0068
5.387,0.0046
5.388,0.0074
5.389,0.0031
5.39,0.0105
5.391,0.0055
5.392,0.0046
5.393,0.007
5.394,0.0092
5.395,0.0097
5.396,0.0066
5.397,0.0072
5.398,0.0075
5.399,0.0053
5.4,0.0064
5.401,0.0068
5.402,0.0057
5.403,0.009
5.404,0.0068
5.405,0.0079
5.406,0.0072
5.407,0.0061
5.408,0.0116
5.409,0.02
5.41,0.0233
5.411,0.0242
5.412,0.0103
5.413,0.0002
5.414,-0.0053
5.415,-0.0069
5.416,-0.0113
5.417,-0.0126
5.418,-0.0137
5.419,-0.017
5.42,-0.0121
5.421,-0.0148
5.422,-0.0108
5.423,-0.0086
5.424,-0.0091
5.425,-0.0047
5.426,0.0004
5.427,0.0009
5.428,-0.0047
5.429,-0.004
5.43,-0.0045
5.431,-0.0102
5.432,-0.0049
5.433,-0.0044
5.434,0.0026
5.435,-0.0058
5.436,-0.0001
5.437,-0.0031
5.438,-0.0022
5.439,-0.0045
5.44,-0.0053
5.441,-0.0007
5.442,-0.0051
5.443,0.0033
5.444,0.0022
5.445,0.0011
5.446,0.002
5.447,0.0011
5.448,0.0035
5.449,0.0013
5.45,-0.0033
5.451,-0.0027
5.452,0
5.453,0.0033
5.454,0.0075
5.455,0.0092
5.456,0.0088
5.457,0.0079
5.458,0.0037
5.459,0.0121
5.46,0.011
5.461,0.028
5.462,0.0209
5.463,0.0055
5.464,-0.0005
5.465,-0.006
5.466,-0.011
5.467,-0.0124
5.468,-0.0084
5.469,-0.0023
5.47,-0.0056
5.471,-0.0066
5.472,-0.0001
5.473,0.0022
5.474,0
5.475,0.0019
5.476,-0.0012
5.477,-0.0029
5.478,0.0046
5.479,0.0079
5.48,0.005
5.481,0.0096
5.482,0.0088
5.483,0.005
5.484,0.0055
5.485,0.0011
5.486,0.005
5.487,0.0053
5.488,0.0066
5.489,0.0077
5.49,0.0059
5.491,0.0041
5.492,0.0081
5.493,0.0053
5.494,0.002
5.495,0.0024
5.496,0.007
5.497,0.0052
5.498,0.0068
5.499,0.0114
5.5,0.007
5.501,0.0086
5.502,0.0053
5.503,-0.0016
5.504,0.0013
5.505,0.0022
5.506,0.003
5.507,0.0037
5.508,-0.0031
5.509,-0.0025
5.51,0.007
5.511,0.0165
5.512,0.02
5.513,0.0279
5.514,0.027
5.515,0.013
5.516,-0.0011
5.517,-0.0066
5.518,-0.0115
5.519,-0.0011
5.52,-0.0051
5.521,-0.0062
5.522,-0.0005
5.523,-0.0055
5.524,-0.0027
5.525,0.0013
5.526,0.0083
5.527,0.0074
5.528,0.005
5.529,-0.0003
5.53,0.0015
5.531,0.0059
5.532,0.0086
5.533,0.0031
5.534,0.0053
5.535,0.0059
5.536,0.0041
5.537,0.0079
5.538,0.0154
5.539,0.0075
5.54,0.0006
5.541,-0.0003
5.542,0.002
5.543,0.0013
5.544,0.0019
5.545,0.0037
5.546,0.0009
5.547,-0.0014
5.548,0.0017
5.549,0.0044
5.55,0.0033
5.551,0.0044
5.552,0.0037
5.553,0.0063
5.554,0.0052
5.555,0.0006
5.556,0.0011
5.557,0.003
5.558,0.0046
5.559,0.0042
5.56,0.0075
5.561,0.0088
5.562,0.0092
5.563,0.0149
5.564,0.0257
5.565,0.0092
5.566,-0.0018
5.567,-0.0038
5.568,-0.002
5.569,-0.0036
5.57,-0.0022
5.571,0.0019
5.572,0.0008
5.573,0.0019
5.574,-0.0011
5.575,0.0017
5.576,0.0009
5.577,0.0002
5.578,0.0008
5.579,-0.0011
5.58,0.0028
5.581,0.0024
5.582,0.002
5.583,0.0009
5.584,0.0044
5.585,0.0031
5.586,0.0042
5.587,0.0017
5.588,0.0028
5.589,-0.0005
5.59,0.0046
5.591,0.0028
5.592,0.0085
5.593,0.0031
5.594,0.005
5.595,0.0068
5.596,0.0085
5.597,0.0061
5.598,0.0103
5.599,0.0019
5.6,0.0053
5.601,0.0064
5.602,0.0035
5.603,0.0044
5.604,0.0037
5.605,-0.0016
5.606,0.0002
5.607,-0.0003
5.608,-0.002
5.609,0.0046
5.61,0.0006
5.611,0.0015
5.612,0.0055
5.613,0.0156
5.614,0.0251
5.615,0.0216
5.616,0.0068
5.617,-0.0073
5.618,-0.0055
5.619,0.0028
5.62,-0.0047
5.621,-0.0115
5.622,-0.0055
5.623,-0.0044
5.624,-0.0034
5.625,-0.0025
5.626,-0.0033
5.627,-0.0025
5.628,0.0008
5.629,0.0002
5.63,0.0075
5.631,0.0006
5.632,0.0108
5.633,0.0041
5.634,0.0052
5.635,0.0041
5.636,0.0011
5.637,0.0002
5.638,0.0009
5.639,-0.0029
5.64,-0.0011
5.641,-0.0042
5.642,-0.0003
5.643,-0.0016
5.644,0.0035
5.645,0.0002
5.646,-0.0003
5.647,0.0024
5.648,0.0037
5.649,-0.0033
5.65,-0.0003
5.651,0.0042
5.652,0.005
5.653,0.0057
5.654,0.0063
5.655,0.0081
5.656,0.0042
5.657,0.0066
5.658,0.007
5.659,0.0015
5.66,0.0022
5.661,0.0064
5.662,0.0083
5.663,0.0178
5.664,0.0165
5.665,0.0326
5.666,0.0304
5.667,0.0244
5.668,0.0152
5.669,0.007
5.67,-0.0005
5.671,-0.0045
5.672,-0.0011
5.673,0
5.674,-0.0049
5.675,-0.0113
5.676,-0.0038
5.677,-0.0009
5.678,-0.0093
5.679,-0.0036
5.68,-0.0066
5.681,-0.0038
5.682,-0.0045
5.683,-0.0023
5.684,-0.0005
5.685,-0.0011
5.686,-0.0005
5.687,-0.0018
5.688,-0.0022
5.689,0.0006
5.69,0.0031
5.691,0.0042
5.692,0.0035
5.693,0.0077
5.694,0.0096
5.695,0.0044
5.696,0.0039
5.697,0.0083
5.698,0.0055
5.699,0.0009
5.7,0.0041
5.701,0.0057
5.702,0.0103
5.703,0.0046
5.704,0.0024
5.705,0.0057
5.706,0.0039
5.707,0.0077
5.708,0.0053
5.709,0.0066
5.71,0.0028
5.711,0.0052
5.712,0.0035
5.713,0.0048
5.714,0.011
5.715,0.0174
5.716,0.0231
5.717,0.0284
5.718,0.0182
5.719,0.0107
5.72,0.0011
5.721,-0.0073
5.722,0.0006
5.723,-0.0106
5.724,-0.0062
5.725,-0.0049
5.726,-0.0038
5.727,-0.0049
5.728,-0.004
5.729,-0.0049
5.73,-0.0089
5.731,-0.0067
5.732,-0.0086
5.733,-0.0117
5.734,-0.0033
5.735,-0.0022
5.736,0.0011
5.737,0.002
5.738,-0.0007
5.739,0.005
5.74,0.0057
5.741,0.0063
5.742,0.0044
5.743,0.0061
5.744,0.0037
5.745,0.0059
5.746,0.0048
5.747,0.0059
5.748,0.0063
5.749,0.0083
5.75,0.0064
5.751,0.0099
5.752,0.0103
5.753,0.0075
5.754,0.0094
5.755,0.0068
5.756,0.0101
5.757,0.0105
5.758,0.005
5.759,0.0042
5.76,0.0088
5.761,0.0083
5.762,0.0031
5.763,0.005
5.764,0.0017
5.765,0.0086
5.766,0.0114
5.767,0.0171
5.768,0.0255
5.769,0.0266
5.77,0.0114
5.771,-0.004
5.772,-0.01
5.773,-0.0119
5.774,-0.0102
5.775,-0.0088
5.776,-0.01
5.777,-0.0089
5.778,-0.01
5.779,-0.0071
5.78,-0.0007
5.781,0.005
5.782,0.0028
5.783,0.0046
5.784,0.0015
5.785,0.0099
5.786,0.0039
5.787,-0.0018
5.788,-0.0027
5.789,0
5.79,-0.0023
5.791,0.0015
5.792,0.0033
5.793,0.0002
5.794,0.0008
5.795,0.002
5.796,0.0017
5.797,-0.0011
5.798,0.0015
5.799,0.0041
5.8,0.0086
5.801,0.0053
5.802,0.0097
5.803,0.0024
5.804,0.0033
5.805,-0.0012
5.806,0.0011
5.807,0.0004
5.808,0.0022
5.809,0.0004
5.81,-0.0001
5.811,-0.0025
5.812,-0.0012
5.813,0.0042
5.814,0.0028
5.815,0.005
5.816,0.0139
5.817,0.02
5.818,0.0279
5.819,0.0249
5.82,0.011
5.821,0.005
5.822,-0.0078
5.823,-0.0062
5.824,-0.0077
5.825,-0.0144
5.826,-0.0205
5.827,-0.0194
5.828,-0.0203
5.829,-0.0157
5.83,-0.0033
5.831,-0.0014
5.832,-0.0031
5.833,-0.0016
5.834,0.0052
5.835,0.0063
5.836,0.0052
5.837,0.0101
5.838,0.0092
5.839,0.0116
5.84,0.0138
5.841,0.0092
5.842,0.0074
5.843,0.0068
5.844,0.0064
5.845,0.0033
5.846,0.0096
5.847,0.005
5.848,0.0057
5.849,0.0019
5.85,0.0052
5.851,0.007
5.852,0.0086
5.853,0.009
5.854,0.0112
5.855,0.0123
5.856,0.0149
5.857,0.0108
5.858,0.0112
5.859,0.0061
5.86,0.0066
5.861,-0.0029
5.862,-0.0016
5.863,0.0019
5.864,0.0052
5.865,0.0064
5.866,-0.0027
5.867,0.0108
5.868,0.0273
5.869,0.0251
5.87,0.0312
5.871,0.022
5.872,0.007
5.873,-0.0031
5.874,-0.0086
5.875,-0.0069
5.876,-0.0084
5.877,-0.0071
5.878,-0.0106
5.879,-0.0049
5.88,-0.0058
5.881,-0.0031
5.882,-0.0023
5.883,0.003
5.884,-0.0016
5.885,-0.0034
5.886,-0.0029
5.887,0.0017
5.888,0.0022
5.889,-0.0005
5.89,-0.0009
5.891,0.0061
5.892,0.0052
5.893,-0.0051
5.894,-0.0038
5.895,-0.0027
5.896,0.003
5.897,0
5.898,0.0028
5.899,0.0035
5.9,-0.0003
5.901,0.0059
5.902,0.0066
5.903,0.0044
5.904,-0.0001
5.905,0.0017
5.906,0.009
5.907,0.0081
5.908,0.0017
5.909,0.0024
5.91,0.0017
5.911,0.005
5.912,0.0055
5.913,-0.0029
5.914,0.0031
5.915,-0.0093
5.916,-0.0126
5.917,-0.0175
5.918,-0.0219
5.919,-0.0315
5.92,-0.0375
5.921,-0.0386
5.922,-0.0435
5.923,-0.0408
5.924,-0.0333
5.925,-0.0201
5.926,-0.0073
5.927,0.0077
5.928,0.0138
5.929,0.0376
5.93,0.0601
5.931,0.0927
5.932,0.1143
5.933,0.1339
5.934,0.1516
5.935,0.1678
5.936,0.141
5.937,0.1659
5.938,0.2016
5.939,0.2254
5.94,0.169
5.941,0.1767
5.942,0.1698
5.943,0.176
5.944,0.2163
5.945,0.2112
5.946,0.2159
5.947,0.1769
5.948,0.0982
5.949,0.0193
5.95,-0.0115
5.951,-0.0769
5.952,-0.136
5.953,-0.2516
5.954,-0.3343
5.955,-0.3794
5.956,-0.3929
5.957,-0.4054
5.958,-0.4165
5.959,-0.4063
5.96,-0.3409
5.961,-0.3493
5.962,-0.3263
5.963,-0.2913
5.964,-0.2724
5.965,-0.2437
5.966,-0.2071
5.967,-0.1906
5.968,-0.1668
5.969,-0.1278
5.97,-0.1016
5.971,-0.0683
5.972,-0.0293
5.973,-0.0031
5.974,0.0207
5.975,0.0683
5.976,0.1
5.977,0.1288
5.978,0.1443
5.979,0.1491
5.98,0.1619
5.981,0.1894
5.982,0.2071
5.983,0.2102
5.984,0.2132
5.985,0.2157
5.986,0.2086
5.987,0.202
5.988,0.1919
5.989,0.1791
5.99,0.1575
5.991,0.1427
5.992,0.1293
5.993,0.1125
5.994,0.1059
5.995,0.0918
5.996,0.079
5.997,0.0674
5.998,0.0539
5.999,0.041
6,0.0328
6.001,0.0284
6.002,0.0189
6.003,0.0105
6.004,0.0026
6.005,0.0035
6.006,0.0008
6.007,0.0064
6.008,0.0011
6.009,-0.0022
6.01,-0.0027
6.011,-0.0066
6.012,-0.0033
6.013,-0.0093
6.014,-0.0133
6.015,-0.0111
6.016,-0.013
6.017,-0.0135
6.018,-0.0111
6.019,-0.0117
6.02,-0.015
6.021,-0.0128
6.022,-0.0108
6.023,-0.0119
6.024,-0.0108
6.025,-0.0141
6.026,-0.0172
6.027,-0.0152
6.028,-0.0117
6.029,-0.0047
6.03,-0.0056
6.031,-0.0084
6.032,-0.0027
6.033,-0.0034
6.034,-0.0016
6.035,-0.0034
6.036,0.005
6.037,0.0039
6.038,0.0006
6.039,-0.0146
6.04,-0.0212
6.041,-0.0192
6.042,-0.0247
6.043,-0.0197
6.044,-0.0183
6.045,-0.0142
6.046,-0.0153
6.047,-0.0186
6.048,-0.0196
6.049,-0.0131
6.05,-0.0139
6.051,-0.0146
6.052,-0.0084
6.053,-0.006
6.054,-0.0082
6.055,-0.0077
6.056,-0.0058
6.057,-0.0007
6.058,-0.0025
6.059,-0.0007
6.06,-0.0012
6.061,-0.0025
6.062,0.0017
6.063,0.0055
6.064,0.0068
6.065,0.0017
6.066,0.0022
6.067,0.0017
6.068,0
6.069,0.0035
6.07,0.0059
6.071,0.0129
6.072,0.0178
6.073,0.0094
6.074,0.0264
6.075,0.024
6.076,0.0174
6.077,-0.0007
6.078,-0.0078
6.079,-0.01
6.08,-0.0121
6.081,-0.0102
6.082,-0.0086
6.083,-0.0042
6.084,-0.0055
6.085,-0.0066
6.086,-0.0033
6.087,-0.0023
6.088,0.0061
6.089,0.005
6.09,0.002
6.091,-0.0025
6.092,-0.0049
6.093,0.0035
6.094,0.0002
6.095,0.0031
6.096,-0.0053
6.097,0.0026
6.098,0.0055
6.099,0.0064
6.1,0.0072
6.101,0.0019
6.102,0.0052
6.103,0.007
6.104,0.0053
6.105,0.0057
6.106,0.0026
6.107,0.0053
6.108,0.0064
6.109,0.0009
6.11,0.0063
6.111,0.003
6.112,-0.0014
6.113,0.0048
6.114,0.0072
6.115,0.0079
6.116,0.0141
6.117,0.0085
6.118,0.0107
6.119,0.0088
6.12,0.0086
6.121,0.0055
6.122,0.0094
6.123,0.0169
6.124,0.018
6.125,0.0312
6.126,0.0293
6.127,0.011
6.128,-0.0011
6.129,-0.0033
6.13,-0.0012
6.131,-0.0104
6.132,-0.0088
6.133,-0.0073
6.134,-0.006
6.135,-0.0095
6.136,-0.0084
6.137,0.0008
6.138,-0.0027
6.139,-0.0016
6.14,-0.0025
6.141,-0.0016
6.142,-0.0009
6.143,-0.0001
6.144,0.0004
6.145,0.0048
6.146,0.0009
6.147,0.0013
6.148,0.0035
6.149,0.0063
6.15,0.0052
6.151,0.0019
6.152,0.0039
6.153,0.002
6.154,0.0046
6.155,0.0006
6.156,0.009
6.157,0.0055
6.158,0.0022
6.159,0.0092
6.16,0.0064
6.161,0.0041
6.162,0.0019
6.163,0
6.164,0.0044
6.165,0.0028
6.166,0.0031
6.167,0.0044
6.168,0.0072
6.169,0.0129
6.17,0.0121
6.171,0.005
6.172,0.0028
6.173,0.013
6.174,0.0205
6.175,0.0246
6.176,0.033
6.177,0.0319
6.178,0.0167
6.179,0.0013
6.18,-0.0007
6.181,-0.0025
6.182,-0.0075
6.183,-0.0089
6.184,-0.0185
6.185,-0.0124
6.186,-0.0067
6.187,0.0024
6.188,0.0013
6.189,0.0002
6.19,-0.0007
6.191,0.002
6.192,0.0044
6.193,0.0129
6.194,0.005
6.195,0.0059
6.196,0.0086
6.197,0.011
6.198,0.0072
6.199,0.0039
6.2,0.0033
6.201,0.0061
6.202,0.0048
6.203,0.007
6.204,0.0081
6.205,0.0055
6.206,0.0022
6.207,0.005
6.208,0.0015
6.209,-0.0007
6.21,-0.0069
6.211,-0.0005
6.212,0.0002
6.213,-0.0036
6.214,-0.0042
6.215,-0.0011
6.216,0.0017
6.217,-0.0016
6.218,-0.0012
6.219,-0.004
6.22,-0.0066
6.221,-0.0025
6.222,-0.0031
6.223,-0.0064
6.224,0.0006
6.225,0.0035
6.226,0.0081
6.227,0.0156
6.228,0.0147
6.229,0.0156
6.23,0.0132
6.231,0.0125
6.232,0.02
6.233,0.013
6.234,-0.0009
6.235,-0.011
6.236,-0.0128
6.237,-0.0144
6.238,-0.0188
6.239,-0.0229
6.24,-0.0218
6.241,-0.0161
6.242,-0.017
6.243,-0.0142
6.244,-0.0135
6.245,-0.0128
6.246,-0.0025
6.247,0.0019
6.248,-0.0022
6.249,0.0013
6.25,0.0024
6.251,0.0015
6.252,0.0042
6.253,0.005
6.254,0.0042
6.255,0.0048
6.256,0.0053
6.257,0.0015
6.258,-0.0009
6.259,0.0042
6.26,0.0088
6.261,0.0057
6.262,0.0074
6.263,0.0149
6.264,0.0092
6.265,0.0101
6.266,0.0129
6.267,0.0072
6.268,0.0079
6.269,0.0112
6.27,0.0118
6.271,0.0033
6.272,0.0022
6.273,0.0035
6.274,0.0205
6.275,0.0182
6.276,0.0116
6.277,0.0055
6.278,0.011
6.279,0.0127
6.28,0.0171
6.281,0.0238
6.282,0.0374
6.283,0.0209
6.284,0.0055
6.285,-0.0045
6.286,-0.0027
6.287,-0.0044
6.288,-0.0058
6.289,-0.0071
6.29,-0.0011
6.291,-0.0044
6.292,-0.0034
6.293,0.003
6.294,0.0022
6.295,-0.0031
6.296,-0.0012
6.297,-0.0018
6.298,0.0009
6.299,0.0055
6.3,0.0024
6.301,0.0097
6.302,0.0088
6.303,0.0079
6.304,0.0086
6.305,0.0064
6.306,0.007
6.307,0.0052
6.308,0.0046
6.309,0.0033
6.31,0.002
6.311,0.0009
6.312,-0.0009
6.313,0.0031
6.314,0.0044
6.315,0.0013
6.316,0.0068
6.317,0.0046
6.318,0.0064
6.319,0.0059
6.32,0.0008
6.321,0.007
6.322,0.0013
6.323,-0.0025
6.324,0.002
6.325,0.0002
6.326,0.0072
6.327,0.0156
6.328,0.0235
6.329,0.0226
6.33,0.031
6.331,0.0299
6.332,0.0187
6.333,0.0022
6.334,-0.0044
6.335,-0.0104
6.336,-0.0086
6.337,-0.0135
6.338,-0.015
6.339,-0.0082
6.34,-0.0071
6.341,-0.0104
6.342,-0.0055
6.343,-0.0009
6.344,-0.0084
6.345,-0.0014
6.346,0.0013
6.347,0.002
6.348,-0.0001
6.349,0.0031
6.35,0.0037
6.351,0.0053
6.352,0.0066
6.353,0.0024
6.354,0.0019
6.355,0.0015
6.356,0.0057
6.357,0.0074
6.358,0.0077
6.359,0.009
6.36,0.0028
6.361,0.0074
6.362,0.0066
6.363,0.0028
6.364,0.0033
6.365,0.0064
6.366,0.0002
6.367,0.0026
6.368,0.0079
6.369,0.0061
6.37,0.003
6.371,-0.0022
6.372,0.0011
6.373,0.0055
6.374,0.0083
6.375,0.0101
6.376,0.0055
6.377,0.015
6.378,0.0218
6.379,0.0229
6.38,0.0286
6.381,0.0134
6.382,0.0068
6.383,0.0048
6.384,-0.0007
6.385,-0.0056
6.386,-0.0131
6.387,-0.0119
6.388,-0.0108
6.389,-0.0075
6.39,-0.0104
6.391,-0.0058
6.392,-0.0066
6.393,-0.0044
6.394,-0.0049
6.395,-0.0031
6.396,-0.0082
6.397,-0.002
6.398,0.0004
6.399,0.0011
6.4,0.0017
6.401,0.0048
6.402,0.0031
6.403,0.0044
6.404,0.0048
6.405,0.0059
6.406,0.0024
6.407,0.0075
6.408,0.007
6.409,0.0039
6.41,-0.0012
6.411,0.0033
6.412,0.0077
6.413,0.0039
6.414,-0.0016
6.415,0.0022
6.416,0.0041
6.417,0.0035
6.418,0.0041
6.419,0.0044
6.42,0.0041
6.421,0.0103
6.422,0.0094
6.423,0.007
6.424,0.0077
6.425,0.0044
6.426,0.0028
6.427,0.0046
6.428,0.013
6.429,0.0266
6.43,0.0284
6.431,0.0202
6.432,0.0037
6.433,-0.0073
6.434,-0.0053
6.435,-0.0034
6.436,-0.0051
6.437,0.0024
6.438,0.0064
6.439,0.003
6.44,-0.0003
6.441,0.0066
6.442,0.002
6.443,0.0028
6.444,0.0035
6.445,-0.0027
6.446,0.003
6.447,0.0037
6.448,-0.0066
6.449,-0.0051
6.45,-0.0038
6.451,-0.0073
6.452,-0.0062
6.453,-0.0053
6.454,-0.0007
6.455,-0.0047
6.456,-0.0086
6.457,0.0017
6.458,-0.0058
6.459,-0.0018
6.46,0.0017
6.461,0.0028
6.462,0.0037
6.463,-0.0009
6.464,-0.0016
6.465,0.0022
6.466,0.0004
6.467,0.0061
6.468,0.0083
6.469,0.0077
6.47,0.0059
6.471,0.0053
6.472,0.0057
6.473,0.0035
6.474,-0.0011
6.475,0.0046
6.476,-0.0038
6.477,-0.0038
6.478,0.0041
6.479,0.0172
6.48,0.0227
6.481,0.031
6.482,0.0324
6.483,0.0147
6.484,0.0075
6.485,0.0009
6.486,-0.0011
6.487,-0.0029
6.488,-0.0045
6.489,-0.0031
6.49,0.0009
6.491,-0.0025
6.492,-0.0036
6.493,-0.0045
6.494,-0.0018
6.495,-0.0025
6.496,-0.0003
6.497,0.003
6.498,0.0024
6.499,-0.0014
6.5,0.0031
6.501,0.0026
6.502,0.0053
6.503,0.002
6.504,0.0024
6.505,0.0004
6.506,-0.0014
6.507,0.0033
6.508,0.0028
6.509,0.0033
6.51,-0.0012
6.511,0.0031
6.512,0.0083
6.513,0.0088
6.514,0.0044
6.515,0.005
6.516,0.0083
6.517,0.0052
6.518,0.0055
6.519,0.0066
6.52,0.0092
6.521,0.0138
6.522,0.0035
6.523,0.005
6.524,0.0037
6.525,0.0048
6.526,-0.0031
6.527,-0.0001
6.528,0.0013
6.529,0.0022
6.53,0.003
6.531,0.0145
6.532,0.0194
6.533,0.018
6.534,0.0167
6.535,0.0227
6.536,0.026
6.537,0.0108
6.538,-0.0045
6.539,-0.0106
6.54,-0.0124
6.541,-0.0075
6.542,-0.0089
6.543,-0.0157
6.544,-0.0073
6.545,-0.004
6.546,-0.0049
6.547,-0.0077
6.548,-0.0053
6.549,-0.0014
6.55,0.0019
6.551,0.0037
6.552,0.002
6.553,0.0024
6.554,0.0075
6.555,0.0081
6.556,0.0099
6.557,0.0116
6.558,0.0083
6.559,0.0079
6.56,0.009
6.561,0.0033
6.562,0.0057
6.563,0.0064
6.564,-0.0011
6.565,0.0019
6.566,0.0009
6.567,0.0066
6.568,0.0013
6.569,0.0046
6.57,-0.0023
6.571,0.0004
6.572,0.0011
6.573,-0.0011
6.574,0.0008
6.575,0.0026
6.576,0.0031
6.577,-0.0034
6.578,-0.0007
6.579,-0.0001
6.58,0.0039
6.581,0.0154
6.582,0.0237
6.583,0.0341
6.584,0.0381
6.585,0.027
6.586,0.0134
6.587,0.0006
6.588,-0.0044
6.589,-0.0119
6.59,-0.0159
6.591,-0.017
6.592,-0.0137
6.593,-0.0108
6.594,-0.008
6.595,-0.0073
6.596,-0.0034
6.597,-0.0016
6.598,0.0041
6.599,0.0048
6.6,0.0002
6.601,-0.0029
6.602,-0.0034
6.603,-0.0058
6.604,-0.0007
6.605,-0.0012
6.606,-0.0056
6.607,-0.004
6.608,-0.0027
6.609,-0.004
6.61,-0.0029
6.611,0.0013
6.612,-0.0014
6.613,-0.0027
6.614,-0.0031
6.615,0.0031
6.616,0.0041
6.617,0.0064
6.618,0.0086
6.619,0.0105
6.62,0.0099
6.621,0.0127
6.622,0.0123
6.623,0.0072
6.624,0.0077
6.625,0.0059
6.626,0.0053
6.627,0.0066
6.628,0.0044
6.629,0.0024
6.63,0.0064
6.631,0.009
6.632,0.0145
6.633,0.0246
6.634,0.0233
6.635,0.0244
6.636,0.0277
6.637,0.0326
6.638,0.0187
6.639,0.0006
6.64,-0.0018
6.641,-0.0084
6.642,-0.0104
6.643,-0.0086
6.644,-0.0036
6.645,-0.008
6.646,-0.0012
6.647,-0.0073
6.648,-0.0084
6.649,-0.0034
6.65,-0.0025
6.651,-0.0033
6.652,-0.004
6.653,-0.0022
6.654,0.0009
6.655,-0.0007
6.656,0.0026
6.657,0.0048
6.658,0.0059
6.659,0.0002
6.66,0.0026
6.661,0.0019
6.662,0.0052
6.663,0.0008
6.664,0.0013
6.665,0.0059
6.666,0.0041
6.667,0.0068
6.668,0.0044
6.669,0.0048
6.67,0.0009
6.671,0.0022
6.672,0.0035
6.673,0.0046
6.674,0.0004
6.675,0.0009
6.676,0.0075
6.677,0.0066
6.678,0.0042
6.679,0.0081
6.68,0.0075
6.681,0.0006
6.682,0.005
6.683,0.0134
6.684,0.0145
6.685,0.0134
6.686,0.0286
6.687,0.022
6.688,0.0079
6.689,0.0024
6.69,-0.0025
6.691,-0.0069
6.692,-0.011
6.693,-0.0121
6.694,-0.0088
6.695,-0.0078
6.696,-0.0106
6.697,-0.013
6.698,-0.0137
6.699,-0.0183
6.7,-0.0278
6.701,-0.0373
6.702,-0.0457
6.703,-0.0536
6.704,-0.0565
6.705,-0.0593
6.706,-0.0536
6.707,-0.0421
6.708,-0.0238
6.709,-0.0069
6.71,0.013
6.711,0.0156
6.712,0.0376
6.713,0.0583
6.714,0.0877
6.715,0.1073
6.716,0.1396
6.717,0.1612
6.718,0.1573
6.719,0.1467
6.72,0.1498
6.721,0.1824
6.722,0.2126
6.723,0.2088
6.724,0.1551
6.725,0.1628
6.726,0.1698
6.727,0.1886
6.728,0.2058
6.729,0.211
6.73,0.2062
6.731,0.1412
6.732,0.0511
6.733,0.0231
6.734,-0.0192
6.735,-0.073
6.736,-0.1642
6.737,-0.3012
6.738,-0.3193
6.739,-0.3689
6.74,-0.3839
6.741,-0.4248
6.742,-0.4123
6.743,-0.3786
6.744,-0.3274
6.745,-0.3367
6.746,-0.3114
6.747,-0.2884
6.748,-0.2675
6.749,-0.2232
6.75,-0.1944
6.751,-0.1789
6.752,-0.1455
6.753,-0.1327
6.754,-0.121
6.755,-0.0888
6.756,-0.0498
6.757,-0.0131
6.758,0.0394
6.759,0.0744
6.76,0.1061
6.761,0.1348
6.762,0.1399
6.763,0.1542
6.764,0.1758
6.765,0.1954
6.766,0.2203
6.767,0.2234
6.768,0.2205
6.769,0.2284
6.77,0.2115
6.771,0.1961
6.772,0.1861
6.773,0.1696
6.774,0.1452
6.775,0.1357
6.776,0.1209
6.777,0.113
6.778,0.1009
6.779,0.0855
6.78,0.0714
6.781,0.055
6.782,0.044
6.783,0.0387
6.784,0.0286
6.785,0.0304
6.786,0.0387
6.787,0.0401
6.788,0.0306
6.789,0.0121
6.79,-0.0012
6.791,-0.0084
6.792,-0.0106
6.793,-0.0126
6.794,-0.0144
6.795,-0.0194
6.796,-0.0179
6.797,-0.0166
6.798,-0.0155
6.799,-0.0144
6.8,-0.0174
6.801,-0.0164
6.802,-0.0141
6.803,-0.0133
6.804,-0.0139
6.805,-0.0144
6.806,-0.0106
6.807,-0.0093
6.808,-0.0163
6.809,-0.0212
6.81,-0.0185
6.811,-0.0177
6.812,-0.017
6.813,-0.0137
6.814,-0.0106
6.815,-0.01
6.816,-0.0113
6.817,-0.0144
6.818,-0.0082
6.819,-0.011
6.82,-0.0117
6.821,-0.0124
6.822,-0.0062
6.823,-0.0119
6.824,-0.0126
6.825,-0.0108
6.826,-0.0051
6.827,-0.0029
6.828,-0.0011
6.829,-0.0029
6.83,-0.0023
6.831,-0.0056
6.832,-0.0005
6.833,-0.0011
6.834,-0.0031
6.835,0
6.836,0.0085
6.837,0.0169
6.838,0.0202
6.839,0.0152
6.84,0.0088
6.841,-0.0036
6.842,-0.0091
6.843,-0.0075
6.844,-0.0089
6.845,-0.0077
6.846,-0.0066
6.847,-0.0099
6.848,-0.0069
6.849,-0.0023
6.85,-0.0047
6.851,-0.004
6.852,-0.0007
6.853,0.0011
6.854,0.0017
6.855,-0.0049
6.856,-0.0003
6.857,-0.0011
6.858,0.0059
6.859,0.005
6.86,-0.0007
6.861,-0.0014
6.862,-0.002
6.863,0.0024
6.864,-0.0014
6.865,-0.0047
6.866,-0.0005
6.867,0.0046
6.868,0.0079
6.869,0.0061
6.87,0.0077
6.871,0.0081
6.872,0.0068
6.873,0.0013
6.874,0.0052
6.875,0.0057
6.876,0
6.877,-0.0022
6.878,0.0011
6.879,0.0017
6.88,0.0033
6.881,0.0009
6.882,0.0052
6.883,0.009
6.884,0.0123
6.885,0.013
6.886,0.0108
6.887,0.0171
6.888,0.0107
6.889,0.0163
6.89,0.0233
6.891,0.026
6.892,0.0136
6.893,0.0044
6.894,-0.0071
6.895,-0.0086
6.896,-0.0099
6.897,-0.0038
6.898,-0.0027
6.899,-0.0056
6.9,-0.0066
6.901,-0.0073
6.902,-0.002
6.903,0.0026
6.904,-0.0005
6.905,-0.0056
6.906,-0.0038
6.907,-0.0044
6.908,-0.0095
6.909,-0.0062
6.91,-0.0044
6.911,-0.0027
6.912,0.0019
6.913,0.0037
6.914,0.0064
6.915,-0.0001
6.916,0.0026
6.917,0.0019
6.918,0.0103
6.919,0.007
6.92,0.0099
6.921,0.0108
6.922,0.0116
6.923,0.0123
6.924,0.0105
6.925,0.0048
6.926,0.0086
6.927,0.0041
6.928,0.0085
6.929,0.0046
6.93,0.007
6.931,0.0066
6.932,0.007
6.933,0.0074
6.934,0.007
6.935,0.0077
6.936,0.0042
6.937,0.0074
6.938,0.0136
6.939,0.0238
6.94,0.0171
6.941,0.0356
6.942,0.0222
6.943,0.015
6.944,0.0041
6.945,-0.006
6.946,-0.0042
6.947,-0.0091
6.948,-0.0106
6.949,-0.0093
6.95,-0.0058
6.951,-0.0047
6.952,-0.0038
6.953,0.0026
6.954,0.005
6.955,0.0011
6.956,-0.0007
6.957,0.0024
6.958,0.0008
6.959,0.0053
6.96,0.0059
6.961,0.0031
6.962,0.0107
6.963,0.0028
6.964,0.0077
6.965,0.0105
6.966,0.0081
6.967,0.0119
6.968,0.0138
6.969,0.0119
6.97,0.0103
6.971,0.009
6.972,0.0086
6.973,0.0024
6.974,0.0033
6.975,0.0041
6.976,0.0019
6.977,0.0013
6.978,0.0019
6.979,0.0035
6.98,0.0048
6.981,0.0061
6.982,0.0072
6.983,0.0053
6.984,0.0086
6.985,0.0066
6.986,0.0055
6.987,0.0042
6.988,0.0009
6.989,0.0072
6.99,0.0193
6.991,0.0275
6.992,0.0171
6.993,0.002
6.994,-0.008
6.995,-0.0025
6.996,-0.0075
6.997,-0.0089
6.998,-0.0102
6.999,-0.0113
7,-0.0102
7.001,-0.0111
7.002,-0.0102
7.003,-0.011
7.004,-0.0117
7.005,-0.0122
7.006,-0.0117
7.007,-0.0122
7.008,-0.011
7.009,-0.0122
7.01,-0.0077
7.011,-0.0071
7.012,0.0013
7.013,-0.0047
7.014,-0.0014
7.015,-0.0064
7.016,-0.0091
7.017,-0.0131
7.018,-0.0093
7.019,-0.0111
7.02,-0.0042
7.021,-0.0033
7.022,-0.0025
7.023,-0.0018
7.024,0.0028
7.025,-0.0016
7.026,0
7.027,0.0004
7.028,0.0017
7.029,0.0037
7.03,0.0055
7.031,0.0008
7.032,0.0039
7.033,0.0055
7.034,0.0059
7.035,0.0046
7.036,0.0066
7.037,0.0092
7.038,0.0057
7.039,0.0046
7.04,0.0092
7.041,0.0167
7.042,0.0299
7.043,0.0317
7.044,0.0134
7.045,0.0063
7.046,-0.0003
7.047,0.0017
7.048,-0.0001
7.049,0.0048
7.05,0.0004
7.051,-0.0009
7.052,0.0052
7.053,0.0041
7.054,0.0031
7.055,-0.0033
7.056,-0.0009
7.057,0.0013
7.058,-0.0062
7.059,0.005
7.06,0.0035
7.061,0.0048
7.062,0.0083
7.063,0.0072
7.064,0.0081
7.065,0.0017
7.066,0.0057
7.067,0.005
7.068,0.0068
7.069,0.005
7.07,0.0077
7.071,0.0074
7.072,0.0096
7.073,0.0068
7.074,0.0079
7.075,0.0061
7.076,0.0063
7.077,0.0105
7.078,0.0099
7.079,0.0072
7.08,0.0096
7.081,0.0099
7.082,0.0061
7.083,0.0057
7.084,0.0035
7.085,-0.0003
7.086,0.0052
7.087,0.0074
7.088,0.0055
7.089,0.0013
7.09,-0.0018
7.091,0.002
7.092,0.0075
7.093,0.0191
7.094,0.0174
7.095,0.007
7.096,-0.0025
7.097,-0.006
7.098,-0.0027
7.099,-0.0018
7.1,0.0009
7.101,-0.0031
7.102,-0.0009
7.103,-0.0027
7.104,-0.0045
7.105,0.0017
7.106,0.0041
7.107,0.0019
7.108,0
7.109,-0.0005
7.11,0.0022
7.111,0.0009
7.112,0.0006
7.113,0.0044
7.114,-0.0011
7.115,-0.0003
7.116,0.003
7.117,0.0048
7.118,0.0086
7.119,0.0063
7.12,0.0066
7.121,0.0039
7.122,0.0042
7.123,0.0017
7.124,0.005
7.125,0.0028
7.126,0.0017
7.127,0.0028
7.128,0.0061
7.129,0.005
7.13,0.0053
7.131,0.0006
7.132,-0.0012
7.133,-0.0018
7.134,0.0037
7.135,-0.0001
7.136,0.0004
7.137,-0.0014
7.138,-0.002
7.139,-0.0016
7.14,0.0013
7.141,0.0044
7.142,0.0107
7.143,0.0171
7.144,0.0262
7.145,0.0297
7.146,0.0194
7.147,0.0044
7.148,-0.0056
7.149,-0.0038
7.15,-0.0088
7.151,-0.0102
7.152,-0.0062
7.153,-0.0001
7.154,0.0031
7.155,0.0022
7.156,-0.0062
7.157,-0.0029
7.158,-0.002
7.159,0.0008
7.16,-0.0033
7.161,-0.0025
7.162,0.0008
7.163,0.0039
7.164,0
7.165,-0.0012
7.166,0.0039
7.167,0.0033
7.168,0.0002
7.169,-0.0014
7.17,0.0009
7.171,-0.0012
7.172,0.0033
7.173,0.0052
7.174,0.009
7.175,0.0077
7.176,0.0046
7.177,0.0108
7.178,0.0118
7.179,0.0094
7.18,0.0101
7.181,0.0068
7.182,0.0063
7.183,0.0057
7.184,0.0011
7.185,-0.0007
7.186,0.002
7.187,0.0033
7.188,0.002
7.189,0.0024
7.19,0.005
7.191,0.0042
7.192,-0.0012
7.193,0.0103
7.194,0.0119
7.195,0.0224
7.196,0.0237
7.197,0.0152
7.198,0.0004
7.199,-0.0056
7.2,-0.0038
7.201,-0.0022
7.202,-0.0066
7.203,-0.0025
7.204,-0.0014
7.205,-0.0025
7.206,-0.0016
7.207,-0.0062
7.208,-0.0005
7.209,-0.0027
7.21,-0.0009
7.211,0.0048
7.212,0.0055
7.213,0.0074
7.214,0.0068
7.215,0.0107
7.216,0.0061
7.217,0.0105
7.218,0.0066
7.219,0.0053
7.22,0.0066
7.221,0.0004
7.222,0.005
7.223,0.0042
7.224,0.0064
7.225,0.0019
7.226,0
7.227,0.0028
7.228,0.0041
7.229,0.0009
7.23,0.0048
7.231,0.0024
7.232,0.002
7.233,-0.0007
7.234,0.0019
7.235,0.0044
7.236,-0.0001
7.237,0.0004
7.238,-0.004
7.239,0.0011
7.24,0.0017
7.241,-0.0014
7.242,-0.0031
7.243,-0.0003
7.244,0.0063
7.245,0.0183
7.246,0.02
7.247,0.0275
7.248,0.0235
7.249,0.015
7.25,-0.002
7.251,-0.0091
7.252,-0.0157
7.253,-0.0137
7.254,-0.0119
7.255,-0.0102
7.256,-0.0088
7.257,-0.002
7.258,0.0064
7.259,0.0031
7.26,-0.0018
7.261,0.0028
7.262,-0.0012
7.263,0.0026
7.264,-0.0007
7.265,0.0024
7.266,-0.0003
7.267,0.002
7.268,0.0072
7.269,0.0039
7.27,0.007
7.271,0.0008
7.272,0.0015
7.273,0.0022
7.274,0.0055
7.275,0.0024
7.276,0.0052
7.277,0.0019
7.278,0.0061
7.279,0.0044
7.28,0.0048
7.281,0.0017
7.282,0.0013
7.283,0.0017
7.284,0.0042
7.285,0.0044
7.286,0.0063
7.287,0.005
7.288,0.0035
7.289,0.0037
7.29,0.005
7.291,0.0052
7.292,0.0072
7.293,0.0057
7.294,0.0039
7.295,0.0085
7.296,0.0187
7.297,0.0262
7.298,0.0302
7.299,0.0118
7.3,-0.0016
7.301,-0.004
7.302,-0.0062
7.303,-0.0042
7.304,-0.006
7.305,-0.0077
7.306,-0.0091
7.307,-0.0078
7.308,-0.0044
7.309,-0.0011
7.31,-0.002
7.311,0.0064
7.312,0.0031
7.313,0.0061
7.314,0.0033
7.315,0.0026
7.316,0.0019
7.317,0.0024
7.318,0.003
7.319,0.0068
7.32,0.0072
7.321,0.003
7.322,0.0024
7.323,0.0037
7.324,-0.0014
7.325,0.0004
7.326,-0.0014
7.327,-0.0042
7.328,0.0013
7.329,0.002
7.33,0.0039
7.331,0.002
7.332,0.0059
7.333,0.0055
7.334,0.0052
7.335,0.0072
7.336,0.0114
7.337,0.0052
7.338,0.0044
7.339,-0.0009
7.34,0.0066
7.341,0.0116
7.342,0.007
7.343,0.003
7.344,-0.0023
7.345,-0.0124
7.346,-0.0001
7.347,0.0081
7.348,0.0125
7.349,0.0275
7.35,0.0134
7.351,0.0079
7.352,-0.0071
7.353,-0.0091
7.354,-0.0146
7.355,-0.0163
7.356,-0.0148
7.357,-0.0135
7.358,-0.01
7.359,-0.0133
7.36,-0.0104
7.361,-0.0113
7.362,-0.0089
7.363,-0.0067
7.364,-0.0073
7.365,-0.0104
7.366,-0.0042
7.367,0.005
7.368,0.0039
7.369,0.0028
7.37,0.0097
7.371,0.007
7.372,0.0094
7.373,0.0072
7.374,0.009
7.375,0.0147
7.376,0.0139
7.377,0.0121
7.378,0.0127
7.379,0.0121
7.38,0.0088
7.381,0.0046
7.382,0.0074
7.383,0.0061
7.384,0.0039
7.385,-0.0007
7.386,0.0011
7.387,0.0017
7.388,0.0092
7.389,0.0059
7.39,0.0108
7.391,0.0063
7.392,0.007
7.393,0.0077
7.394,0.0083
7.395,0.0094
7.396,0.0099
7.397,0.0183
7.398,0.0244
7.399,0.0255
7.4,0.0284
7.401,0.022
7.402,0.0096
7.403,-0.0033
7.404,-0.0049
7.405,-0.0093
7.406,-0.0053
7.407,-0.0088
7.408,-0.0055
7.409,0.0015
7.41,-0.0012
7.411,-0.002
7.412,-0.0027
7.413,-0.0022
7.414,-0.004
7.415,-0.0012
7.416,-0.0025
7.417,-0.0022
7.418,-0.0001
7.419,-0.0051
7.42,0.0011
7.421,0.0035
7.422,-0.0003
7.423,-0.0036
7.424,0.002
7.425,0.0042
7.426,-0.0033
7.427,0.0037
7.428,0.0046
7.429,0.0053
7.43,0.0061
7.431,0.0055
7.432,0.0061
7.433,0.0033
7.434,0.0057
7.435,0.0088
7.436,0.0077
7.437,0.0042
7.438,0.002
7.439,0.0041
7.44,0.0044
7.441,-0.0003
7.442,0.0015
7.443,-0.0001
7.444,0.0031
7.445,0
7.446,0.0006
7.447,0.0044
7.448,0.0119
7.449,0.0152
7.45,0.0244
7.451,0.0183
7.452,0.0081
7.453,-0.0097
7.454,-0.0218
7.455,-0.0417
7.456,-0.0551
7.457,-0.0622
7.458,-0.0688
7.459,-0.0708
7.46,-0.0653
7.461,-0.0503
7.462,-0.0282
7.463,-0.0075
7.464,0.0059
7.465,0.013
7.466,0.0284
7.467,0.0506
7.468,0.0594
7.469,0.078
7.47,0.1048
7.471,0.1225
7.472,0.1386
7.473,0.1474
7.474,0.1449
7.475,0.152
7.476,0.1498
7.477,0.1438
7.478,0.1236
7.479,0.1531
7.48,0.1414
7.481,0.1308
7.482,0.1731
7.483,0.2134
7.484,0.2185
7.485,0.1852
7.486,0.1202
7.487,0.0548
7.488,-0.0044
7.489,-0.0738
7.49,-0.1391
7.491,-0.2662
7.492,-0.3208
7.493,-0.3704
7.494,-0.3854
7.495,-0.3719
7.496,-0.3345
7.497,-0.2785
7.498,-0.2221
7.499,-0.1913
7.5,-0.2193
7.501,-0.2109
7.502,-0.2032
7.503,-0.1682
7.504,-0.1239
7.505,-0.1067
7.506,-0.1016
7.507,-0.0778
7.508,-0.065
7.509,-0.0611
7.51,-0.0576
7.511,-0.0415
7.512,-0.0208
7.513,0.0141
7.514,0.0379
7.515,0.0595
7.516,0.0713
7.517,0.0819
7.518,0.1044
7.519,0.1311
7.52,0.1418
7.521,0.1579
7.522,0.1727
7.523,0.1861
7.524,0.1932
7.525,0.1778
7.526,0.1678
7.527,0.1659
7.528,0.1476
7.529,0.1256
7.53,0.1108
7.531,0.0974
7.532,0.0854
7.533,0.0654
7.534,0.0575
7.535,0.0504
7.536,0.0304
7.537,0.033
7.538,0.0161
7.539,0.0139
7.54,0.0079
7.541,-0.0012
7.542,-0.0029
7.543,-0.0044
7.544,-0.0056
7.545,-0.0045
7.546,-0.0078
7.547,-0.0069
7.548,-0.0104
7.549,-0.0077
7.55,0.0048
7.551,0.0103
7.552,0.0152
7.553,0.0108
7.554,0.0013
7.555,-0.0122
7.556,-0.0177
7.557,-0.0161
7.558,-0.0265
7.559,-0.0197
7.56,-0.0232
7.561,-0.0221
7.562,-0.0192
7.563,-0.0183
7.564,-0.019
7.565,-0.0137
7.566,-0.0142
7.567,-0.0124
7.568,-0.0097
7.569,-0.0142
7.57,-0.0111
7.571,-0.0073
7.572,-0.0086
7.573,-0.0034
7.574,-0.0053
7.575,-0.0034
7.576,0.0004
7.577,0.0017
7.578,-0.0025
7.579,-0.0053
7.58,-0.004
7.581,-0.0044
7.582,-0.0089
7.583,-0.002
7.584,0.0008
7.585,0.0015
7.586,0.0008
7.587,-0.0038
7.588,-0.0007
7.589,-0.0001
7.59,0.0002
7.591,0.0006
7.592,0.0052
7.593,0.0008
7.594,0.0002
7.595,-0.0001
7.596,0.003
7.597,0.0041
7.598,0.0083
7.599,0.0072
7.6,0.0077
7.601,0.0152
7.602,0.0185
7.603,0.0297
7.604,0.0312
7.605,0.0216
7.606,0.0031
7.607,-0.0047
7.608,-0.0071
7.609,-0.0049
7.61,-0.0069
7.611,-0.0051
7.612,-0.01
7.613,-0.0115
7.614,-0.0102
7.615,-0.0113
7.616,-0.0056
7.617,-0.0027
7.618,-0.0091
7.619,0.0017
7.62,0.0002
7.621,-0.0038
7.622,-0.0073
7.623,-0.004
7.624,-0.0049
7.625,0.0015
7.626,0.0022
7.627,0.0107
7.628,0.0074
7.629,0.0044
7.63,0.0035
7.631,-0.0005
7.632,0.0002
7.633,0.0048
7.634,0.0042
7.635,0.0037
7.636,0.0024
7.637,0.0028
7.638,0.0048
7.639,0.0052
7.64,0.0011
7.641,0.0024
7.642,-0.0018
7.643,0.0033
7.644,0.0028
7.645,0.0046
7.646,-0.0005
7.647,0.0028
7.648,0.0022
7.649,-0.0005
7.65,0.0006
7.651,0.0039
7.652,0.0052
7.653,0.0114
7.654,0.0235
7.655,0.035
7.656,0.0275
7.657,0.0152
7.658,0.0037
7.659,0.0022
7.66,-0.0018
7.661,-0.0053
7.662,-0.0086
7.663,-0.0077
7.664,-0.0086
7.665,-0.0078
7.666,-0.01
7.667,-0.0025
7.668,-0.0016
7.669,-0.0007
7.67,0.005
7.671,-0.002
7.672,0.0064
7.673,0.0053
7.674,0.0024
7.675,0.007
7.676,0.0046
7.677,0.0039
7.678,0.0085
7.679,0.0028
7.68,0.002
7.681,0.0026
7.682,0.0031
7.683,0.007
7.684,0.0066
7.685,0.007
7.686,0.009
7.687,0.0033
7.688,0.0057
7.689,0.0035
7.69,0.0017
7.691,0.0022
7.692,0.0028
7.693,0.0061
7.694,0.0019
7.695,0.0057
7.696,0.007
7.697,0.0074
7.698,0.0046
7.699,0.0004
7.7,0.002
7.701,-0.0009
7.702,0.0004
7.703,0.0074
7.704,0.0205
7.705,0.0224
7.706,0.0306
7.707,0.0262
7.708,0.0112
7.709,0.0052
7.71,0.0033
7.711,-0.0016
7.712,-0.0001
7.713,0.0011
7.714,0
7.715,-0.0056
7.716,-0.0047
7.717,-0.002
7.718,0.0004
7.719,0.0057
7.72,0.0011
7.721,-0.002
7.722,0.0042
7.723,0.0066
7.724,0.0044
7.725,0.0134
7.726,0.0022
7.727,0.0037
7.728,0.0024
7.729,0.0035
7.73,0.0024
7.731,0.0053
7.732,0.0063
7.733,0.0055
7.734,0.0108
7.735,0.0141
7.736,0.0136
7.737,0.0119
7.738,0.0044
7.739,0.0055
7.74,-0.0014
7.741,-0.0005
7.742,-0.0029
7.743,-0.0051
7.744,-0.0018
7.745,-0.0012
7.746,-0.0064
7.747,-0.0058
7.748,-0.0064
7.749,0.002
7.75,0.0132
7.751,-0.0003
7.752,-0.0023
7.753,-0.0078
7.754,-0.0128
7.755,-0.0084
7.756,0.0011
7.757,0.0096
7.758,0.0107
7.759,0.0116
7.76,0.0107
7.761,0.013
7.762,0.0152
7.763,0.005
7.764,-0.0115
7.765,-0.0181
7.766,-0.0201
7.767,-0.0219
7.768,-0.0203
7.769,-0.0218
7.77,-0.0177
7.771,-0.0142
7.772,-0.011
7.773,-0.008
7.774,-0.0034
7.775,-0.0058
7.776,-0.0066
7.777,-0.0084
7.778,0.0011
7.779,-0.0029
7.78,0.0031
7.781,-0.0001
7.782,-0.0051
7.783,-0.0023
7.784,-0.0064
7.785,0.002
7.786,0.0053
7.787,0.0044
7.788,0.0035
7.789,0.0059
7.79,-0.0011
7.791,-0.0001
7.792,0.0039
7.793,0.0061
7.794,0.0079
7.795,0.0085
7.796,0.0101
7.797,0.0088
7.798,0.0092
7.799,0.0119
7.8,0.0108
7.801,0.0127
7.802,0.0134
7.803,0.0079
7.804,0.0097
7.805,0.0138
7.806,0.0222
7.807,0.0306
7.808,0.0317
7.809,0.0268
7.81,0.0129
7.811,-0.0012
7.812,-0.0031
7.813,-0.0014
7.814,-0.0089
7.815,-0.0077
7.816,-0.0066
7.817,-0.0055
7.818,-0.0005
7.819,0.0059
7.82,0.0066
7.821,-0.0034
7.822,-0.0022
7.823,0.0013
7.824,0.0046
7.825,0.0075
7.826,0.0066
7.827,0.009
7.828,0.0052
7.829,0.007
7.83,0.0101
7.831,0.0096
7.832,0.0072
7.833,0.003
7.834,0.0092
7.835,0.0068
7.836,0.0075
7.837,0.0057
7.838,0.0075
7.839,0.0048
7.84,0.0024
7.841,0.0055
7.842,0.0044
7.843,0.0041
7.844,-0.0014
7.845,0.0008
7.846,0.0026
7.847,0.007
7.848,0.0097
7.849,0.0064
7.85,0.0033
7.851,0.0053
7.852,0.0019
7.853,-0.0003
7.854,-0.0016
7.855,0.003
7.856,0.0125
7.857,0.0112
7.858,0.0248
7.859,0.0193
7.86,0.0077
7.861,0.0002
7.862,-0.0011
7.863,-0.0045
7.864,-0.0012
7.865,-0.0042
7.866,-0.0014
7.867,-0.0038
7.868,-0.0031
7.869,-0.0012
7.87,0.0006
7.871,0.0033
7.872,0.0009
7.873,-0.0003
7.874,0.0042
7.875,0.0024
7.876,0.0019
7.877,-0.0005
7.878,0.0026
7.879,0.0053
7.88,0.005
7.881,0.0031
7.882,-0.0001
7.883,0.0068
7.884,0.0059
7.885,0.0013
7.886,-0.0044
7.887,0.0009
7.888,0.0028
7.889,0.0059
7.89,0.0053
7.891,0.0041
7.892,0.0037
7.893,0.0083
7.894,0.0026
7.895,0.0048
7.896,0.0053
7.897,0.0059
7.898,0.002
7.899,0.0033
7.9,0.0075
7.901,0.0002
7.902,0.0052
7.903,0.0042
7.904,0.0035
7.905,0.0035
7.906,0.0074
7.907,0.0176
7.908,0.0101
7.909,0.0224
7.91,0.0174
7.911,0.0039
7.912,-0.0016
7.913,-0.0066
7.914,-0.0022
7.915,-0.0062
7.916,-0.0097
7.917,-0.0086
7.918,-0.0115
7.919,-0.0031
7.92,0.0002
7.921,0.0011
7.922,0.002
7.923,-0.0003
7.924,0.0019
7.925,0.0052
7.926,0.0033
7.927,-0.0005
7.928,0.0061
7.929,0.0033
7.93,0.0026
7.931,0.0019
7.932,0
7.933,0.0044
7.934,0.0039
7.935,0.0052
7.936,0.002
7.937,0
7.938,0.0057
7.939,0.0064
7.94,0.0042
7.941,0.0048
7.942,0.0092
7.943,0.0053
7.944,-0.0012
7.945,0.0052
7.946,0.0011
7.947,0.0033
7.948,0.0066
7.949,0.0048
7.95,0.0031
7.951,0.0064
7.952,0.0068
7.953,0.0041
7.954,0.0066
7.955,0.0041
7.956,0.002
7.957,0.0048
7.958,0.0105
7.959,0.0229
7.96,0.0248
7.961,0.0198
7.962,-0.0027
7.963,0.0004
7.964,-0.0144
7.965,-0.0066
7.966,-0.0089
7.967,-0.0067
7.968,-0.0047
7.969,-0.0066
7.97,-0.0082
7.971,-0.0067
7.972,-0.0027
7.973,0.0008
7.974,0.0019
7.975,0.0028
7.976,0.0019
7.977,-0.0005
7.978,0.0064
7.979,0.0019
7.98,0.0075
7.981,0.0037
7.982,0.0004
7.983,0.0048
7.984,0.0075
7.985,0.0088
7.986,0.011
7.987,0.0072
7.988,0.0096
7.989,0.0035
7.99,0.0028
7.991,0.0081
7.992,0.0114
7.993,0.0057
7.994,0.0019
7.995,0.0121
7.996,0.0107
7.997,0.0119
7.998,0.0059
7.999,0.0048
8,0.0057
8.001,0.003
8.002,-0.0011
8.003,0.0011
8.004,-0.0007
8.005,0.0011
8.006,0.0006
8.007,-0.0031
8.008,0.0002
8.009,0.0072
8.01,0.0121
8.011,0.0167
8.012,0.0059
8.013,0.0194
8.014,0.0139
8.015,-0.0044
8.016,-0.0115
8.017,-0.0137
8.018,-0.0077
8.019,-0.0095
8.02,-0.0111
8.021,-0.0097
8.022,-0.0137
8.023,-0.0148
8.024,-0.0045
8.025,-0.0058
8.026,-0.0047
8.027,-0.0014
8.028,-0.0084
8.029,-0.002
8.03,0.002
8.031,-0.0001
8.032,0.0004
8.033,0.0048
8.034,0.0075
8.035,0.0063
8.036,0.0041
8.037,0.0079
8.038,0.0055
8.039,0.0042
8.04,0.0097
8.041,0.0059
8.042,0.0064
8.043,0.0121
8.044,0.0083
8.045,0.0116
8.046,0.0085
8.047,0.0079
8.048,0.0125
8.049,0.0143
8.05,0.0092
8.051,0.0074
8.052,0.0042
8.053,-0.0009
8.054,-0.0014
8.055,-0.0009
8.056,0.0064
8.057,0.0074
8.058,0.005
8.059,0.0059
8.06,0.0134
8.061,0.0163
8.062,0.0209
8.063,0.0317
8.064,0.0242
8.065,0.0064
8.066,-0.0056
8.067,-0.0078
8.068,-0.0099
8.069,-0.008
8.07,-0.0097
8.071,-0.0082
8.072,-0.0014
8.073,-0.0049
8.074,-0.0082
8.075,-0.0073
8.076,-0.0045
8.077,0.0011
8.078,0.0064
8.079,0.0059
8.08,0.0077
8.081,0.005
8.082,0.0053
8.083,0.0105
8.084,0.0086
8.085,0.0042
8.086,0.0081
8.087,0.0068
8.088,0.0017
8.089,0.0035
8.09,0.0017
8.091,0.0068
8.092,0.0022
8.093,0.0041
8.094,0.0068
8.095,0.0022
8.096,-0.0047
8.097,-0.0056
8.098,-0.0016
8.099,0.0006
8.1,0.0052
8.101,0.002
8.102,0.0015
8.103,0.0011
8.104,0.0042
8.105,0.0015
8.106,-0.0042
8.107,0.0033
8.108,-0.0036
8.109,0.0042
8.11,0.0033
8.111,0.0125
8.112,0.016
8.113,0.0262
8.114,0.0275
8.115,0.024
8.116,0.007
8.117,0.0046
8.118,-0.002
8.119,-0.008
8.12,-0.0135
8.121,-0.0119
8.122,-0.0104
8.123,-0.0091
8.124,-0.0102
8.125,-0.0045
8.126,-0.0095
8.127,-0.0086
8.128,-0.0078
8.129,-0.0056
8.13,-0.0119
8.131,-0.0027
8.132,-0.0016
8.133,0.0041
8.134,0.0031
8.135,0.0059
8.136,0.0066
8.137,0.0059
8.138,0.0121
8.139,0.0145
8.14,0.0152
8.141,0.0107
8.142,0.0037
8.143,0.0064
8.144,0.0088
8.145,0.005
8.146,0.0031
8.147,-0.0025
8.148,0.0044
8.149,-0.0001
8.15,0.0006
8.151,0.0075
8.152,0.0121
8.153,0.0129
8.154,0.0121
8.155,0.0046
8.156,0.0055
8.157,0.0064
8.158,0.0072
8.159,0.005
8.16,0.0028
8.161,0.0009
8.162,0.0105
8.163,0.0118
8.164,0.0302
8.165,0.0277
8.166,0.0156
8.167,0.0046
8.168,-0.0095
8.169,-0.0003
8.17,-0.0053
8.171,-0.0038
8.172,-0.0051
8.173,-0.0135
8.174,-0.0102
8.175,-0.0073
8.176,-0.0064
8.177,-0.0023
8.178,0.0015
8.179,-0.0018
8.18,-0.0012
8.181,-0.0018
8.182,0.0015
8.183,-0.0016
8.184,0.0046
8.185,0.0074
8.186,0.005
8.187,0.0028
8.188,0.0046
8.189,0.0015
8.19,0.0031
8.191,0.0019
8.192,0.0031
8.193,0.0042
8.194,0.0017
8.195,0.0028
8.196,0.0048
8.197,0.003
8.198,0.0042
8.199,0.0064
8.2,0.0077
8.201,0.0042
8.202,0.0055
8.203,0.0052
8.204,0.007
8.205,0.0088
8.206,0.0042
8.207,0.0075
8.208,0.0107
8.209,0.009
8.21,0.0044
8.211,0.0028
8.212,0.0059
8.213,0.0143
8.214,0.0154
8.215,0.0211
8.216,0.0059
8.217,-0.0141
8.218,-0.0327
8.219,-0.0496
8.22,-0.0606
8.221,-0.0666
8.222,-0.0721
8.223,-0.0803
8.224,-0.0789
8.225,-0.0584
8.226,-0.0316
8.227,-0.0067
8.228,0.0094
8.229,0.0182
8.23,0.0423
8.231,0.0649
8.232,0.0855
8.233,0.1097
8.234,0.1454
8.235,0.1692
8.236,0.1734
8.237,0.1538
8.238,0.1645
8.239,0.1938
8.24,0.2372
8.241,0.2084
8.242,0.1718
8.243,0.1765
8.244,0.1894
8.245,0.2168
8.246,0.2203
8.247,0.2298
8.248,0.1972
8.249,0.1322
8.25,0.0295
8.251,-0.0113
8.252,-0.0736
8.253,-0.13
8.254,-0.2224
8.255,-0.3345
8.256,-0.3795
8.257,-0.366
8.258,-0.4033
8.259,-0.437
8.26,-0.4063
8.261,-0.3596
8.262,-0.3349
8.263,-0.3433
8.264,-0.3048
8.265,-0.2699
8.266,-0.2382
8.267,-0.1979
8.268,-0.1823
8.269,-0.149
8.27,-0.1362
8.271,-0.1245
8.272,-0.1067
8.273,-0.071
8.274,-0.028
8.275,0.0123
8.276,0.0385
8.277,0.0815
8.278,0.1218
8.279,0.148
8.28,0.1527
8.281,0.1656
8.282,0.1852
8.283,0.1958
8.284,0.2119
8.285,0.209
8.286,0.2115
8.287,0.2139
8.288,0.2029
8.289,0.1969
8.29,0.1877
8.291,0.1628
8.292,0.1451
8.293,0.1355
8.294,0.1207
8.295,0.1073
8.296,0.1002
8.297,0.0892
8.298,0.0711
8.299,0.0542
8.3,0.0432
8.301,0.0332
8.302,0.0313
8.303,0.0231
8.304,0.0187
8.305,0.0119
8.306,0.0085
8.307,0.0028
8.308,0.0019
8.309,0.0046
8.31,-0.0011
8.311,-0.0049
8.312,-0.0055
8.313,-0.0038
8.314,-0.0082
8.315,0.0002
8.316,0.0037
8.317,0.0116
8.318,0.0086
8.319,0.0041
8.32,-0.0084
8.321,-0.0212
8.322,-0.0262
8.323,-0.0276
8.324,-0.0316
8.325,-0.0256
8.326,-0.0245
8.327,-0.0254
8.328,-0.0245
8.329,-0.0205
8.33,-0.0183
8.331,-0.0164
8.332,-0.0146
8.333,-0.0108
8.334,-0.0131
8.335,-0.01
8.336,-0.0121
8.337,-0.0095
8.338,-0.0135
8.339,-0.0131
8.34,-0.0071
8.341,-0.0078
8.342,-0.0056
8.343,-0.0089
8.344,-0.0058
8.345,-0.0031
8.346,-0.0007
8.347,-0.002
8.348,-0.0009
8.349,-0.002
8.35,-0.0038
8.351,-0.0066
8.352,-0.0062
8.353,-0.0066
8.354,-0.002
8.355,-0.0025
8.356,-0.002
8.357,0.0042
8.358,-0.0014
8.359,-0.0036
8.36,0.0026
8.361,0.0019
8.362,-0.002
8.363,-0.0001
8.364,-0.0038
8.365,0.0019
8.366,0.0026
8.367,0.0129
8.368,0.0204
8.369,0.0244
8.37,0.0132
8.371,-0.0003
8.372,-0.0095
8.373,-0.0111
8.374,-0.0126
8.375,-0.0166
8.376,-0.0106
8.377,-0.0073
8.378,-0.0102
8.379,-0.0075
8.38,-0.0082
8.381,-0.0075
8.382,-0.0029
8.383,0.0015
8.384,0.0077
8.385,0.0085
8.386,-0.0031
8.387,-0.0014
8.388,0
8.389,0.0041
8.39,0.003
8.391,0.0041
8.392,0.0011
8.393,0.0039
8.394,0.0063
8.395,0.0055
8.396,0.0037
8.397,0.0055
8.398,0.0094
8.399,0.0081
8.4,0.0068
8.401,0.0048
8.402,0.0059
8.403,0.0114
8.404,0.0136
8.405,0.0118
8.406,0.0099
8.407,0.0061
8.408,0.0037
8.409,0.0041
8.41,-0.0005
8.411,0.0039
8.412,-0.0012
8.413,0.0033
8.414,0.0052
8.415,0.0028
8.416,0
8.417,0.0075
8.418,0.02
8.419,0.0183
8.42,0.0227
8.421,0.0268
8.422,0.0083
8.423,-0.0051
8.424,-0.0075
8.425,-0.0097
8.426,-0.0157
8.427,-0.0066
8.428,-0.0082
8.429,-0.0097
8.43,-0.0029
8.431,-0.004
8.432,-0.0051
8.433,-0.0001
8.434,0.0008
8.435,0
8.436,0.0022
8.437,0.0055
8.438,0.0037
8.439,0.0042
8.44,0.0046
8.441,0.0059
8.442,0.0031
8.443,0.005
8.444,0.0061
8.445,0.0033
8.446,0.0044
8.447,0.0063
8.448,0.0083
8.449,0.0041
8.45,0.0085
8.451,0.0022
8.452,0.0046
8.453,0.0068
8.454,0.0063
8.455,0.0068
8.456,0.0017
8.457,-0.0016
8.458,0.0079
8.459,0.0092
8.46,0.0057
8.461,0.0024
8.462,0.0074
8.463,0.0028
8.464,0.0052
8.465,0.0074
8.466,0.0072
8.467,0.0077
8.468,0.0172
8.469,0.0213
8.47,0.0129
8.471,0.0299
8.472,0.0227
8.473,0.0118
8.474,0.0057
8.475,0.0002
8.476,-0.0014
8.477,-0.0029
8.478,-0.0016
8.479,0.0019
8.48,0.0008
8.481,-0.0042
8.482,-0.0033
8.483,-0.0009
8.484,-0.0001
8.485,0.0017
8.486,0.0112
8.487,0.0262
8.488,0.0121
8.489,0.0139
8.49,0.009
8.491,0.0015
8.492,0.0002
8.493,0.0013
8.494,0.0046
8.495,0.0037
8.496,0.0064
8.497,0.0041
8.498,0.0094
8.499,0.0061
8.5,0.003
8.501,0.0046
8.502,-0.0029
8.503,-0.004
8.504,0.003
8.505,0.0002
8.506,0.0059
8.507,0.0037
8.508,0.0004
8.509,-0.0001
8.51,-0.0029
8.511,-0.0016
8.512,-0.0012
8.513,-0.004
8.514,0.0002
8.515,0.0019
8.516,-0.0005
8.517,-0.0031
8.518,-0.0062
8.519,0
8.52,0.0139
8.521,0.02
8.522,0.0108
8.523,0.0026
8.524,-0.0049
8.525,-0.0089
8.526,-0.0078
8.527,-0.0111
8.528,-0.0121
8.529,-0.013
8.53,-0.017
8.531,-0.0148
8.532,-0.0115
8.533,-0.0071
8.534,-0.0066
8.535,-0.0078
8.536,-0.0091
8.537,-0.0045
8.538,-0.004
8.539,0.0033
8.54,0.0042
8.541,-0.0003
8.542,-0.0044
8.543,-0.0051
8.544,-0.0005
8.545,0.0026
8.546,0.0031
8.547,0.0028
8.548,0.0006
8.549,0.0061
8.55,0.0022
8.551,0.0017
8.552,0.0011
8.553,0.005
8.554,0.0063
8.555,0.0059
8.556,0.0004
8.557,-0.0003
8.558,0.0042
8.559,0.0011
8.56,-0.0005
8.561,0.0061
8.562,0.0033
8.563,0.0074
8.564,0.0035
8.565,0.0081
8.566,0.0075
8.567,0.0092
8.568,0.0094
8.569,0.009
8.57,0.0141
8.571,0.0244
8.572,0.0288
8.573,0.0356
8.574,0.0171
8.575,0.0092
8.576,0.002
8.577,-0.0001
8.578,-0.0062
8.579,-0.008
8.58,-0.0097
8.581,-0.0053
8.582,-0.0093
8.583,-0.0058
8.584,-0.0047
8.585,0.0022
8.586,-0.0005
8.587,0.0002
8.588,0.0024
8.589,0.0057
8.59,0.0063
8.591,0.0046
8.592,0.0033
8.593,0.0037
8.594,0.0064
8.595,0.003
8.596,0.0061
8.597,0.0088
8.598,0.0123
8.599,0.0081
8.6,0.0053
8.601,0.005
8.602,0.0037
8.603,0.0026
8.604,0
8.605,-0.0033
8.606,-0.0005
8.607,0.003
8.608,0.0033
8.609,0.003
8.61,0.0072
8.611,0.0055
8.612,0.0031
8.613,0.0019
8.614,0.0015
8.615,0.0026
8.616,0.0022
8.617,0.0068
8.618,0.005
8.619,0.0028
8.62,0.0097
8.621,0.0182
8.622,0.026
8.623,0.0251
8.624,0.0315
8.625,0.0275
8.626,0.016
8.627,0.0009
8.628,-0.0051
8.629,-0.0069
8.63,-0.0053
8.631,-0.0067
8.632,-0.0055
8.633,-0.0066
8.634,-0.0033
8.635,-0.0023
8.636,-0.0069
8.637,-0.0045
8.638,-0.0007
8.639,0.0039
8.64,0.0008
8.641,0.0013
8.642,0.0026
8.643,0.0048
8.644,0.0037
8.645,0.0033
8.646,0.0074
8.647,0.0097
8.648,0.0075
8.649,0.0072
8.65,0.0037
8.651,0.0024
8.652,0.0035
8.653,0.007
8.654,0
8.655,-0.0009
8.656,-0.0018
8.657,0.0039
8.658,0
8.659,0.0033
8.66,0.0052
8.661,0.0024
8.662,0.002
8.663,0.0033
8.664,0.003
8.665,-0.0027
8.666,0.0013
8.667,0.0035
8.668,0.0041
8.669,0.0046
8.67,0.005
8.671,0.0033
8.672,0.0108
8.673,0.0233
8.674,0.0315
8.675,0.0211
8.676,0.0061
8.677,0
8.678,-0.0055
8.679,-0.0104
8.68,-0.0089
8.681,-0.0049
8.682,-0.0084
8.683,-0.0051
8.684,-0.006
8.685,-0.0051
8.686,-0.0058
8.687,-0.002
8.688,0.007
8.689,0.0081
8.69,0.007
8.691,0.002
8.692,0.003
8.693,0.0022
8.694,0.0015
8.695,0.0048
8.696,0.003
8.697,0.0068
8.698,0.0035
8.699,0.0048
8.7,0.0044
8.701,0.0026
8.702,0.0074
8.703,0.0004
8.704,-0.0005
8.705,0.0035
8.706,0.0042
8.707,0.0024
8.708,0.003
8.709,0.0068
8.71,0.0081
8.711,0.0011
8.712,0.0002
8.713,0.003
8.714,0.0022
8.715,-0.0031
8.716,0.0002
8.717,-0.0003
8.718,0.0002
8.719,-0.0011
8.72,0.0002
8.721,0.0028
8.722,-0.0018
8.723,0.0077
8.724,0.02
8.725,0.015
8.726,0.0286
8.727,0.0194
8.728,0.0145
8.729,0.007
8.73,0.003
8.731,0.0019
8.732,0.003
8.733,0.0099
8.734,-0.0003
8.735,-0.0071
8.736,-0.0082
8.737,-0.0093
8.738,-0.0084
8.739,-0.0056
8.74,-0.0049
8.741,0.0004
8.742,-0.0058
8.743,-0.0034
8.744,-0.0012
8.745,0.0033
8.746,-0.0011
8.747,0.0028
8.748,0.0083
8.749,-0.0018
8.75,-0.0005
8.751,0.0006
8.752,0.0039
8.753,-0.0031
8.754,0.0033
8.755,0.0026
8.756,-0.0012
8.757,0.002
8.758,0.0026
8.759,0.0064
8.76,0.0068
8.761,0.009
8.762,0.0079
8.763,0.0129
8.764,0.011
8.765,0.0053
8.766,0.0061
8.767,0.0042
8.768,0.0024
8.769,0.0008
8.77,0.0004
8.771,0.0026
8.772,0.0035
8.773,0.0039
8.774,0.0096
8.775,0.0152
8.776,0.0222
8.777,0.0231
8.778,0.0306
8.779,0.0194
8.78,0.0059
8.781,-0.0033
8.782,-0.0049
8.783,-0.0064
8.784,-0.0104
8.785,-0.0069
8.786,-0.008
8.787,-0.0031
8.788,-0.0022
8.789,-0.0097
8.79,-0.0067
8.791,-0.004
8.792,-0.0016
8.793,0.0022
8.794,0.0004
8.795,0.0048
8.796,0.0053
8.797,0.005
8.798,0.0053
8.799,0.0064
8.8,0.0068
8.801,0.002
8.802,0.0039
8.803,0.0044
8.804,0.0011
8.805,0.0024
8.806,0.0052
8.807,0.0026
8.808,0.0037
8.809,0.0022
8.81,0.0035
8.811,-0.0005
8.812,0
8.813,-0.0012
8.814,-0.0009
8.815,0.0002
8.816,0.0013
8.817,0.0024
8.818,0.0022
8.819,0.0059
8.82,0.0063
8.821,0.005
8.822,0.0061
8.823,0.0072
8.824,0.0015
8.825,0.0139
8.826,0.0304
8.827,0.0326
8.828,0.0266
8.829,0.0138
8.83,-0.0012
8.831,0.0008
8.832,-0.0011
8.833,-0.0027
8.834,-0.0012
8.835,0.0028
8.836,-0.0084
8.837,-0.0128
8.838,-0.006
8.839,0
8.84,0.0011
8.841,0.002
8.842,-0.0025
8.843,-0.0001
8.844,0.002
8.845,-0.0042
8.846,-0.0001
8.847,0.002
8.848,0.0039
8.849,0.0044
8.85,0.0017
8.851,0.0013
8.852,0.0035
8.853,0.0046
8.854,0.0035
8.855,0.0002
8.856,0.0022
8.857,0.0004
8.858,0.0059
8.859,0.0066
8.86,0.0048
8.861,0.0017
8.862,0.0044
8.863,0.0068
8.864,0.0008
8.865,0.0015
8.866,-0.0038
8.867,-0.002
8.868,0.0011
8.869,0.0063
8.87,0.0096
8.871,0.0026
8.872,0.0053
8.873,0.0061
8.874,0.0042
8.875,0.0064
8.876,0.0167
8.877,0.0211
8.878,0.0224
8.879,0.0259
8.88,0.0202
8.881,0.011
8.882,-0.0025
8.883,-0.0044
8.884,-0.0126
8.885,-0.0082
8.886,-0.0069
8.887,-0.013
8.888,-0.0051
8.889,-0.0001
8.89,0.0008
8.891,0.0015
8.892,0.0022
8.893,0.0068
8.894,0.005
8.895,0.0033
8.896,-0.0033
8.897,0.0013
8.898,-0.0044
8.899,-0.0066
8.9,-0.0071
8.901,-0.0027
8.902,0
8.903,0.0046
8.904,0.0064
8.905,0.0103
8.906,0.0079
8.907,0.0121
8.908,0.0037
8.909,0.0002
8.91,0.0035
8.911,0.0044
8.912,0.0053
8.913,-0.0038
8.914,-0.0003
8.915,-0.0014
8.916,-0.0005
8.917,-0.0033
8.918,-0.0073
8.919,-0.0051
8.92,-0.0069
8.921,-0.0064
8.922,-0.0025
8.923,-0.0022
8.924,0.0039
8.925,0.0042
8.926,0.005
8.927,0.0165
8.928,0.0248
8.929,0.0352
8.93,0.0447
8.931,0.0312
8.932,0.0183
8.933,0.0101
8.934,0.0057
8.935,0.0017
8.936,-0.0018
8.937,0.0015
8.938,-0.0034
8.939,-0.0044
8.94,-0.0036
8.941,0.0002
8.942,0.0077
8.943,0.0107
8.944,0.0116
8.945,0.0041
8.946,-0.0029
8.947,-0.0056
8.948,-0.0033
8.949,-0.004
8.95,-0.0034
8.951,-0.0091
8.952,-0.0007
8.953,0.0004
8.954,-0.0025
8.955,0.002
8.956,-0.0003
8.957,0.005
8.958,0.0055
8.959,0.0037
8.96,0.0031
8.961,0.0044
8.962,0.0066
8.963,0.0105
8.964,0.0081
8.965,0.0068
8.966,0.0064
8.967,0.0046
8.968,0.0042
8.969,0.0028
8.97,0.007
8.971,0.0052
8.972,0.0046
8.973,0.005
8.974,0.0046
8.975,0.0008
8.976,0.005
8.977,0.0037
8.978,0.0097
8.979,0.0022
8.98,0.0052
8.981,0.0024
8.982,0.0116
8.983,0.0227
8.984,0.0242
8.985,0.0229
8.986,0.0094
8.987,-0.0034
8.988,-0.0051
8.989,-0.0155
8.99,-0.0115
8.991,-0.0126
8.992,-0.0093
8.993,-0.0064
8.994,-0.0091
8.995,-0.0166
8.996,-0.0175
8.997,-0.0073
8.998,-0.0033
8.999,-0.0022
9,-0.0033
9.001,-0.0023
9.002,-0.0033
9.003,0.0024
9.004,-0.0014
9.005,-0.0047
9.006,-0.0117
9.007,-0.0181
9.008,-0.0289
9.009,-0.0393
9.01,-0.0461
9.011,-0.0522
9.012,-0.06
9.013,-0.0571
9.014,-0.0507
9.015,-0.0382
9.016,-0.0144
9.017,0.0149
9.018,0.0266
9.019,0.0301
9.02,0.0462
9.021,0.0788
9.022,0.1004
9.023,0.12
9.024,0.1377
9.025,0.1603
9.026,0.1573
9.027,0.139
9.028,0.174
9.029,0.2073
9.03,0.2375
9.031,0.1863
9.032,0.1793
9.033,0.1731
9.034,0.1787
9.035,0.2049
9.036,0.2097
9.037,0.2139
9.038,0.1784
9.039,0.1068
9.04,0.035
9.041,0.007
9.042,-0.0522
9.043,-0.1369
9.044,-0.2611
9.045,-0.3438
9.046,-0.3589
9.047,-0.3724
9.048,-0.4098
9.049,-0.4209
9.05,-0.3902
9.051,-0.3435
9.052,-0.3519
9.053,-0.3288
9.054,-0.2939
9.055,-0.275
9.056,-0.2347
9.057,-0.2085
9.058,-0.2038
9.059,-0.1736
9.06,-0.154
9.061,-0.1291
9.062,-0.1065
9.063,-0.062
9.064,-0.0047
9.065,0.0337
9.066,0.0546
9.067,0.0989
9.068,0.1392
9.069,0.1443
9.07,0.1586
9.071,0.1714
9.072,0.191
9.073,0.2088
9.074,0.2057
9.075,0.2145
9.076,0.2223
9.077,0.2102
9.078,0.2042
9.079,0.1932
9.08,0.1912
9.081,0.1637
9.082,0.1599
9.083,0.1421
9.084,0.1326
9.085,0.1178
9.086,0.0991
9.087,0.1015
9.088,0.0771
9.089,0.0546
9.09,0.0339
9.091,0.0205
9.092,0.0085
9.093,0.0063
9.094,0.0042
9.095,-0.0012
9.096,-0.0029
9.097,-0.0044
9.098,-0.0084
9.099,-0.0095
9.1,-0.0062
9.101,-0.0091
9.102,-0.0082
9.103,-0.0058
9.104,-0.0097
9.105,-0.013
9.106,-0.0086
9.107,-0.0137
9.108,-0.0131
9.109,-0.0137
9.11,-0.0188
9.111,-0.0194
9.112,-0.0188
9.113,-0.0104
9.114,-0.0115
9.115,-0.0148
9.116,-0.0157
9.117,-0.0093
9.118,-0.01
9.119,-0.0093
9.12,-0.0099
9.121,-0.0104
9.122,-0.0121
9.123,-0.0088
9.124,-0.0066
9.125,-0.0077
9.126,-0.0066
9.127,-0.0062
9.128,-0.0055
9.129,-0.0053
9.13,-0.0022
9.131,0.0041
9.132,0.0143
9.133,0.0156
9.134,0.0121
9.135,-0.0049
9.136,-0.0025
9.137,-0.0091
9.138,-0.0111
9.139,-0.013
9.14,-0.0146
9.141,-0.0161
9.142,-0.0174
