0,0.0073
0.001,0.0017
0.002,0.0132
0.003,0.0381
0.004,0.0416
0.005,0.0511
0.006,0.0363
0.007,-0.004
0.008,-0.0212
0.009,-0.0161
0.01,-0.0304
0.011,-0.0346
0.012,-0.0229
0.013,-0.0194
0.014,-0.0225
0.015,-0.0077
0.016,-0.0156
0.017,-0.0132
0.018,-0.0066
0.019,-0.0046
0.02,-0.0064
0.021,-0.0015
0.022,0.0029
0.023,-0.0038
0.024,-0.0027
0.025,-0.0106
0.026,0.0046
0.027,0.0068
0.028,0.0088
0.029,-0.0004
0.03,0.0079
0.031,-0.0117
0.032,0.0178
0.033,0.006
0.034,0.0026
0.035,-0.007
0.036,-0.0099
0.037,-0.002
0.038,0.0004
0.039,0.007
0.04,0.017
0.041,0.0006
0.042,-0.006
0.043,-0.004
0.044,-0.0022
0.045,-0.0038
0.046,0.0097
0.047,0.0006
0.048,0.0055
0.049,-0.0141
0.05,-0.0062
0.051,-0.0051
0.052,0.002
0.053,0.013
0.054,0.0352
0.055,0.0322
0.056,0.0509
0.057,0.0388
0.058,0.0057
0.059,-0.0276
0.06,-0.0319
0.061,-0.028
0.062,-0.0245
0.063,-0.0276
0.064,-0.0189
0.065,-0.0214
0.066,-0.0238
0.067,-0.0128
0.068,-0.0108
0.069,-0.0053
0.07,-0.0037
0.071,0.0007
0.072,-0.006
0.073,-0.0049
0.074,-0.0038
0.075,-0.0009
0.076,0
0.077,0.004
0.078,0.0079
0.079,0.0084
0.08,-0.0011
0.081,0.0002
0.082,-0.0033
0.083,0.0024
0.084,0.0073
0.085,-0.0048
0.086,0.0002
0.087,0.0046
0.088,0.0033
0.089,-0.0002
0.09,0.0055
0.091,0.0125
0.092,-0.0015
0.093,0.0006
0.094,0.006
0.095,0.0044
0.096,-0.0031
0.097,-0.0018
0.098,0.0042
0.099,0.0053
0.1,-0.0059
0.101,0.0137
0.102,0.0007
0.103,0.0033
0.104,0.0154
0.105,0.0308
0.106,0.057
0.107,0.032
0.108,-0.0037
0.109,-0.0179
0.11,-0.0137
0.111,-0.0099
0.112,-0.0064
0.113,-0.0159
0.114,-0.0247
0.115,-0.006
0.116,-0.0181
0.117,-0.0159
0.118,-0.0139
0.119,-0.0084
0.12,-0.0035
0.121,-0.002
0.122,-0.0115
0.123,-0.0031
0.124,0.0048
0.125,0.02
0.126,0.0222
0.127,0
0.128,0.0029
0.129,-0.0049
0.13,-0.0073
0.131,-0.0095
0.132,0.0006
0.133,-0.0049
0.134,-0.0033
0.135,-0.0018
0.136,-0.0005
0.137,0.0029
0.138,-0.0004
0.139,0.0006
0.14,-0.0059
0.141,0.0066
0.142,0.0048
0.143,-0.0035
0.144,0.0009
0.145,-0.0059
0.146,0.0077
0.147,0.0022
0.148,-0.006
0.149,0.0044
0.15,0.0004
0.151,0.0064
0.152,0.0053
0.153,-0.0029
0.154,-0.0038
0.155,0.0101
0.156,0.0363
0.157,0.0185
0.158,0.0608
0.159,0.032
0.16,0.0059
0.161,-0.0179
0.162,-0.0222
0.163,-0.026
0.164,-0.0225
0.165,-0.0256
0.166,-0.0344
0.167,-0.0157
0.168,-0.0086
0.169,-0.0108
0.17,-0.0168
0.171,-0.0077
0.172,-0.006
0.173,-0.0135
0.174,0.0015
0.175,0.0075
0.176,-0.0126
0.177,0.006
0.178,-0.0011
0.179,0.0055
0.18,0.0035
0.181,-0.002
0.182,0.0029
0.183,0.0015
0.184,0.0055
0.185,0.0066
0.186,-0.0013
0.187,0.0099
0.188,-0.0037
0.189,-0.0018
0.19,0.0031
0.191,0.0046
0.192,-0.0022
0.193,0.0039
0.194,0.0006
0.195,0.0035
0.196,-0.0068
0.197,0
0.198,0.006
0.199,0.0028
0.2,-0.0022
0.201,0.0024
0.202,-0.0033
0.203,0.0082
0.204,0.0022
0.205,0.0006
0.206,0.0231
0.207,0.0456
0.208,0.0485
0.209,0.0352
0.21,0.0035
0.211,-0.0181
0.212,-0.0143
0.213,-0.0108
0.214,-0.0139
0.215,-0.0168
0.216,-0.0143
0.217,-0.0071
0.218,-0.0181
0.219,-0.0081
0.22,-0.0099
0.221,-0.0049
0.222,-0.0064
0.223,-0.0132
0.224,-0.0048
0.225,-0.0081
0.226,-0.0031
0.227,-0.0022
0.228,-0.0062
0.229,0.0053
0.23,0.0037
0.231,-0.0068
0.232,-0.0055
0.233,0.0006
0.234,-0.0005
0.235,0.0044
0.236,0.0071
0.237,0.0064
0.238,-0.002
0.239,0.0059
0.24,-0.0011
0.241,0.0092
0.242,-0.0004
0.243,0.0007
0.244,-0.0026
0.245,0.0004
0.246,0.0031
0.247,0.0007
0.248,0
0.249,-0.0018
0.25,-0.0013
0.251,0.0039
0.252,0.0128
0.253,0.0093
0.254,-0.0009
0.255,0.0015
0.256,-0.0053
0.257,0.0108
0.258,0.044
0.259,0.0487
0.26,0.0529
0.261,0.0255
0.262,-0.0068
0.263,-0.0196
0.264,-0.0234
0.265,-0.0269
0.266,-0.0174
0.267,-0.0203
0.268,-0.0229
0.269,-0.0205
0.27,-0.0139
0.271,-0.0079
0.272,-0.0134
0.273,-0.0117
0.274,-0.0102
0.275,-0.009
0.276,-0.0055
0.277,0.0002
0.278,-0.011
0.279,-0.0005
0.28,0.0035
0.281,0.0046
0.282,-0.0079
0.283,0.0037
0.284,-0.0007
0.285,0.0033
0.286,0.0093
0.287,-0.0031
0.288,-0.0015
0.289,0.006
0.29,0.002
0.291,0.0055
0.292,0.0022
0.293,0.0051
0.294,0.0024
0.295,0.0017
0.296,-0.0005
0.297,0.0084
0.298,0.0024
0.299,0.0103
0.3,0.0053
0.301,0.0007
0.302,-0.0016
0.303,0.0084
0.304,0.0097
0.305,0.0037
0.306,0
0.307,0.0011
0.308,0.006
0.309,0.02
0.31,0.026
0.311,0.0461
0.312,0.022
0.313,0.0059
0.314,-0.009
0.315,-0.0223
0.316,-0.0295
0.317,-0.0229
0.318,-0.0249
0.319,-0.0194
0.32,-0.0178
0.321,-0.0163
0.322,-0.0176
0.323,-0.0211
0.324,-0.0108
0.325,-0.0068
0.326,-0.0057
0.327,-0.0024
0.328,-0.0015
0.329,-0.0024
0.33,0.0017
0.331,-0.0037
0.332,-0.0082
0.333,-0.0013
0.334,-0.0004
0.335,0.0053
0.336,0
0.337,0.0033
0.338,0.0077
0.339,0.0093
0.34,0.0018
0.341,0.0075
0.342,0.0006
0.343,0.0051
0.344,0.0092
0.345,0.0022
0.346,0.0068
0.347,0.0044
0.348,-0.004
0.349,-0.0029
0.35,0.0062
0.351,-0.0073
0.352,-0.0092
0.353,0.0024
0.354,0.0039
0.355,-0.0002
0.356,-0.0037
0.357,0.0037
0.358,0.0026
0.359,0.0117
0.36,0.0302
0.361,0.0544
0.362,0.0383
0.363,0.0115
0.364,-0.0134
0.365,-0.0165
0.366,-0.0077
0.367,-0.0211
0.368,-0.009
0.369,-0.0112
0.37,-0.0092
0.371,0.0183
0.372,0.0066
0.373,-0.0183
0.374,-0.0152
0.375,-0.0181
0.376,0.0006
0.377,-0.0115
0.378,-0.0181
0.379,-0.0121
0.38,-0.0139
0.381,-0.009
0.382,-0.0046
0.383,0.0049
0.384,-0.0011
0.385,0
0.386,0.0049
0.387,0.0152
0.388,-0.0026
0.389,0.0143
0.39,0.0033
0.391,-0.0068
0.392,0.0024
0.393,0.0139
0.394,-0.0057
0.395,-0.0031
0.396,-0.0007
0.397,0.0015
0.398,0.0075
0.399,-0.0016
0.4,-0.0033
0.401,0.0071
0.402,-0.0024
0.403,0.0011
0.404,0.0022
0.405,-0.0027
0.406,0
0.407,0.0125
0.408,0.011
0.409,0.0092
0.41,0.0141
0.411,0.0277
0.412,0.0295
0.413,0.0344
0.414,0.03
0.415,0.0288
0.416,0.0176
0.417,0.0161
0.418,0.0174
0.419,0.0114
0.42,0.0238
0.421,0.0189
0.422,-0.0037
0.423,-0.033
0.424,-0.0447
0.425,-0.0412
0.426,-0.0507
0.427,-0.0478
0.428,-0.0344
0.429,-0.0223
0.43,-0.0333
0.431,-0.0192
0.432,-0.0174
0.433,-0.0157
0.434,-0.0082
0.435,-0.007
0.436,-0.0081
0.437,0.0044
0.438,0.0028
0.439,0.0103
0.44,-0.0048
0.441,0.0134
0.442,0.0013
0.443,0.0212
0.444,0.0026
0.445,0.0049
0.446,0.0071
0.447,0.0051
0.448,-0.0004
0.449,0.0112
0.45,0.0037
0.451,0.0049
0.452,0.0134
0.453,0.0055
0.454,-0.0037
0.455,0.0048
0.456,0.0081
0.457,0.009
0.458,-0.0013
0.459,0.0059
0.46,0.0099
0.461,0.0134
0.462,0.0304
0.463,0.0472
0.464,0.0582
0.465,0.032
0.466,-0.0073
0.467,-0.0124
0.468,-0.0172
0.469,-0.03
0.47,-0.0104
0.471,-0.0211
0.472,0.0015
0.473,-0.0134
0.474,-0.0267
0.475,-0.0146
0.476,-0.0168
0.477,-0.0108
0.478,-0.0053
0.479,0.0029
0.48,-0.0046
0.481,-0.0005
0.482,0.0006
0.483,-0.0051
0.484,-0.0042
0.485,0.0079
0.486,0.0029
0.487,0.0015
0.488,0.0082
0.489,0.0048
0.49,0.0126
0.491,0.0077
0.492,-0.0062
0.493,-0.0002
0.494,0.0017
0.495,0
0.496,-0.0015
0.497,-0.0055
0.498,0.0106
0.499,-0.0048
0.5,-0.0027
0.501,-0.0082
0.502,0.0134
0.503,0.0046
0.504,-0.0033
0.505,-0.0057
0.506,0.0009
0.507,0.0029
0.508,-0.0026
0.509,0.0125
0.51,-0.0015
0.511,-0.0115
0.512,0.0159
0.513,0.0355
0.514,0.0461
0.515,0.0557
0.516,0.0231
0.517,-0.0071
0.518,-0.0033
0.519,-0.0211
0.52,-0.0179
0.521,-0.0209
0.522,-0.0183
0.523,-0.0159
0.524,-0.0137
0.525,-0.0157
0.526,-0.0102
0.527,-0.0119
0.528,-0.0134
0.529,-0.0121
0.53,-0.011
0.531,-0.0007
0.532,0.0006
0.533,-0.0055
0.534,0.007
0.535,-0.0081
0.536,0.0101
0.537,0.0029
0.538,0.0051
0.539,-0.0009
0.54,-0.0027
0.541,-0.0011
0.542,0.0033
0.543,0.002
0.544,-0.0015
0.545,0.0042
0.546,-0.0027
0.547,0
0.548,0.0057
0.549,0.0035
0.55,0.011
0.551,0.0018
0.552,0.0079
0.553,-0.0024
0.554,-0.0011
0.555,0
0.556,0.0033
0.557,0.0082
0.558,0.0073
0.559,-0.0051
0.56,-0.0106
0.561,0.0066
0.562,0.0017
0.563,0.0152
0.564,0.0317
0.565,0.0339
0.566,0.056
0.567,0.0293
0.568,0.0044
0.569,-0.0117
0.57,-0.0265
0.571,-0.0132
0.572,-0.0156
0.573,-0.0222
0.574,-0.0201
0.575,-0.022
0.576,-0.0203
0.577,-0.0189
0.578,-0.0148
0.579,-0.0113
0.58,-0.0124
0.581,-0.0134
0.582,-0.0049
0.583,0.0007
0.584,-0.0022
0.585,-0.0013
0.586,0.0062
0.587,0.0013
0.588,0.004
0.589,-0.0035
0.59,-0.0064
0.591,-0.0018
0.592,0.0057
0.593,0.0048
0.594,0.002
0.595,0.0128
0.596,0.0084
0.597,-0.0038
0.598,-0.0055
0.599,-0.0011
0.6,0.0002
0.601,-0.0009
0.602,0.0093
0.603,0.0026
0.604,-0.0059
0.605,0.0112
0.606,-0.0009
0.607,0.0013
0.608,-0.0007
0.609,-0.0026
0.61,-0.0042
0.611,-0.0027
0.612,-0.0037
0.613,0.0031
0.614,-0.0053
0.615,-0.002
0.616,0.0132
0.617,0.0331
0.618,0.009
0.619,-0.0005
0.62,0.0262
0.621,0.0297
0.622,0.0328
0.623,0.024
0.624,0.0427
0.625,0.0159
0.626,-0.0163
0.627,-0.0205
0.628,-0.0243
0.629,-0.0209
0.63,-0.024
0.631,-0.0269
0.632,-0.0295
0.633,-0.0174
0.634,-0.024
0.635,-0.0099
0.636,-0.0007
0.637,-0.0057
0.638,0.0018
0.639,-0.0104
0.64,-0.0121
0.641,-0.0046
0.642,0.0049
0.643,0.0134
0.644,0.0009
0.645,-0.004
0.646,-0.0026
0.647,0.0042
0.648,0.0031
0.649,0.0042
0.65,0.0154
0.651,0.0079
0.652,0.0039
0.653,0.015
0.654,0.0075
0.655,0.0062
0.656,0.0097
0.657,-0.0027
0.658,-0.0011
0.659,0.0004
0.66,-0.0009
0.661,-0.0044
0.662,-0.0033
0.663,0.0015
0.664,-0.0015
0.665,0.0125
0.666,0.0346
0.667,0.0258
0.668,0.0445
0.669,0.0469
0.67,0.0137
0.671,-0.0101
0.672,-0.0229
0.673,-0.0267
0.674,-0.0232
0.675,-0.0201
0.676,-0.0172
0.677,-0.0146
0.678,-0.0267
0.679,-0.0201
0.68,-0.0141
0.681,-0.0123
0.682,-0.0007
0.683,-0.0082
0.684,0.0013
0.685,-0.0048
0.686,-0.0037
0.687,-0.0007
0.688,0.0114
0.689,0.0097
0.69,0.0053
0.691,-0.0015
0.692,0.007
0.693,0.0037
0.694,-0.0013
0.695,0.0033
0.696,-0.0007
0.697,-0.0015
0.698,0.0088
0.699,0.0103
0.7,0.0035
0.701,0.0046
0.702,-0.0057
0.703,0.0093
0.704,0.0033
0.705,0.0015
0.706,-0.0002
0.707,0.0042
0.708,0.0029
0.709,0.0018
0.71,0.0007
0.711,-0.0002
0.712,0.0007
0.713,0.0048
0.714,-0.0088
0.715,-0.0049
0.716,0.0053
0.717,0.0249
0.718,0.0491
0.719,0.0396
0.72,0.0009
0.721,-0.0146
0.722,-0.0099
0.723,-0.0141
0.724,-0.0179
0.725,-0.0214
0.726,-0.0245
0.727,-0.0038
0.728,-0.0117
0.729,-0.0286
0.73,-0.0086
0.731,-0.0007
0.732,0.0017
0.733,-0.0093
0.734,-0.0154
0.735,-0.0026
0.736,-0.0009
0.737,-0.0024
0.738,-0.0064
0.739,0.0048
0.74,0.0062
0.741,-0.0005
0.742,0.0006
0.743,0.0039
0.744,0.0009
0.745,0.0073
0.746,-0.0051
0.747,-0.0033
0.748,-0.0016
0.749,-0.0002
0.75,-0.0042
0.751,0.0018
0.752,-0.0015
0.753,-0.0005
0.754,-0.0033
0.755,0.0092
0.756,0.0073
0.757,0.0123
0.758,0.0108
0.759,-0.0015
0.76,-0.0031
0.761,0.0013
0.762,-0.011
0.763,-0.0027
0.764,-0.0042
0.765,0.0088
0.766,0.0101
0.767,-0.0011
0.768,0.0214
0.769,0.0245
0.77,0.0216
0.771,0.035
0.772,0.0471
0.773,0.0183
0.774,-0.0251
0.775,-0.0308
0.776,-0.0256
0.777,-0.0304
0.778,-0.0346
0.779,-0.0229
0.78,-0.0194
0.781,-0.0225
0.782,-0.0137
0.783,-0.0112
0.784,-0.004
0.785,-0.0018
0.786,-0.0038
0.787,-0.002
0.788,-0.0004
0.789,0.0011
0.79,0.0024
0.791,0.0013
0.792,0.007
0.793,-0.0022
0.794,0.0013
0.795,-0.0044
0.796,0.0026
0.797,0.0017
0.798,0.0125
0.799,0.0049
0.8,0.0009
0.801,0.002
0.802,0.0077
0.803,-0.0035
0.804,-0.0049
0.805,-0.0037
0.806,0.0024
0.807,0.0035
0.808,0.0026
0.809,0.0147
0.81,-0.0004
0.811,0.0017
0.812,-0.0038
0.813,0.0044
0.814,-0.0031
0.815,0.0009
0.816,0.0015
0.817,-0.002
0.818,0.015
0.819,0.0418
0.82,0.0595
0.821,0.0434
0.822,0.0108
0.823,-0.0108
0.824,-0.0225
0.825,-0.019
0.826,-0.0222
0.827,-0.0192
0.828,-0.0167
0.829,-0.019
0.83,-0.0124
0.831,-0.0145
0.832,-0.009
0.833,-0.0106
0.834,-0.015
0.835,-0.0055
0.836,-0.0066
0.837,-0.0077
0.838,0.0035
0.839,0.002
0.84,0.0088
0.841,0.0053
0.842,0.0042
0.843,-0.0049
0.844,-0.0084
0.845,-0.0005
0.846,0.0044
0.847,-0.002
0.848,-0.0013
0.849,0.004
0.85,0.0059
0.851,0.004
0.852,0.0057
0.853,0.0002
0.854,-0.0068
0.855,-0.0077
0.856,-0.0101
0.857,-0.017
0.858,-0.0291
0.859,-0.0141
0.86,-0.0201
0.861,-0.033
0.862,-0.0146
0.863,0.017
0.864,-0.022
0.865,-0.0168
0.866,-0.0026
0.867,0.0125
0.868,0.0082
0.869,0.02
0.87,0.0736
0.871,0.143
0.872,0.0963
0.873,0.0711
0.874,0.0634
0.875,0.0703
0.876,0.0515
0.877,0.0917
0.878,0.0969
0.879,0.0921
0.88,0.1311
0.881,0.1155
0.882,0.1393
0.883,0.1177
0.884,0.106
0.885,0.0738
0.886,0.0436
0.887,0.0319
0.888,0.0353
0.889,0.006
0.89,-0.0214
0.891,-0.0249
0.892,-0.0736
0.893,-0.1368
0.894,-0.1791
0.895,-0.2021
0.896,-0.223
0.897,-0.2419
0.898,-0.2706
0.899,-0.2968
0.9,-0.2825
0.901,-0.2523
0.902,-0.2168
0.903,-0.2025
0.904,-0.1897
0.905,-0.1935
0.906,-0.1686
0.907,-0.1979
0.908,-0.2018
0.909,-0.1553
0.91,-0.0725
0.911,0.0064
0.912,0.0577
0.913,0.0857
0.914,0.128
0.915,0.1511
0.916,0.158
0.917,0.1643
0.918,0.1729
0.919,0.1785
0.92,0.1941
0.921,0.2274
0.922,0.2316
0.923,0.2042
0.924,0.1577
0.925,0.1388
0.926,0.1101
0.927,0.1049
0.928,0.0906
0.929,0.069
0.93,0.0652
0.931,0.0474
0.932,0.0443
0.933,0.0414
0.934,0.028
0.935,0.0159
0.936,0.0049
0.937,0.0029
0.938,0.0011
0.939,0.0093
0.94,-0.0042
0.941,-0.0097
0.942,-0.0081
0.943,-0.0185
0.944,-0.0062
0.945,0.002
0.946,-0.0115
0.947,-0.017
0.948,-0.0088
0.949,-0.0073
0.95,-0.0141
0.951,-0.0057
0.952,-0.0181
0.953,-0.0099
0.954,-0.0084
0.955,-0.0124
0.956,-0.0209
0.957,-0.0152
0.958,-0.0284
0.959,-0.0302
0.96,-0.0086
0.961,-0.0174
0.962,-0.0148
0.963,-0.0172
0.964,-0.015
0.965,-0.013
0.966,-0.0185
0.967,-0.0135
0.968,-0.024
0.969,-0.0059
0.97,-0.0181
0.971,0.0035
0.972,0.0123
0.973,0.0256
0.974,0.0233
0.975,0.0167
0.976,0.0308
0.977,0.0143
0.978,-0.0101
0.979,-0.0326
0.98,-0.0414
0.981,-0.0335
0.982,-0.0359
0.983,-0.0249
0.984,-0.0229
0.985,-0.0284
0.986,-0.0234
0.987,-0.0278
0.988,-0.0073
0.989,-0.0222
0.99,-0.0196
0.991,-0.0124
0.992,-0.0059
0.993,-0.0119
0.994,-0.0137
0.995,-0.0088
0.996,-0.0044
0.997,-0.0004
0.998,0.0007
0.999,-0.0026
1,-0.0035
1.001,0.0011
1.002,0.0004
1.003,0.0073
1.004,0.0046
1.005,0.0006
1.006,-0.0033
1.007,-0.0108
1.008,0.0044
1.009,-0.0022
1.01,0.0079
1.011,0.006
1.012,0.0011
1.013,-0.0004
1.014,0.0037
1.015,-0.0048
1.016,0.0009
1.017,-0.004
1.018,0.0062
1.019,0.0049
1.02,0.0044
1.021,0.0104
1.022,0.0002
1.023,0.0207
1.024,0.0355
1.025,0.033
1.026,0.0258
1.027,0.0458
1.028,0.0483
1.029,0.0119
1.03,-0.0143
1.031,-0.0286
1.032,-0.0328
1.033,-0.0445
1.034,-0.0267
1.035,-0.0298
1.036,-0.0269
1.037,-0.0082
1.038,-0.0251
1.039,-0.0185
1.04,-0.0044
1.041,-0.0099
1.042,-0.0049
1.043,-0.0064
1.044,-0.0051
1.045,0.0009
1.046,-0.0002
1.047,-0.0051
1.048,-0.0005
1.049,0.0018
1.05,0.0134
1.051,0.0018
1.052,0.0154
1.053,0.0062
1.054,0.0013
1.055,0.0057
1.056,0.007
1.057,0.0035
1.058,0.0092
1.059,0.0022
1.06,0.0031
1.061,0.0007
1.062,0.0108
1.063,0.0068
1.064,0.0079
1.065,0.0022
1.066,-0.0027
1.067,0.0037
1.068,-0.002
1.069,-0.0013
1.07,-0.0075
1.071,0.0139
1.072,0.0015
1.073,0.0216
1.074,0.0458
1.075,0.0427
1.076,0.0456
1.077,0.0322
1.078,-0.0042
1.079,-0.0093
1.08,-0.0141
1.081,-0.0183
1.082,-0.0145
1.083,-0.0179
1.084,-0.0148
1.085,-0.0178
1.086,-0.0152
1.087,-0.0176
1.088,-0.011
1.089,-0.009
1.09,0.0002
1.091,-0.0113
1.092,-0.0009
1.093,-0.0049
1.094,0.0011
1.095,-0.0113
1.096,0.0002
1.097,-0.0042
1.098,-0.0002
1.099,-0.0062
1.1,0.0017
1.101,0.0046
1.102,0.0055
1.103,0.0015
1.104,-0.0007
1.105,0.0055
1.106,0.0062
1.107,0.0009
1.108,0.0112
1.109,0.0216
1.11,0.0066
1.111,0.0006
1.112,0.0024
1.113,-0.0059
1.114,-0.0163
1.115,0.0042
1.116,-0.0046
1.117,-0.002
1.118,-0.0044
1.119,0.0066
1.12,-0.0115
1.121,-0.0044
1.122,-0.0029
1.123,0.0125
1.124,0.0104
1.125,0.0159
1.126,0.0408
1.127,0.0443
1.128,0.015
1.129,-0.0124
1.13,-0.0159
1.131,-0.019
1.132,-0.0102
1.133,-0.0181
1.134,-0.0157
1.135,-0.0135
1.136,-0.0075
1.137,-0.0057
1.138,-0.0139
1.139,-0.0095
1.14,-0.0108
1.141,-0.0097
1.142,-0.0064
1.143,-0.0015
1.144,-0.0135
1.145,-0.002
1.146,0.0024
1.147,0.0064
1.148,0.0004
1.149,0.006
1.15,-0.0051
1.151,-0.0007
1.152,0.006
1.153,0.0145
1.154,-0.0004
1.155,-0.0024
1.156,-0.0005
1.157,-0.0022
1.158,0.0022
1.159,0.0062
1.16,0.0028
1.161,-0.0029
1.162,0.0123
1.163,0.0101
1.164,-0.004
1.165,0.0015
1.166,-0.0002
1.167,0.0013
1.168,0.0026
1.169,0.0037
1.17,-0.0042
1.171,-0.0033
1.172,-0.0005
1.173,-0.0066
1.174,-0.0106
1.175,0.0009
1.176,0.0258
1.177,0.0507
1.178,0.0346
1.179,0.002
1.18,-0.0108
1.181,-0.0225
1.182,-0.026
1.183,-0.0229
1.184,-0.0141
1.185,-0.0167
1.186,-0.019
1.187,-0.0124
1.188,-0.0104
1.189,-0.0159
1.19,-0.0044
1.191,-0.0059
1.192,-0.0018
1.193,-0.0007
1.194,-0.0156
1.195,-0.0055
1.196,-0.0037
1.197,0.0046
1.198,-0.0029
1.199,0.0011
1.2,-0.0024
1.201,-0.0035
1.202,-0.0026
1.203,0.0039
1.204,0.013
1.205,-0.0055
1.206,-0.0029
1.207,-0.0005
1.208,0.0017
1.209,-0.0004
1.21,0.0088
1.211,0.0039
1.212,-0.0066
1.213,0.0057
1.214,-0.0026
1.215,0.0049
1.216,0.0009
1.217,0.007
1.218,0.0081
1.219,0.0051
1.22,-0.007
1.221,0.0046
1.222,0.0031
1.223,-0.0064
1.224,0.0015
1.225,0.0099
1.226,0.011
1.227,0.0262
1.228,0.0549
1.229,0.0353
1.23,0.0031
1.231,-0.0097
1.232,-0.0135
1.233,-0.017
1.234,-0.0201
1.235,-0.0113
1.236,-0.0192
1.237,-0.0168
1.238,-0.0059
1.239,-0.0079
1.24,-0.0097
1.241,-0.0146
1.242,-0.0102
1.243,-0.0035
1.244,0.0049
1.245,0.0017
1.246,-0.0075
1.247,0.011
1.248,0.0084
1.249,0.0205
1.25,-0.0038
1.251,0.0057
1.252,0.0086
1.253,0.006
1.254,0.0037
1.255,-0.0073
1.256,-0.0053
1.257,0.0002
1.258,0.0018
1.259,-0.0057
1.26,-0.0016
1.261,-0.0005
1.262,-0.0016
1.263,-0.0007
1.264,0.0002
1.265,-0.0005
1.266,0.0048
1.267,-0.0055
1.268,-0.004
1.269,-0.0027
1.27,-0.0038
1.271,0.0018
1.272,-0.0073
1.273,-0.0013
1.274,0.002
1.275,0.0059
1.276,0.0049
1.277,0.0004
1.278,0.0128
1.279,0.033
1.28,0.0355
1.281,0.0379
1.282,0.0179
1.283,0.0313
1.284,0.0145
1.285,0.0255
1.286,0.0275
1.287,0
1.288,-0.0275
1.289,-0.0524
1.29,-0.0428
1.291,-0.0399
1.292,-0.0425
1.293,-0.0304
1.294,-0.0238
1.295,-0.0178
1.296,-0.0196
1.297,-0.0113
1.298,-0.007
1.299,-0.011
1.3,-0.0145
1.301,-0.0088
1.302,0.0044
1.303,0.0062
1.304,-0.0088
1.305,-0.0068
1.306,0.006
1.307,0.0044
1.308,0.0088
1.309,0.0128
1.31,0.0044
1.311,-0.0013
1.312,0.0079
1.313,0.0114
1.314,0.0125
1.315,0.0115
1.316,-0.0005
1.317,0.0077
1.318,0.0033
1.319,-0.0007
1.32,0.0128
1.321,0.0037
1.322,-0.0013
1.323,-0.0027
1.324,-0.0123
1.325,0.0039
1.326,-0.0015
1.327,-0.0081
1.328,0.0101
1.329,0.032
1.33,0.035
1.331,0.0429
1.332,0.0549
1.333,0.035
1.334,-0.0053
1.335,-0.0225
1.336,-0.0276
1.337,-0.0134
1.338,-0.0176
1.339,-0.0293
1.34,-0.0258
1.341,-0.0163
1.342,-0.0251
1.343,-0.0172
1.344,-0.0101
1.345,-0.0167
1.346,-0.0106
1.347,0.0059
1.348,-0.0007
1.349,-0.0148
1.35,-0.002
1.351,0.0029
1.352,0.0073
1.353,0.0006
1.354,0.019
1.355,0.0216
1.356,-0.0004
1.357,-0.0033
1.358,0.0046
1.359,-0.0123
1.36,0.0121
1.361,-0.004
1.362,-0.0128
1.363,0.0006
1.364,-0.0018
1.365,-0.004
1.366,-0.002
1.367,-0.0038
1.368,-0.0022
1.369,0.0022
1.37,-0.0018
1.371,0.0017
1.372,0.0028
1.373,0.0037
1.374,0.0101
1.375,-0.0007
1.376,0.0007
1.377,0.0037
1.378,0.0049
1.379,0.0211
1.38,0.032
1.381,0.0421
1.382,0.033
1.383,0.0412
1.384,0.0397
1.385,0.0192
1.386,-0.0253
1.387,-0.0315
1.388,-0.0258
1.389,-0.0309
1.39,-0.0262
1.391,-0.0304
1.392,-0.0187
1.393,-0.0222
1.394,-0.0253
1.395,-0.0104
1.396,-0.0026
1.397,-0.0002
1.398,-0.0024
1.399,-0.0084
1.4,-0.0066
1.401,-0.0016
1.402,0.0028
1.403,0.0015
1.404,0.0026
1.405,0.0082
1.406,0.0013
1.407,-0.0015
1.408,0.0042
1.409,0.0049
1.41,0.0125
1.411,-0.0027
1.412,-0.0005
1.413,0.0015
1.414,0.0033
1.415,-0.0016
1.416,0.0059
1.417,0.0046
1.418,0.0081
1.419,-0.0022
1.42,-0.0009
1.421,0.0051
1.422,-0.0005
1.423,-0.0075
1.424,-0.0029
1.425,0.0062
1.426,0.0051
1.427,-0.0027
1.428,0.0044
1.429,0.0035
1.43,0.0156
1.431,0.0372
1.432,0.0284
1.433,0.0471
1.434,0.0399
1.435,0.0112
1.436,-0.0163
1.437,-0.0128
1.438,-0.0223
1.439,-0.0253
1.44,-0.0227
1.441,-0.0156
1.442,-0.0178
1.443,-0.0117
1.444,-0.0209
1.445,-0.0192
1.446,-0.0027
1.447,-0.0049
1.448,-0.011
1.449,-0.0092
1.45,0.0024
1.451,0.0068
1.452,0.019
1.453,-0.0026
1.454,-0.0055
1.455,-0.0134
1.456,0.0183
1.457,0.0055
1.458,0.0093
1.459,-0.0013
1.46,0.0018
1.461,0.0106
1.462,0.0081
1.463,-0.004
1.464,-0.0018
1.465,0.0082
1.466,0.0028
1.467,0.0044
1.468,-0.006
1.469,-0.002
1.47,0.004
1.471,-0.0038
1.472,0.0031
1.473,0.004
1.474,0
1.475,-0.0022
1.476,-0.0004
1.477,-0.0009
1.478,-0.0015
1.479,0.0154
1.48,0.0079
1.481,0.0249
1.482,0.032
1.483,0.0652
1.484,0.0319
1.485,-0.0071
1.486,-0.0123
1.487,-0.0075
1.488,-0.0203
1.489,-0.0242
1.49,-0.0207
1.491,-0.0176
1.492,-0.0088
1.493,-0.0167
1.494,-0.019
1.495,-0.0124
1.496,-0.0024
1.497,-0.0189
1.498,-0.0035
1.499,-0.0015
1.5,-0.0033
1.501,-0.0016
1.502,0.0059
1.503,0.0126
1.504,-0.0009
1.505,-0.0027
1.506,0.0022
1.507,0.0037
1.508,0.0024
1.509,-0.0011
1.51,0.0022
1.511,0.0051
1.512,0.0006
1.513,0.0046
1.514,-0.0007
1.515,-0.0097
1.516,-0.0037
1.517,-0.0004
1.518,0.0006
1.519,0.0051
1.52,-0.0005
1.521,0.0064
1.522,0.0018
1.523,0.0126
1.524,0.0141
1.525,-0.0064
1.526,-0.0035
1.527,-0.006
1.528,0.006
1.529,0.0039
1.53,-0.0044
1.531,0.0057
1.532,0.0185
1.533,0.0335
1.534,0.0436
1.535,0.0491
1.536,0.0242
1.537,-0.0081
1.538,-0.0123
1.539,-0.024
1.54,-0.0275
1.541,-0.0243
1.542,-0.0214
1.543,-0.0135
1.544,-0.0112
1.545,-0.0046
1.546,-0.0187
1.547,-0.0095
1.548,-0.0145
1.549,-0.0101
1.55,-0.0033
1.551,-0.0022
1.552,-0.0033
1.553,-0.0004
1.554,0.0006
1.555,-0.0002
1.556,0.0006
1.557,-0.0013
1.558,0.0044
1.559,-0.0026
1.56,0.002
1.561,-0.0088
1.562,0.0017
1.563,0.0084
1.564,0.0095
1.565,0.0152
1.566,0
1.567,0.0066
1.568,-0.0035
1.569,0.002
1.57,-0.0095
1.571,-0.0051
1.572,-0.0011
1.573,0.0024
1.574,0.0013
1.575,0.0042
1.576,-0.006
1.577,0.0035
1.578,0
1.579,0.0033
1.58,0.0004
1.581,-0.0037
1.582,0.0028
1.583,-0.0013
1.584,0.0103
1.585,0.0352
1.586,0.0529
1.587,0.0368
1.588,-0.0018
1.589,-0.028
1.59,-0.0232
1.591,-0.019
1.592,-0.0152
1.593,-0.0187
1.594,-0.0218
1.595,-0.0189
1.596,-0.011
1.597,-0.0134
1.598,-0.0156
1.599,0.0066
1.6,0.0273
1.601,0.0086
1.602,-0.0134
1.603,-0.0104
1.604,0.0029
1.605,-0.0092
1.606,-0.0026
1.607,-0.0126
1.608,0.0002
1.609,0.0018
1.61,-0.0057
1.611,-0.0016
1.612,-0.0101
1.613,0.0002
1.614,-0.0038
1.615,-0.0004
1.616,0.0053
1.617,-0.0038
1.618,0.0097
1.619,0.0006
1.62,-0.0011
1.621,0.0064
1.622,0.0077
1.623,0.0042
1.624,0.0009
1.625,-0.002
1.626,0.0007
1.627,0.0064
1.628,0.0011
1.629,0.0057
1.63,0.0026
1.631,0.0064
1.632,0.0139
1.633,0.0064
1.634,0.0053
1.635,0.0205
1.636,0.0359
1.637,0.0379
1.638,0.058
1.639,0.0178
1.64,-0.011
1.641,-0.0161
1.642,-0.0209
1.643,-0.0251
1.644,-0.0289
1.645,-0.0183
1.646,-0.0152
1.647,-0.0181
1.648,-0.0156
1.649,-0.0132
1.65,-0.011
1.651,-0.013
1.652,-0.0075
1.653,-0.0124
1.654,-0.0081
1.655,-0.0013
1.656,-0.0097
1.657,-0.004
1.658,-0.0049
1.659,-0.0022
1.66,-0.0015
1.661,-0.0022
1.662,0.0024
1.663,0.0106
1.664,0.0209
1.665,0.0249
1.666,0.0064
1.667,0.0039
1.668,0.0015
1.669,0.0037
1.67,0.0097
1.671,0.0042
1.672,-0.004
1.673,-0.0026
1.674,-0.0013
1.675,-0.0024
1.676,-0.0013
1.677,0.0057
1.678,0.0048
1.679,-0.0077
1.68,-0.0059
1.681,0.0024
1.682,0.0068
1.683,-0.0102
1.684,-0.0035
1.685,0.0101
1.686,0.0375
1.687,0.0258
1.688,0.0507
1.689,0.0412
1.69,0.0026
1.691,-0.013
1.692,-0.0178
1.693,-0.0135
1.694,-0.0253
1.695,-0.0287
1.696,-0.0192
1.697,-0.0163
1.698,-0.0137
1.699,-0.0113
1.7,-0.0135
1.701,-0.0075
1.702,-0.002
1.703,-0.017
1.704,0.0011
1.705,-0.006
1.706,-0.0038
1.707,0.0062
1.708,0.0044
1.709,-0.0038
1.71,-0.0053
1.711,-0.0093
1.712,-0.0009
1.713,0.007
1.714,0.0099
1.715,0.0035
1.716,0.0028
1.717,0.0049
1.718,0.0068
1.719,0.0112
1.72,0.0049
1.721,0.0042
1.722,0.0035
1.723,-0.004
1.724,0.0009
1.725,-0.0055
1.726,0.0002
1.727,-0.002
1.728,0.0026
1.729,0.0121
1.73,-0.0084
1.731,0.0064
1.732,-0.007
1.733,0.0051
1.734,0.0066
1.735,0
1.736,0.0181
1.737,0.0498
1.738,0.037
1.739,0.0331
1.74,-0.0062
1.741,-0.0113
1.742,-0.0161
1.743,-0.0119
1.744,-0.0157
1.745,-0.0123
1.746,-0.0154
1.747,-0.0302
1.748,-0.0115
1.749,-0.0092
1.75,-0.0113
1.751,-0.0053
1.752,0.0002
1.753,-0.0015
1.754,-0.0059
1.755,-0.0046
1.756,-0.0011
1.757,0.0068
1.758,-0.0044
1.759,0.0031
1.76,-0.0037
1.761,0.0075
1.762,0
1.763,0.004
1.764,-0.002
1.765,0.0013
1.766,0.0125
1.767,0.011
1.768,-0.0013
1.769,0.007
1.77,0.0026
1.771,0.0093
1.772,0.0009
1.773,0.0066
1.774,0.0017
1.775,0.0044
1.776,-0.0081
1.777,-0.0135
1.778,-0.002
1.779,-0.0035
1.78,-0.0022
1.781,-0.0057
1.782,-0.0046
1.783,-0.0115
1.784,0.0024
1.785,0.0029
1.786,-0.0071
1.787,0.013
1.788,0.0317
1.789,0.0634
1.79,0.0244
1.791,-0.0018
1.792,0.0029
1.793,-0.0187
1.794,-0.0225
1.795,-0.019
1.796,-0.0222
1.797,-0.0134
1.798,-0.0108
1.799,-0.0084
1.8,-0.015
1.801,-0.013
1.802,0.0035
1.803,-0.0075
1.804,-0.0055
1.805,0
1.806,0.0115
1.807,-0.0081
1.808,-0.0055
1.809,0.0066
1.81,-0.0044
1.811,-0.0064
1.812,-0.0009
1.813,-0.0026
1.814,-0.007
1.815,-0.0002
1.816,0.0059
1.817,0.007
1.818,0.002
1.819,-0.0007
1.82,0.0068
1.821,-0.0024
1.822,-0.0013
1.823,0.002
1.824,0.0011
1.825,0.0095
1.826,0.0062
1.827,0.0053
1.828,0.0007
1.829,0
1.83,-0.0038
1.831,-0.0044
1.832,0.0051
1.833,-0.0016
1.834,0.0044
1.835,-0.0013
1.836,0.0037
1.837,0.0007
1.838,-0.0002
1.839,0.0006
1.84,0.0013
1.841,-0.0033
1.842,-0.0015
1.843,-0.002
1.844,-0.0033
1.845,0.0037
1.846,0.0189
1.847,0.0035
1.848,0.0015
1.849,0.0143
1.85,0.0293
1.851,0.0474
1.852,0.045
1.853,0.0163
1.854,-0.0112
1.855,-0.0289
1.856,-0.032
1.857,-0.035
1.858,-0.0271
1.859,-0.0247
1.86,-0.0181
1.861,-0.0322
1.862,-0.0304
1.863,-0.0121
1.864,-0.0049
1.865,-0.0071
1.866,-0.0092
1.867,0
1.868,0.0017
1.869,-0.0119
1.87,-0.0174
1.871,0.0042
1.872,-0.0046
1.873,-0.0071
1.874,-0.0143
1.875,-0.0121
1.876,-0.0181
1.877,-0.02
1.878,-0.0249
1.879,-0.0293
1.88,-0.0088
1.881,-0.0176
1.882,-0.0097
1.883,-0.0073
1.884,0.017
1.885,0.0139
1.886,0.0169
1.887,0.0249
1.888,0.0491
1.889,0.0784
1.89,0.098
1.891,0.1086
1.892,0.1443
1.893,0.1013
1.894,0.061
1.895,0.0661
1.896,0.0613
1.897,0.0742
1.898,0.0938
1.899,0.0972
1.9,0.0811
1.901,0.0723
1.902,0.059
1.903,0.0711
1.904,0.0864
1.905,0.0602
1.906,0.0353
1.907,0.006
1.908,0.0022
1.909,-0.0227
1.91,-0.0584
1.911,-0.111
1.912,-0.188
1.913,-0.1983
1.914,-0.2263
1.915,-0.2347
1.916,-0.2424
1.917,-0.2355
1.918,-0.2166
1.919,-0.1994
1.92,-0.1943
1.921,-0.18
1.922,-0.1498
1.923,-0.1615
1.924,-0.1509
1.925,-0.154
1.926,-0.1628
1.927,-0.1225
1.928,-0.0359
1.929,0.0264
1.93,0.0375
1.931,0.0683
1.932,0.0963
1.933,0.1216
1.934,0.1293
1.935,0.1223
1.936,0.1285
1.937,0.1229
1.938,0.1282
1.939,0.1333
1.94,0.1571
1.941,0.1787
1.942,0.1749
1.943,0.1783
1.944,0.1558
1.945,0.1232
1.946,0.0842
1.947,0.058
1.948,0.0533
1.949,0.0405
1.95,0.0209
1.951,0.0174
1.952,0.0143
1.953,0.0055
1.954,0.0029
1.955,-0.0042
1.956,-0.002
1.957,-0.0121
1.958,-0.0139
1.959,-0.0156
1.96,-0.017
1.961,-0.0157
1.962,-0.0192
1.963,-0.0113
1.964,-0.0064
1.965,-0.0128
1.966,-0.0121
1.967,-0.019
1.968,-0.0106
1.969,-0.0095
1.97,-0.0066
1.971,-0.013
1.972,-0.009
1.973,-0.0068
1.974,-0.0157
1.975,-0.0073
1.976,-0.0084
1.977,-0.0093
1.978,-0.0139
1.979,-0.0132
1.98,-0.011
1.981,-0.002
1.982,-0.0156
1.983,-0.0101
1.984,-0.0084
1.985,-0.007
1.986,-0.0057
1.987,-0.0141
1.988,-0.0152
1.989,-0.0154
1.99,-0.0042
1.991,0.0093
1.992,0.0331
1.993,0.0236
1.994,0.0443
1.995,0.0256
1.996,-0.0108
1.997,-0.0264
1.998,-0.0311
1.999,-0.0183
2,-0.03
2.001,-0.0265
2.002,-0.0297
2.003,-0.0267
2.004,-0.0134
2.005,-0.011
2.006,-0.0088
2.007,-0.0108
2.008,-0.0126
2.009,-0.0077
2.01,-0.0062
2.011,-0.0049
2.012,-0.0161
2.013,-0.0026
2.014,-0.0044
2.015,-0.0159
2.016,-0.0024
2.017,0.0068
2.018,-0.0015
2.019,0.0029
2.02,-0.0093
2.021,0.009
2.022,0.0066
2.023,-0.0044
2.024,0.0057
2.025,0.0002
2.026,0.0018
2.027,0.0004
2.028,0.0017
2.029,0.0006
2.03,0.0039
2.031,-0.0011
2.032,0.0017
2.033,0.004
2.034,0.0002
2.035,0.0064
2.036,0.004
2.037,-0.0029
2.038,0.0035
2.039,0.0042
2.04,0.0037
2.041,0.0015
2.042,0.0048
2.043,0.0143
2.044,0.0348
2.045,0.0496
2.046,0.0363
2.047,0.0046
2.048,-0.017
2.049,-0.0132
2.05,-0.0238
2.051,-0.0143
2.052,-0.0113
2.053,-0.0247
2.054,-0.0126
2.055,-0.0148
2.056,-0.0128
2.057,-0.011
2.058,-0.006
2.059,-0.0135
2.06,-0.0095
2.061,-0.0011
2.062,-0.0068
2.063,-0.0038
2.064,0.0007
2.065,0.0015
2.066,0.0115
2.067,0.0103
2.068,-0.0082
2.069,-0.0004
2.07,-0.0027
2.071,-0.0049
2.072,0.0092
2.073,0.0037
2.074,0.002
2.075,0.0006
2.076,0.0018
2.077,0.0053
2.078,0.002
2.079,0.0011
2.08,-0.0016
2.081,-0.0024
2.082,0.0046
2.083,0.0037
2.084,0.006
2.085,0.0007
2.086,0.0002
2.087,-0.0004
2.088,-0.0009
2.089,0.0066
2.09,0.0055
2.091,0.0264
2.092,0.0112
2.093,-0.0088
2.094,-0.0009
2.095,-0.0081
2.096,-0.0102
2.097,0.02
2.098,0.0416
2.099,0.0299
2.1,0.0264
2.101,-0.0093
2.102,-0.0236
2.103,-0.0278
2.104,-0.024
2.105,-0.0205
2.106,-0.0236
2.107,-0.0148
2.108,-0.0227
2.109,-0.0059
2.11,-0.0081
2.111,-0.0141
2.112,-0.0086
2.113,-0.0004
2.114,-0.0018
2.115,0.0049
2.116,-0.0062
2.117,0.0013
2.118,0
2.119,0.0084
2.12,-0.004
2.121,0.0009
2.122,-0.0066
2.123,0.0002
2.124,-0.0009
2.125,0.0048
2.126,0.0077
2.127,-0.0007
2.128,0.0026
2.129,0.0075
2.13,-0.0046
2.131,0.0004
2.132,-0.004
2.133,0.0028
2.134,0.0017
2.135,0.0073
2.136,0.0044
2.137,0.0053
2.138,-0.0071
2.139,-0.0016
2.14,0.0033
2.141,0.0077
2.142,0.0022
2.143,0.0009
2.144,0.0093
2.145,0.0264
2.146,0.058
2.147,0.0452
2.148,0.0018
2.149,-0.0154
2.15,-0.0102
2.151,-0.015
2.152,-0.0192
2.153,-0.0154
2.154,-0.0189
2.155,-0.0027
2.156,-0.0176
2.157,-0.0201
2.158,-0.0081
2.159,-0.0059
2.16,0.0002
2.161,-0.009
2.162,-0.004
2.163,-0.0084
2.164,0.0066
2.165,-0.0075
2.166,-0.002
2.167,-0.0004
2.168,0.004
2.169,-0.0027
2.17,0.0057
2.171,0.0024
2.172,0.0015
2.173,-0.0031
2.174,-0.0055
2.175,0.0015
2.176,0.0042
2.177,-0.0015
2.178,0.0024
2.179,0.0018
2.18,0.0049
2.181,0.0033
2.182,0.0046
2.183,0.0106
2.184,-0.0018
2.185,0.0037
2.186,0.002
2.187,0.0006
2.188,-0.0007
2.189,0.0028
2.19,0.006
2.191,0.0031
2.192,0.0059
2.193,0
2.194,-0.0057
2.195,0.0059
2.196,0.0308
2.197,0.0059
2.198,0.0546
2.199,0.0476
2.2,0.0159
2.201,-0.0128
2.202,-0.0179
2.203,-0.0227
2.204,-0.0269
2.205,-0.0308
2.206,-0.0273
2.207,-0.0242
2.208,-0.033
2.209,-0.0196
2.21,-0.0124
2.211,-0.0059
2.212,-0.0079
2.213,-0.0134
2.214,-0.0084
2.215,-0.004
2.216,-0.0053
2.217,-0.0018
2.218,0.0015
2.219,0.0024
2.22,-0.0022
2.221,0.0035
2.222,0.0028
2.223,0.0033
2.224,0.009
2.225,-0.0026
2.226,0.0024
2.227,0.0099
2.228,-0.0024
2.229,0.0126
2.23,-0.0095
2.231,0.0112
2.232,-0.0022
2.233,-0.0046
2.234,-0.0024
2.235,0.0037
2.236,0.0055
2.237,-0.006
2.238,-0.0016
2.239,-0.0004
2.24,0.0031
2.241,0.0064
2.242,0.0015
2.243,0.0042
2.244,0.0059
2.245,0.0018
2.246,0.0134
2.247,0.0317
2.248,0.0388
2.249,0.0588
2.25,0.0346
2.251,0.0185
2.252,-0.0201
2.253,-0.0253
2.254,-0.0205
2.255,-0.0247
2.256,-0.0286
2.257,-0.0179
2.258,-0.0275
2.259,-0.0187
2.26,-0.0053
2.261,-0.0174
2.262,-0.0064
2.263,-0.0124
2.264,-0.0106
2.265,-0.0024
2.266,-0.0009
2.267,-0.0049
2.268,-0.0015
2.269,0.0018
2.27,0.0048
2.271,0.002
2.272,0.0044
2.273,0.0114
2.274,-0.0026
2.275,-0.0126
2.276,0.0148
2.277,0.0031
2.278,0.0066
2.279,0.0035
2.28,0.0064
2.281,-0.0015
2.282,-0.0038
2.283,0.0028
2.284,-0.0033
2.285,-0.0015
2.286,0.0035
2.287,0.0079
2.288,0.0119
2.289,-0.0042
2.29,0.0068
2.291,0.0007
2.292,-0.0084
2.293,-0.0068
2.294,0.0037
2.295,0.0022
2.296,-0.0101
2.297,0.0115
2.298,0.0383
2.299,0.056
2.3,0.0267
2.301,-0.0167
2.302,-0.011
2.303,-0.0161
2.304,-0.0209
2.305,-0.0167
2.306,-0.0049
2.307,-0.0156
2.308,-0.0187
2.309,-0.0099
2.31,-0.0073
2.311,-0.0097
2.312,-0.0031
2.313,-0.0051
2.314,0.0004
2.315,-0.0079
2.316,-0.0004
2.317,0.0009
2.318,0.002
2.319,-0.0037
2.32,-0.0007
2.321,-0.0016
2.322,0.0059
2.323,0.0009
2.324,-0.0055
2.325,-0.0031
2.326,0.0022
2.327,0.0055
2.328,0.0037
2.329,0.0009
2.33,0.0084
2.331,-0.0086
2.332,-0.0015
2.333,0.0007
2.334,0.0028
2.335,0.0046
2.336,0.0029
2.337,0.0255
2.338,0.0286
2.339,0.0018
2.34,-0.0016
2.341,-0.0048
2.342,-0.0018
2.343,0.0007
2.344,-0.0016
2.345,-0.0038
2.346,-0.0095
2.347,-0.0075
2.348,0.009
2.349,0.0244
2.35,0.0385
2.351,0.0293
2.352,0.0277
2.353,0.0233
2.354,0.0438
2.355,0.017
2.356,-0.0079
2.357,-0.024
2.358,-0.0328
2.359,-0.0353
2.36,-0.033
2.361,-0.0264
2.362,-0.0324
2.363,-0.0232
2.364,-0.0183
2.365,-0.0198
2.366,-0.0075
2.367,-0.0124
2.368,0.0011
2.369,-0.0154
2.37,0.0134
2.371,-0.0062
2.372,0.0044
2.373,0.0075
2.374,-0.0013
2.375,-0.0092
2.376,0.0077
2.377,0.0055
2.378,0.0035
2.379,0.0017
2.38,0.0132
2.381,-0.0033
2.382,0.0033
2.383,0.0134
2.384,0.0079
2.385,0.0029
2.386,0.0044
2.387,-0.0106
2.388,0.0115
2.389,-0.0092
2.39,0.0042
2.391,0.0018
2.392,0.004
2.393,-0.002
2.394,0.0035
2.395,0.0051
2.396,0.0037
2.397,0
2.398,0.0013
2.399,0.0097
2.4,0.0267
2.401,0.0339
2.402,0.0449
2.403,0.0267
2.404,0.0244
2.405,0.0397
2.406,0.0095
2.407,-0.0121
2.408,-0.0238
2.409,-0.0273
2.41,-0.0368
2.411,-0.0339
2.412,-0.0364
2.413,-0.0243
2.414,-0.0265
2.415,-0.0205
2.416,-0.0187
2.417,-0.0137
2.418,-0.0093
2.419,-0.0106
2.42,-0.0071
2.421,-0.006
2.422,0.0051
2.423,0.0007
2.424,-0.0115
2.425,-0.0033
2.426,0.0103
2.427,0.0048
2.428,-0.0002
2.429,0.0103
2.43,0.0115
2.431,0.0031
2.432,-0.0002
2.433,0.0068
2.434,0.0059
2.435,0.0051
2.436,0.0029
2.437,0.0075
2.438,0.007
2.439,-0.0015
2.44,0.0046
2.441,0.0035
2.442,0.0064
2.443,0
2.444,0.0057
2.445,-0.0013
2.446,0.0015
2.447,0.0039
2.448,0.0037
2.449,0.0015
2.45,0.0117
2.451,0.0222
2.452,0.0427
2.453,0.022
2.454,-0.0022
2.455,-0.0183
2.456,-0.0212
2.457,-0.0134
2.458,-0.0205
2.459,-0.0095
2.46,-0.0196
2.461,-0.0104
2.462,-0.0154
2.463,-0.0079
2.464,-0.0174
2.465,-0.0038
2.466,-0.0093
2.467,0.0022
2.468,0.0037
2.469,0.0132
2.47,-0.0004
2.471,0.0015
2.472,-0.0068
2.473,-0.0082
2.474,-0.0015
2.475,0.002
2.476,0.0123
2.477,0.0028
2.478,0.0139
2.479,-0.0057
2.48,-0.0031
2.481,-0.0007
2.482,0.0059
2.483,0.0079
2.484,0.006
2.485,0.0044
2.486,-0.006
2.487,0.0117
2.488,0.0093
2.489,-0.006
2.49,0
2.491,0.0018
2.492,0.0002
2.493,-0.0042
2.494,0.0053
2.495,-0.0007
2.496,0.0004
2.497,-0.0046
2.498,-0.0073
2.499,-0.0029
2.5,-0.0037
2.501,0.0079
2.502,0.0328
2.503,0.0505
2.504,0.041
2.505,-0.0035
2.506,-0.0097
2.507,-0.0154
2.508,-0.0102
2.509,-0.0245
2.51,-0.0203
2.511,-0.0165
2.512,-0.013
2.513,-0.0099
2.514,-0.007
2.515,0.0009
2.516,-0.0015
2.517,-0.0124
2.518,-0.0024
2.519,-0.0189
2.52,-0.0123
2.521,-0.0062
2.522,0.0103
2.523,-0.0007
2.524,-0.0068
2.525,0.0024
2.526,-0.0026
2.527,-0.004
2.528,0
2.529,-0.0011
2.53,0.0046
2.531,-0.0004
2.532,-0.0013
2.533,0.0079
2.534,0.0068
2.535,0.0057
2.536,-0.0035
2.537,0.0049
2.538,-0.0029
2.539,-0.002
2.54,0.0026
2.541,0.0033
2.542,-0.0051
2.543,0.0028
2.544,0.0077
2.545,0.0104
2.546,-0.002
2.547,0.0071
2.548,0.0055
2.549,-0.002
2.55,0.0059
2.551,-0.0037
2.552,0.0148
2.553,0.0335
2.554,0.0407
2.555,0.0516
2.556,0.0375
2.557,0.0101
2.558,-0.0254
2.559,-0.0207
2.56,-0.0249
2.561,-0.0132
2.562,-0.0238
2.563,-0.0207
2.564,-0.0178
2.565,-0.0099
2.566,-0.017
2.567,-0.0148
2.568,-0.0088
2.569,-0.007
2.57,0.0046
2.571,0.0002
2.572,0.0097
2.573,-0.0088
2.574,-0.0113
2.575,0.0007
2.576,0.0073
2.577,0.0053
2.578,0.0035
2.579,0.0051
2.58,0.0037
2.581,0.0049
2.582,0.0185
2.583,0.035
2.584,0.015
2.585,0.0071
2.586,-0.0148
2.587,-0.006
2.588,-0.0086
2.589,-0.0015
2.59,0.0007
2.591,0.0028
2.592,-0.0064
2.593,-0.0081
2.594,-0.0037
2.595,-0.0024
2.596,0.0011
2.597,0
2.598,-0.0029
2.599,-0.0038
2.6,0.0053
2.601,0.0051
2.602,-0.0009
2.603,0.0024
2.604,0.0176
2.605,0.0375
2.606,0.0401
2.607,0.0425
2.608,0.0093
2.609,-0.0049
2.61,-0.0265
2.611,-0.0227
2.612,-0.0333
2.613,-0.0238
2.614,-0.015
2.615,-0.0284
2.616,-0.0163
2.617,-0.0097
2.618,-0.0117
2.619,-0.0099
2.62,-0.0115
2.621,0.0081
2.622,-0.0053
2.623,-0.0029
2.624,-0.0007
2.625,0.0013
2.626,-0.0005
2.627,-0.0022
2.628,0.0022
2.629,0.0009
2.63,-0.0002
2.631,0.0077
2.632,0.0068
2.633,0.0022
2.634,0.013
2.635,0.0026
2.636,0.0013
2.637,0.0073
2.638,0.004
2.639,0.0031
2.64,0.0059
2.641,-0.0033
2.642,0.0028
2.643,0.0017
2.644,0.0007
2.645,0.0071
2.646,0.0079
2.647,-0.0022
2.648,0.0018
2.649,0.0029
2.65,0.0062
2.651,-0.0029
2.652,-0.0051
2.653,-0.0016
2.654,0.0132
2.655,0.0434
2.656,0.0218
2.657,0.0493
2.658,0.0315
2.659,0.009
2.66,-0.0178
2.661,-0.0212
2.662,-0.0308
2.663,-0.022
2.664,-0.0245
2.665,-0.0317
2.666,-0.0207
2.667,-0.0146
2.668,-0.0092
2.669,-0.0108
2.67,-0.0123
2.671,-0.0055
2.672,-0.0167
2.673,-0.0062
2.674,0.0033
2.675,0.0022
2.676,-0.0011
2.677,-0.0102
2.678,0.0082
2.679,0.0108
2.68,0.0037
2.681,0.0059
2.682,0.0079
2.683,0.0097
2.684,0.0048
2.685,0.0033
2.686,0.0128
2.687,0.0044
2.688,0.0055
2.689,0.0026
2.69,-0.0038
2.691,0.0002
2.692,0.0009
2.693,0.0028
2.694,0.0033
2.695,-0.0051
2.696,0.011
2.697,-0.0044
2.698,-0.0024
2.699,-0.0005
2.7,-0.0088
2.701,-0.0013
2.702,-0.0026
2.703,0.0044
2.704,0.0033
2.705,0.0022
2.706,0.0174
2.707,0.0461
2.708,0.05
2.709,0.0322
2.71,0.0029
2.711,-0.0167
2.712,-0.0201
2.713,-0.0232
2.714,-0.0203
2.715,-0.0178
2.716,-0.0201
2.717,-0.0135
2.718,-0.0156
2.719,0.0009
2.72,-0.0145
2.721,-0.0124
2.722,-0.0033
2.723,0.0017
2.724,-0.0088
2.725,-0.002
2.726,-0.0081
2.727,-0.0113
2.728,-0.0022
2.729,-0.0011
2.73,0
2.731,0.0009
2.732,0.0018
2.733,0.0042
2.734,0.0035
2.735,0.004
2.736,-0.0004
2.737,0.0081
2.738,-0.0031
2.739,0.0073
2.74,0.0086
2.741,-0.0049
2.742,-0.0031
2.743,-0.0015
2.744,0
2.745,0.004
2.746,-0.0044
2.747,-0.0033
2.748,0.0037
2.749,-0.0009
2.75,0.0099
2.751,-0.0005
2.752,0.0035
2.753,-0.0026
2.754,-0.0059
2.755,-0.0026
2.756,0.0086
2.757,0.0251
2.758,0.0317
2.759,0.0377
2.76,0.0103
2.761,-0.0331
2.762,-0.0388
2.763,-0.0439
2.764,-0.0582
2.765,-0.0454
2.766,-0.0416
2.767,-0.0309
2.768,-0.0084
2.769,0.0004
2.77,0.0082
2.771,0.0154
2.772,0.0353
2.773,0.0432
2.774,0.0553
2.775,0.0707
2.776,0.0848
2.777,0.083
2.778,0.058
2.779,0.0687
2.78,0.0848
2.781,0.0877
2.782,0.0956
2.783,0.1077
2.784,0.1099
2.785,0.0877
2.786,0.0906
2.787,0.0881
2.788,0.076
2.789,0.0914
2.79,0.0612
2.791,0.0222
2.792,0.017
2.793,0.0123
2.794,-0.0353
2.795,-0.0796
2.796,-0.1663
2.797,-0.2036
2.798,-0.1924
2.799,-0.2232
2.8,-0.2512
2.801,-0.2428
2.802,-0.2197
2.803,-0.2128
2.804,-0.2065
2.805,-0.186
2.806,-0.1688
2.807,-0.1637
2.808,-0.1304
2.809,-0.1346
2.81,-0.1307
2.811,-0.0985
2.812,-0.0509
2.813,-0.0066
2.814,0.0222
2.815,0.0483
2.816,0.0626
2.817,0.0842
2.818,0.1198
2.819,0.1055
2.82,0.1097
2.821,0.1135
2.822,0.117
2.823,0.1265
2.824,0.1414
2.825,0.1439
2.826,0.1463
2.827,0.1353
2.828,0.1414
2.829,0.1395
2.83,0.1146
2.831,0.0897
2.832,0.0736
2.833,0.0588
2.834,0.0401
2.835,0.0472
2.836,0.0229
2.837,0.0198
2.838,0.0286
2.839,0.0207
2.84,0.0039
2.841,0.006
2.842,-0.0081
2.843,-0.0135
2.844,0.0015
2.845,-0.0167
2.846,-0.0143
2.847,-0.0165
2.848,-0.0064
2.849,-0.0156
2.85,-0.0172
2.851,-0.0128
2.852,-0.0141
2.853,-0.013
2.854,-0.0141
2.855,-0.0112
2.856,-0.019
2.857,-0.0051
2.858,-0.0031
2.859,0.0207
2.86,0.0176
2.861,0.0383
2.862,0.0249
2.863,0.0029
2.864,-0.0297
2.865,-0.0425
2.866,-0.0386
2.867,-0.0421
2.868,-0.0326
2.869,-0.0297
2.87,-0.0483
2.871,-0.0216
2.872,-0.0181
2.873,-0.0212
2.874,-0.0124
2.875,-0.015
2.876,-0.0222
2.877,-0.0156
2.878,-0.0055
2.879,-0.011
2.88,-0.0126
2.881,-0.0051
2.882,-0.0064
2.883,-0.0075
2.884,0.0004
2.885,0.0053
2.886,0.0044
2.887,-0.0064
2.888,-0.002
2.889,-0.0033
2.89,0.0002
2.891,0.0035
2.892,0.0006
2.893,-0.004
2.894,0.0035
2.895,-0.0077
2.896,-0.0002
2.897,-0.0042
2.898,-0.0031
2.899,0.0002
2.9,0.0031
2.901,-0.0015
2.902,-0.0038
2.903,0
2.904,0.0075
2.905,0.0026
2.906,-0.0059
2.907,-0.0022
2.908,0.0035
2.909,0.0126
2.91,0.0238
2.911,0.0463
2.912,0.0368
2.913,0.0042
2.914,-0.0086
2.915,-0.0048
2.916,-0.0154
2.917,-0.0185
2.918,-0.0156
2.919,-0.013
2.92,-0.0201
2.921,-0.0179
2.922,-0.0159
2.923,-0.0104
2.924,-0.0055
2.925,-0.004
2.926,-0.0027
2.927,-0.0038
2.928,0.0018
2.929,-0.0051
2.93,0.0013
2.931,0.007
2.932,-0.0031
2.933,0.0037
2.934,0.0048
2.935,0.0037
2.936,0.0046
2.937,0.0092
2.938,0.0099
2.939,0.0077
2.94,0.0044
2.941,-0.0013
2.942,-0.0113
2.943,0.0064
2.944,-0.0007
2.945,-0.0029
2.946,0.0031
2.947,0.0013
2.948,0.0029
2.949,0.0044
2.95,0.0057
2.951,-0.0004
2.952,-0.0015
2.953,0.0055
2.954,-0.0029
2.955,-0.0018
2.956,0.0134
2.957,-0.002
2.958,-0.0051
2.959,-0.0031
2.96,-0.0086
2.961,0.0163
2.962,0.0485
2.963,0.0443
2.964,0.0088
2.965,-0.0055
2.966,-0.0183
2.967,-0.0222
2.968,-0.0115
2.969,-0.0146
2.97,-0.0234
2.971,-0.0101
2.972,-0.0124
2.973,-0.0146
2.974,-0.0086
2.975,-0.0141
2.976,-0.0157
2.977,-0.0022
2.978,-0.0113
2.979,0.0002
2.98,-0.0013
2.981,-0.0053
2.982,0.0031
2.983,0.0064
2.984,-0.0005
2.985,0.0022
2.986,0.0046
2.987,0.0068
2.988,0.0062
2.989,-0.0033
2.99,-0.0073
2.991,-0.0038
2.992,0.004
2.993,0.0132
2.994,0.0048
2.995,0.0015
2.996,0.0064
2.997,0.0037
2.998,-0.0055
2.999,0.0106
3,-0.0004
3.001,0.0057
3.002,-0.0035
3.003,0.0048
3.004,0.0062
3.005,0.0022
3.006,-0.0113
3.007,-0.0022
3.008,0.0028
3.009,0.0007
3.01,0.0112
3.011,0.0207
3.012,0.0291
3.013,0.0348
3.014,0.05
3.015,0.03
3.016,-0.0102
3.017,-0.0159
3.018,-0.0211
3.019,-0.0163
3.02,-0.0121
3.021,-0.0082
3.022,-0.026
3.023,-0.0165
3.024,-0.0077
3.025,-0.0264
3.026,-0.0192
3.027,-0.017
3.028,0.0011
3.029,0.0035
3.03,-0.0031
3.031,-0.0011
3.032,0.0044
3.033,-0.0139
3.034,-0.0115
3.035,0.0039
3.036,0.0059
3.037,0.004
3.038,0.0024
3.039,0.0009
3.04,0.0077
3.041,0.0017
3.042,0.0049
3.043,0.0059
3.044,-0.0026
3.045,0.0031
3.046,0.0022
3.047,-0.0005
3.048,0.0002
3.049,0.0024
3.05,0.0006
3.051,-0.0038
3.052,-0.0033
3.053,0.0042
3.054,0.0075
3.055,0.0046
3.056,-0.0093
3.057,0.0048
3.058,0.0066
3.059,-0.0016
3.06,0
3.061,0.0015
3.062,0.0082
3.063,0.0267
3.064,0.0562
3.065,0.0288
3.066,0.0039
3.067,-0.0057
3.068,-0.0086
3.069,-0.0112
3.07,-0.0232
3.071,-0.0167
3.072,-0.0267
3.073,-0.0139
3.074,0.0044
3.075,0.0165
3.076,-0.0123
3.077,-0.0084
3.078,-0.019
3.079,-0.0159
3.08,-0.013
3.081,-0.0051
3.082,-0.0172
3.083,-0.015
3.084,-0.013
3.085,-0.0075
3.086,-0.0124
3.087,-0.002
3.088,-0.006
3.089,0.0125
3.09,0.015
3.091,0.0029
3.092,0.0007
3.093,-0.0013
3.094,0.0042
3.095,0.0059
3.096,0.0044
3.097,-0.0134
3.098,-0.0013
3.099,0.0009
3.1,0.0029
3.101,-0.0026
3.102,0.009
3.103,-0.0015
3.104,0.0053
3.105,-0.0031
3.106,0.0048
3.107,0.0057
3.108,0.0029
3.109,0.0037
3.11,-0.0033
3.111,0.0029
3.112,0.002
3.113,0.0145
3.114,0.0419
3.115,0.0537
3.116,0.0502
3.117,0.0079
3.118,-0.0209
3.119,-0.026
3.12,-0.0117
3.121,-0.0159
3.122,-0.0276
3.123,-0.017
3.124,-0.0139
3.125,-0.011
3.126,-0.0084
3.127,-0.006
3.128,-0.0082
3.129,-0.0102
3.13,-0.0084
3.131,-0.0035
3.132,-0.0079
3.133,-0.0038
3.134,-0.0004
3.135,0.0029
3.136,0
3.137,0.0009
3.138,-0.0031
3.139,-0.007
3.14,0.002
3.141,0.0009
3.142,0.0066
3.143,0.0115
3.144,0.007
3.145,0.0126
3.146,0.0042
3.147,0.0031
3.148,0.0101
3.149,-0.0002
3.15,0.0066
3.151,0.0077
3.152,-0.0093
3.153,0.0028
3.154,0.0049
3.155,-0.0011
3.156,0.0007
3.157,-0.0075
3.158,0
3.159,0.0013
3.16,-0.0048
3.161,-0.0081
3.162,-0.0051
3.163,-0.0002
3.164,0.0137
3.165,0.0319
3.166,0.044
3.167,0.0461
3.168,0.0482
3.169,0.0207
3.17,-0.0148
3.171,-0.0196
3.172,-0.0238
3.173,-0.0121
3.174,-0.0156
3.175,-0.0251
3.176,-0.0222
3.177,-0.0088
3.178,-0.0308
3.179,-0.022
3.18,-0.0141
3.181,-0.007
3.182,-0.0092
3.183,-0.0031
3.184,-0.0049
3.185,-0.0033
3.186,0.0042
3.187,-0.0108
3.188,-0.0128
3.189,0.0073
3.19,-0.006
3.191,0.0011
3.192,0.0033
3.193,0.0093
3.194,0.0112
3.195,-0.0038
3.196,0.0022
3.197,0.0077
3.198,-0.0005
3.199,-0.0049
3.2,0.0018
3.201,0.0029
3.202,0.004
3.203,0.0049
3.204,0.0059
3.205,0.0066
3.206,-0.0018
3.207,-0.0029
3.208,-0.002
3.209,-0.0011
3.21,-0.0004
3.211,-0.0011
3.212,0.0007
3.213,-0.0007
3.214,0.0088
3.215,0.0156
3.216,0.0341
3.217,0.0366
3.218,0.0535
3.219,0.0335
3.22,-0.0015
3.221,-0.0157
3.222,-0.02
3.223,-0.0161
3.224,-0.0196
3.225,-0.0227
3.226,-0.0198
3.227,-0.0172
3.228,-0.0101
3.229,-0.0167
3.23,-0.0187
3.231,-0.0059
3.232,-0.0174
3.233,-0.0099
3.234,-0.0004
3.235,-0.0038
3.236,0.004
3.237,-0.0009
3.238,-0.0018
3.239,-0.0042
3.24,-0.0064
3.241,-0.0002
3.242,-0.0042
3.243,-0.0035
3.244,0.0028
3.245,0.0119
3.246,0.0035
3.247,-0.0022
3.248,0.0048
3.249,-0.0037
3.25,0.002
3.251,0.0029
3.252,0.0114
3.253,-0.0011
3.254,0.0006
3.255,0.011
3.256,0.015
3.257,0.0039
3.258,-0.0037
3.259,0.0086
3.26,-0.0029
3.261,0.0015
3.262,0.0082
3.263,0.0048
3.264,0.0029
3.265,0.004
3.266,0.0132
3.267,0.0192
3.268,0.0363
3.269,0.0242
3.27,0.0264
3.271,0.0284
3.272,0.0229
3.273,0.0212
3.274,0.0256
3.275,0.0079
3.276,0.02
3.277,-0.0044
3.278,-0.0467
3.279,-0.041
3.28,-0.0461
3.281,-0.0414
3.282,-0.0372
3.283,-0.0254
3.284,-0.0289
3.285,-0.0258
3.286,-0.0229
3.287,-0.015
3.288,-0.0174
3.289,-0.0196
3.29,-0.0095
3.291,-0.0077
3.292,-0.0027
3.293,0.0017
3.294,0.0004
3.295,0.0088
3.296,0.0099
3.297,0.0029
3.298,0.0169
3.299,0.0108
3.3,0.0017
3.301,0.0033
3.302,0.0077
3.303,0.0117
3.304,0.0057
3.305,0.0114
3.306,0.0064
3.307,-0.0075
3.308,0.0026
3.309,-0.0029
3.31,0.0121
3.311,0.0141
3.312,-0.0024
3.313,0.0086
3.314,0.0066
3.315,0.0007
3.316,0.0026
3.317,-0.0024
3.318,0.002
3.319,0.0198
3.32,0.0319
3.321,0.0253
3.322,-0.0009
3.323,0.0026
3.324,0.0121
3.325,0.0269
3.326,0.0511
3.327,0.035
3.328,-0.0037
3.329,-0.0192
3.33,-0.024
3.331,-0.0282
3.332,-0.032
3.333,-0.0143
3.334,-0.0238
3.335,-0.0209
3.336,-0.013
3.337,-0.0251
3.338,-0.0141
3.339,-0.0121
3.34,-0.0102
3.341,0.0013
3.342,-0.0031
3.343,-0.0044
3.344,-0.0033
3.345,0.0024
3.346,-0.0108
3.347,-0.0053
3.348,-0.0004
3.349,0.004
3.35,0
3.351,0.0112
3.352,0.0156
3.353,-0.0022
3.354,0.0002
3.355,0.0068
3.356,0.0048
3.357,0.0029
3.358,0.0079
3.359,0.0035
3.36,0.0022
3.361,-0.0038
3.362,0.0018
3.363,0.0068
3.364,0.0095
3.365,0.0055
3.366,0.0037
3.367,-0.0016
3.368,0.0029
3.369,0.0125
3.37,0.033
3.371,0.0418
3.372,0.0496
3.373,0.0132
3.374,-0.0234
3.375,-0.0187
3.376,-0.0145
3.377,-0.0183
3.378,-0.0148
3.379,-0.0243
3.38,-0.0214
3.381,-0.0189
3.382,-0.0165
3.383,-0.0187
3.384,-0.0126
3.385,-0.0035
3.386,-0.0018
3.387,-0.0033
3.388,0.009
3.389,-0.0093
3.39,-0.0022
3.391,-0.0044
3.392,-0.0064
3.393,-0.0009
3.394,0.0073
3.395,0.0117
3.396,-0.0033
3.397,-0.0013
3.398,-0.0104
3.399,0.0011
3.4,-0.0004
3.401,0.0009
3.402,0.0044
3.403,0.0101
3.404,0.0031
3.405,0.0022
3.406,0.0029
3.407,0.0037
3.408,0.0055
3.409,0.0049
3.41,-0.0013
3.411,0.0028
3.412,0.0035
3.413,-0.0027
3.414,-0.0004
3.415,-0.0104
3.416,0.0073
3.417,0.0029
3.418,0.0053
3.419,0.0119
3.42,0.0381
3.421,0.0416
3.422,0.0511
3.423,0.0185
3.424,-0.0031
3.425,-0.0227
3.426,-0.0262
3.427,-0.0231
3.428,-0.0201
3.429,-0.0176
3.43,-0.0152
3.431,-0.0174
3.432,-0.0033
3.433,-0.0051
3.434,0.0031
3.435,-0.0044
3.436,-0.0057
3.437,-0.0068
3.438,-0.0011
3.439,-0.002
3.44,-0.0011
3.441,-0.0051
3.442,-0.0013
3.443,-0.0018
3.444,-0.0013
3.445,-0.0029
3.446,0.0004
3.447,0.0046
3.448,0.0007
3.449,0.0082
3.45,0.0026
3.451,-0.0024
3.452,-0.0051
3.453,-0.0027
3.454,0.0011
3.455,0.0057
3.456,0.0013
3.457,0.0064
3.458,-0.0026
3.459,0.0035
3.46,0.0046
3.461,0.0017
3.462,-0.0029
3.463,0.0028
3.464,0.0081
3.465,-0.0022
3.466,0.0053
3.467,0.0093
3.468,0.0044
3.469,-0.0117
3.47,0.0126
3.471,0.0288
3.472,0.0317
3.473,0.0342
3.474,0.0222
3.475,0.0112
3.476,-0.011
3.477,-0.0258
3.478,-0.0179
3.479,-0.0251
3.48,-0.0097
3.481,-0.0157
3.482,-0.0102
3.483,-0.002
3.484,-0.0095
3.485,-0.0055
3.486,-0.0066
3.487,-0.0099
3.488,-0.0029
3.489,-0.0075
3.49,-0.0115
3.491,-0.0031
3.492,0.0026
3.493,-0.0004
3.494,-0.0013
3.495,-0.0037
3.496,0.0048
3.497,0.0037
3.498,0.0028
3.499,-0.0018
3.5,0.0022
3.501,0.0029
3.502,0.0062
3.503,0.0158
3.504,-0.0048
3.505,-0.0077
3.506,0.0002
3.507,0.0073
3.508,-0.0037
3.509,-0.0016
3.51,-0.0145
3.511,-0.0029
3.512,0.0046
3.513,-0.0022
3.514,-0.0011
3.515,0
3.516,0.007
3.517,0.0097
3.518,0.0073
3.519,0.0059
3.52,0.0006
3.521,0.0108
3.522,0.0212
3.523,0.0418
3.524,0.0269
3.525,0.0082
3.526,-0.0137
3.527,-0.0108
3.528,-0.0082
3.529,-0.0106
3.53,-0.0172
3.531,-0.0112
3.532,-0.013
3.533,-0.0081
3.534,-0.0124
3.535,-0.0165
3.536,-0.0053
3.537,-0.0009
3.538,-0.0104
3.539,-0.0044
3.54,-0.0011
3.541,-0.0102
3.542,-0.0092
3.543,-0.0013
3.544,0.0057
3.545,0.0066
3.546,0.0073
3.547,0.002
3.548,0.0026
3.549,-0.0018
3.55,0.0066
3.551,0.0077
3.552,0.002
3.553,0.0029
3.554,0.0075
3.555,0
3.556,-0.0009
3.557,0
3.558,-0.004
3.559,0.0044
3.56,-0.0035
3.561,0.0035
3.562,0.0007
3.563,-0.0101
3.564,0.0125
3.565,0.0093
3.566,0.03
3.567,0.0114
3.568,-0.0007
3.569,-0.0029
3.57,-0.0051
3.571,-0.0071
3.572,0.0093
3.573,0.0337
3.574,0.0242
3.575,0.039
3.576,0.0203
3.577,-0.0016
3.578,-0.0104
3.579,-0.0183
3.58,-0.0254
3.581,-0.0101
3.582,-0.0322
3.583,-0.0174
3.584,-0.0095
3.585,-0.0315
3.586,-0.0167
3.587,-0.0088
3.588,-0.0064
3.589,-0.0042
3.59,-0.0022
3.591,0.0033
3.592,-0.0016
3.593,-0.006
3.594,-0.002
3.595,-0.0009
3.596,0.0024
3.597,0.0073
3.598,-0.0029
3.599,0.0011
3.6,-0.0049
3.601,0.0029
3.602,0
3.603,0.0064
3.604,0.0104
3.605,0.0051
3.606,0.0114
3.607,-0.0011
3.608,0.0007
3.609,0.0024
3.61,0.0009
3.611,0.0022
3.612,-0.0013
3.613,0.009
3.614,0.0049
3.615,0.0039
3.616,0.0006
3.617,0.0055
3.618,0.0119
3.619,-0.0005
3.62,0.0049
3.621,-0.0044
3.622,-0.0093
3.623,0.0132
3.624,0.0227
3.625,0.0494
3.626,0.0388
3.627,-0.0035
3.628,-0.0092
3.629,-0.0143
3.63,-0.019
3.631,-0.0148
3.632,-0.0265
3.633,-0.0159
3.634,-0.019
3.635,-0.0161
3.636,-0.0187
3.637,-0.0163
3.638,-0.0009
3.639,-0.0029
3.64,-0.0011
3.641,-0.0027
3.642,-0.0013
3.643,0
3.644,0.0011
3.645,0.0022
3.646,-0.0027
3.647,-0.0018
3.648,-0.0059
3.649,0.0011
3.65,-0.0035
3.651,-0.0059
3.652,0.0057
3.653,0.0007
3.654,0.0022
3.655,0.0062
3.656,0.0028
3.657,0.0039
3.658,0.0108
3.659,0.0044
3.66,-0.0031
3.661,-0.0002
3.662,0.0007
3.663,0.0064
3.664,0.0042
3.665,0.0009
3.666,0.0015
3.667,-0.0024
3.668,0.0031
3.669,0.0053
3.67,0.0048
3.671,0.0079
3.672,0.0044
3.673,0.0049
3.674,0.0125
3.675,0.0295
3.676,0.0463
3.677,0.0353
3.678,0.0051
3.679,-0.0077
3.68,-0.0194
3.681,-0.0159
3.682,-0.0384
3.683,-0.0355
3.684,-0.0113
3.685,-0.0082
3.686,-0.0231
3.687,-0.0205
3.688,-0.0134
3.689,-0.0156
3.69,-0.0095
3.691,-0.0004
3.692,-0.002
3.693,0.0055
3.694,0.0095
3.695,0.006
3.696,-0.0018
3.697,0.0031
3.698,-0.0015
3.699,-0.0071
3.7,-0.0064
3.701,-0.0018
3.702,0.0077
3.703,0.0117
3.704,0.0057
3.705,0.0068
3.706,-0.0002
3.707,-0.0029
3.708,-0.0005
3.709,0.0017
3.71,0.0035
3.711,0.004
3.712,-0.0011
3.713,0.0035
3.714,0.0017
3.715,0.0011
3.716,0.0035
3.717,0.0066
3.718,0.002
3.719,-0.0024
3.72,0.006
3.721,0.0071
3.722,-0.0077
3.723,0
3.724,0.002
3.725,0.0148
3.726,0.0364
3.727,0.0394
3.728,0.0472
3.729,0.0352
3.73,0.002
3.731,-0.0123
3.732,-0.0251
3.733,-0.0212
3.734,-0.0178
3.735,-0.0146
3.736,-0.0234
3.737,-0.0209
3.738,-0.0137
3.739,-0.0159
3.74,-0.0099
3.741,-0.0044
3.742,-0.0027
3.743,-0.0013
3.744,-0.0081
3.745,-0.0046
3.746,0.0011
3.747,0.0123
3.748,0.0108
3.749,-0.0042
3.75,-0.0022
3.751,-0.0004
3.752,-0.002
3.753,-0.0005
3.754,0.0035
3.755,-0.0049
3.756,-0.0038
3.757,-0.0009
3.758,0
3.759,0.0024
3.76,0.0093
3.761,-0.0009
3.762,0.0031
3.763,0.002
3.764,0.0031
3.765,-0.0038
3.766,0.0026
3.767,0.0101
3.768,0.011
3.769,0.0007
3.77,-0.0033
3.771,-0.0022
3.772,0.0057
3.773,0.0007
3.774,-0.0095
3.775,0.0044
3.776,0.0145
3.777,0.0236
3.778,0.0452
3.779,0.0364
3.78,0.007
3.781,-0.0205
3.782,-0.0099
3.783,-0.013
3.784,-0.0218
3.785,-0.0192
3.786,-0.0216
3.787,-0.0194
3.788,-0.0093
3.789,-0.0038
3.79,-0.0088
3.791,-0.0132
3.792,-0.0119
3.793,-0.0084
3.794,-0.0187
3.795,-0.0146
3.796,-0.0035
3.797,-0.0049
3.798,-0.02
3.799,-0.03
3.8,-0.0282
3.801,-0.0232
3.802,-0.0337
3.803,-0.0269
3.804,-0.0209
3.805,-0.006
3.806,0.0121
3.807,0.0192
3.808,0.0126
3.809,0.0308
3.81,0.0527
3.811,0.0795
3.812,0.1117
3.813,0.0989
3.814,0.0714
3.815,0.0679
3.816,0.0711
3.817,0.0917
3.818,0.1051
3.819,0.122
3.82,0.1154
3.821,0.1174
3.822,0.1192
3.823,0.111
3.824,0.0884
3.825,0.0806
3.826,0.058
3.827,0.0432
3.828,0.0566
3.829,0.0494
3.83,0.0385
3.831,0.0082
3.832,-0.0568
3.833,-0.1408
3.834,-0.1972
3.835,-0.228
3.836,-0.2373
3.837,-0.2626
3.838,-0.301
3.839,-0.2941
3.84,-0.2878
3.841,-0.2706
3.842,-0.234
3.843,-0.2102
3.844,-0.18
3.845,-0.1838
3.846,-0.1804
3.847,-0.1899
3.848,-0.1928
3.849,-0.1525
3.85,-0.0774
3.851,-0.0057
3.852,0.041
3.853,0.0833
3.854,0.1218
3.855,0.1426
3.856,0.1615
3.857,0.1672
3.858,0.1621
3.859,0.1763
3.86,0.1721
3.861,0.1838
3.862,0.1804
3.863,0.1708
3.864,0.1621
3.865,0.1487
3.866,0.1318
3.867,0.1296
3.868,0.1155
3.869,0.0881
3.87,0.0764
3.871,0.0586
3.872,0.0617
3.873,0.0529
3.874,0.0396
3.875,0.0227
3.876,0.0293
3.877,0.0049
3.878,0.0081
3.879,0.0288
3.88,0.0366
3.881,0.0245
3.882,0.0223
3.883,0.0324
3.884,0.0049
3.885,-0.0225
3.886,-0.0331
3.887,-0.0427
3.888,-0.0514
3.889,-0.0436
3.89,-0.0364
3.891,-0.0342
3.892,-0.0362
3.893,-0.0381
3.894,-0.0364
3.895,-0.026
3.896,-0.022
3.897,-0.0209
3.898,-0.022
3.899,-0.0289
3.9,-0.0205
3.901,-0.0194
3.902,-0.0145
3.903,-0.0154
3.904,-0.0113
3.905,-0.0121
3.906,-0.0115
3.907,-0.0121
3.908,-0.0205
3.909,-0.0093
3.91,-0.0079
3.911,-0.0119
3.912,-0.0108
3.913,-0.0075
3.914,-0.0026
3.915,-0.011
3.916,-0.0053
3.917,-0.0044
3.918,0.0002
3.919,-0.0022
3.92,-0.0044
3.921,-0.0038
3.922,-0.0033
3.923,0.0051
3.924,-0.0033
3.925,0.0046
3.926,-0.0004
3.927,-0.0037
3.928,0.0009
3.929,0.0134
3.93,0.0372
3.931,0.0341
3.932,0.0548
3.933,0.0414
3.934,0.0049
3.935,-0.0212
3.936,-0.026
3.937,-0.0218
3.938,-0.0179
3.939,-0.0145
3.94,-0.0176
3.941,-0.0264
3.942,-0.0185
3.943,-0.0256
3.944,-0.0146
3.945,-0.0046
3.946,-0.0137
3.947,-0.0121
3.948,0.0104
3.949,-0.0057
3.95,-0.0027
3.951,-0.0106
3.952,0.0015
3.953,-0.0007
3.954,0.0013
3.955,0.0031
3.956,-0.0084
3.957,-0.004
3.958,0.0055
3.959,-0.0029
3.96,0.0028
3.961,0.0057
3.962,-0.0007
3.963,0.0033
3.964,-0.0037
3.965,0.0028
3.966,0.0035
3.967,0.0028
3.968,0.013
3.969,0.0026
3.97,0.0039
3.971,0.0028
3.972,-0.0005
3.973,0.0024
3.974,-0.0004
3.975,-0.0011
3.976,0.0042
3.977,-0.0033
3.978,0.0081
3.979,0.009
3.98,0.0136
3.981,0.026
3.982,0.0498
3.983,0.0337
3.984,0.0011
3.985,-0.0031
3.986,-0.0148
3.987,-0.0183
3.988,-0.0152
3.989,-0.0181
3.99,-0.0207
3.991,-0.0086
3.992,-0.0108
3.993,-0.0168
3.994,-0.015
3.995,-0.0101
3.996,-0.0086
3.997,0.0009
3.998,0.007
3.999,-0.0009
4,-0.0059
4.001,-0.0031
4.002,-0.0038
4.003,0.0077
4.004,0.0093
4.005,-0.0011
4.006,0.0002
4.007,-0.0009
4.008,-0.002
4.009,0.0071
4.01,-0.004
4.011,-0.0026
4.012,0.0015
4.013,-0.002
4.014,0.0013
4.015,-0.0016
4.016,0.0068
4.017,-0.0102
4.018,0.0117
4.019,-0.0031
4.02,0.0048
4.021,0.0024
4.022,0.0134
4.023,-0.0048
4.024,0.0024
4.025,-0.0086
4.026,-0.0066
4.027,0.0026
4.028,0.0009
4.029,0.0044
4.03,0
4.031,0.0013
4.032,0.0198
4.033,0.0385
4.034,0.0313
4.035,0.0467
4.036,0.0366
4.037,0.0092
4.038,-0.0183
4.039,-0.0289
4.04,-0.032
4.041,-0.0232
4.042,-0.0099
4.043,-0.022
4.044,-0.0198
4.045,-0.0137
4.046,-0.0229
4.047,-0.0179
4.048,-0.0075
4.049,-0.0143
4.05,0.0018
4.051,-0.0048
4.052,-0.0108
4.053,-0.0053
4.054,-0.0004
4.055,-0.0048
4.056,-0.0007
4.057,0.0178
4.058,0.0419
4.059,0.0126
4.06,0.0088
4.061,-0.0018
4.062,-0.0049
4.063,-0.0079
4.064,0
4.065,-0.0024
4.066,-0.0046
4.067,-0.0026
4.068,-0.0044
4.069,-0.0126
4.07,0.0009
4.071,-0.0009
4.072,0.004
4.073,-0.0064
4.074,0.0031
4.075,-0.0004
4.076,0.0029
4.077,0.0059
4.078,0.0031
4.079,-0.0009
4.08,-0.0029
4.081,0.0009
4.082,0.0055
4.083,0.015
4.084,0.0355
4.085,0.0504
4.086,0.0101
4.087,-0.0071
4.088,-0.0123
4.089,-0.017
4.09,-0.0212
4.091,-0.0174
4.092,-0.0139
4.093,-0.0044
4.094,-0.0251
4.095,-0.0009
4.096,-0.0104
4.097,-0.0134
4.098,0
4.099,-0.0071
4.1,0.0039
4.101,0.0059
4.102,-0.0106
4.103,-0.0084
4.104,0.0057
4.105,0.0002
4.106,0.0018
4.107,0.0033
4.108,0.0073
4.109,-0.0011
4.11,-0.0022
4.111,0.0048
4.112,0.002
4.113,0.0077
4.114,0.0007
4.115,0.0017
4.116,0.0057
4.117,0.0018
4.118,0.0037
4.119,-0.002
4.12,-0.0013
4.121,0.0006
4.122,0.0075
4.123,0.0011
4.124,0.0018
4.125,-0.0097
4.126,-0.0048
4.127,0.0028
4.128,0.004
4.129,0.0051
4.13,0.0062
4.131,-0.0044
4.132,-0.0093
4.133,0.0046
4.134,0.0308
4.135,0.0414
4.136,0.0445
4.137,0.0297
4.138,-0.0106
4.139,-0.0163
4.14,-0.0214
4.141,-0.0262
4.142,-0.0304
4.143,-0.0187
4.144,-0.0152
4.145,-0.0247
4.146,-0.0218
4.147,-0.0139
4.148,-0.0115
4.149,-0.0093
4.15,0.0007
4.151,-0.0121
4.152,-0.0071
4.153,-0.0057
4.154,-0.0044
4.155,0.0017
4.156,-0.004
4.157,-0.0011
4.158,-0.0038
4.159,0.0037
4.16,0.0046
4.161,0.0018
4.162,0.0026
4.163,-0.0027
4.164,0.0075
4.165,0.015
4.166,0.0055
4.167,-0.0081
4.168,-0.0026
4.169,0.0024
4.17,0.0009
4.171,0.0022
4.172,0.0033
4.173,0.009
4.174,0.004
4.175,0.0068
4.176,0.0044
4.177,0.0022
4.178,0.0028
4.179,0.0033
4.18,0.0106
4.181,0.0037
4.182,-0.0051
4.183,-0.0005
4.184,0.0119
4.185,0.0284
4.186,0.0438
4.187,0.0337
4.188,0.0099
4.189,-0.0126
4.19,-0.0156
4.191,-0.013
4.192,-0.0154
4.193,-0.022
4.194,-0.02
4.195,-0.0181
4.196,-0.0066
4.197,-0.011
4.198,-0.0097
4.199,-0.0086
4.2,-0.0053
4.201,0.0017
4.202,-0.0029
4.203,-0.0022
4.204,-0.006
4.205,-0.0027
4.206,-0.0009
4.207,0.0029
4.208,-0.0026
4.209,0.0075
4.21,-0.0048
4.211,0.0068
4.212,0.0024
4.213,-0.0016
4.214,-0.0027
4.215,-0.006
4.216,0.0071
4.217,-0.002
4.218,-0.0004
4.219,-0.0018
4.22,-0.0005
4.221,0.0029
4.222,0.0108
4.223,0.0079
4.224,-0.006
4.225,-0.0081
4.226,0.0011
4.227,-0.0038
4.228,0.0066
4.229,0.0026
4.23,0.0037
4.231,0.0048
4.232,0.0057
4.233,0.0022
4.234,0.0106
4.235,0.0163
4.236,0.0315
4.237,0.0515
4.238,0.0489
4.239,0.0125
4.24,-0.0031
4.241,-0.0174
4.242,-0.0216
4.243,-0.0254
4.244,-0.0289
4.245,-0.0194
4.246,-0.0106
4.247,-0.0132
4.248,-0.006
4.249,-0.0082
4.25,-0.0062
4.251,-0.0081
4.252,-0.0097
4.253,-0.0112
4.254,-0.0152
4.255,-0.0016
4.256,0.0039
4.257,-0.0011
4.258,0.0004
4.259,0.0071
4.26,0.006
4.261,0.0071
4.262,-0.002
4.263,0.004
4.264,0.0029
4.265,-0.002
4.266,-0.0011
4.267,-0.0086
4.268,0.0066
4.269,0
4.27,0.002
4.271,0.0002
4.272,0.0051
4.273,0.0007
4.274,0.0048
4.275,0.0037
4.276,-0.002
4.277,0.0049
4.278,0.0077
4.279,0.0002
4.28,0.0031
4.281,0.0134
4.282,0.0011
4.283,-0.0038
4.284,-0.0029
4.285,0.0015
4.286,0.0055
4.287,0.019
4.288,0.0429
4.289,0.0397
4.29,0.013
4.291,-0.0119
4.292,-0.0214
4.293,-0.0185
4.294,-0.0211
4.295,-0.0187
4.296,-0.0253
4.297,-0.0152
4.298,-0.0134
4.299,-0.0051
4.3,-0.0187
4.301,-0.0059
4.302,-0.0042
4.303,0.0183
4.304,0.0278
4.305,0.0011
4.306,-0.0167
4.307,-0.0005
4.308,-0.0035
4.309,-0.0009
4.31,0.0015
4.311,-0.0007
4.312,-0.0068
4.313,-0.0086
4.314,-0.0037
4.315,0.0007
4.316,-0.0033
4.317,0.0002
4.318,-0.0031
4.319,-0.0143
4.32,-0.0038
4.321,-0.0026
4.322,-0.0015
4.323,0.0018
4.324,-0.0073
4.325,-0.0084
4.326,0.0018
4.327,0.0031
4.328,0.002
4.329,-0.0059
4.33,0.0073
4.331,-0.0018
4.332,0.0031
4.333,0.0046
4.334,0.0033
4.335,0.0059
4.336,0.007
4.337,0.0103
4.338,0.0255
4.339,0.0542
4.34,0.058
4.341,0.0258
4.342,-0.0044
4.343,-0.0082
4.344,-0.0117
4.345,-0.0148
4.346,-0.0236
4.347,-0.0211
4.348,-0.0187
4.349,-0.0165
4.35,-0.0185
4.351,-0.0167
4.352,-0.0117
4.353,-0.0102
4.354,-0.0035
4.355,-0.0046
4.356,-0.0057
4.357,-0.0048
4.358,0.0037
4.359,0.0004
4.36,-0.0066
4.361,-0.0002
4.362,0.0055
4.363,0.0017
4.364,0.0049
4.365,0.0106
4.366,0.0022
4.367,0.0101
4.368,0.0009
4.369,0.002
4.37,-0.0037
4.371,0.0013
4.372,0.0004
4.373,0.006
4.374,0.0007
4.375,-0.0038
4.376,0.0031
4.377,0.0059
4.378,0.0066
4.379,-0.0035
4.38,0.0115
4.381,0.0015
4.382,0.0033
4.383,-0.0082
4.384,0.0022
4.385,0.009
4.386,0.0095
4.387,0.0106
4.388,0.0095
4.389,0.0247
4.39,0.0579
4.391,0.0341
4.392,-0.0049
4.393,-0.0205
4.394,-0.0157
4.395,-0.02
4.396,-0.0238
4.397,-0.0203
4.398,-0.0172
4.399,-0.0143
4.4,-0.0117
4.401,-0.0141
4.402,-0.0031
4.403,0.0029
4.404,-0.0135
4.405,-0.0113
4.406,-0.0013
4.407,-0.0031
4.408,-0.0015
4.409,-0.0029
4.41,0.0039
4.411,-0.0022
4.412,0.0057
4.413,-0.0035
4.414,0.0026
4.415,0.0037
4.416,-0.0033
4.417,0.0013
4.418,0.0037
4.419,0.0029
4.42,-0.0004
4.421,0.0002
4.422,-0.0004
4.423,0.0029
4.424,0.0033
4.425,0.0095
4.426,-0.0026
4.427,-0.0075
4.428,-0.006
4.429,0.009
4.43,0.0029
4.431,0.0011
4.432,0.006
4.433,0.0046
4.434,0.0059
4.435,-0.0053
4.436,0.0022
4.437,0.0059
4.438,0.0018
4.439,0.0053
4.44,0.0223
4.441,0.0491
4.442,0.0313
4.443,0.0152
4.444,-0.0115
4.445,-0.0222
4.446,-0.0126
4.447,-0.0214
4.448,-0.0189
4.449,-0.0212
4.45,-0.019
4.451,-0.009
4.452,-0.0108
4.453,-0.0059
4.454,-0.0194
4.455,-0.0102
4.456,-0.0086
4.457,-0.0071
4.458,-0.0059
4.459,0.0002
4.46,0.0035
4.461,0.0044
4.462,-0.0059
4.463,0.0037
4.464,-0.0075
4.465,0.0029
4.466,0.0017
4.467,0.0051
4.468,0.0018
4.469,0.0009
4.47,0
4.471,0.0057
4.472,0.0064
4.473,0.007
4.474,0.0039
4.475,0.0033
4.476,0.0037
4.477,0.0024
4.478,0.0051
4.479,0.0108
4.48,-0.0016
4.481,-0.0035
4.482,-0.0117
4.483,0.0018
4.484,0.0037
4.485,-0.0046
4.486,-0.0002
4.487,0.0039
4.488,0.0066
4.489,0.0006
4.49,0.0176
4.491,0.0396
4.492,0.0483
4.493,0.035
4.494,0.0033
4.495,-0.0183
4.496,-0.0145
4.497,-0.0179
4.498,-0.0148
4.499,-0.0178
4.5,-0.0099
4.501,-0.0123
4.502,-0.0145
4.503,-0.0084
4.504,-0.0066
4.505,-0.0115
4.506,-0.004
4.507,0.0055
4.508,-0.0081
4.509,-0.0026
4.51,-0.0042
4.511,-0.0086
4.512,0.0009
4.513,0.002
4.514,-0.0059
4.515,0.0073
4.516,-0.0018
4.517,0.0031
4.518,0.0046
4.519,0.0006
4.52,0.0017
4.521,0.0028
4.522,-0.0002
4.523,-0.0011
4.524,0.0013
4.525,0.0035
4.526,-0.0027
4.527,0.0081
4.528,0.0156
4.529,-0.0049
4.53,0.0039
4.531,0.0013
4.532,-0.0011
4.533,0.0011
4.534,0.0112
4.535,-0.0016
4.536,-0.0066
4.537,0.0039
4.538,-0.0057
4.539,-0.0029
4.54,-0.004
4.541,0.013
4.542,0.0059
4.543,-0.0007
4.544,0.0134
4.545,-0.0031
4.546,-0.0009
4.547,0.0092
4.548,0.0037
4.549,0.0286
4.55,0.0108
4.551,0.0013
4.552,-0.0135
4.553,0.0214
4.554,0.0262
4.555,0.0304
4.556,0.0266
4.557,0.0159
4.558,0.0128
4.559,0.0158
4.56,0.0079
4.561,0.015
4.562,0.0128
4.563,-0.0174
4.564,-0.039
4.565,-0.0507
4.566,-0.0401
4.567,-0.0496
4.568,-0.0348
4.569,-0.0269
4.57,-0.0341
4.571,-0.0231
4.572,-0.017
4.573,-0.0225
4.574,-0.0143
4.575,-0.0007
4.576,0.0011
4.577,-0.0005
4.578,-0.0049
4.579,0.0073
4.58,0.0057
4.581,0.0101
4.582,0.0033
4.583,0.0022
4.584,0.0033
4.585,0.0024
4.586,-0.0022
4.587,0.0053
4.588,0.0082
4.589,0.011
4.59,0.011
4.591,0.015
4.592,0.0189
4.593,0.0278
4.594,0.0463
4.595,0.0489
4.596,0.0172
4.597,0.013
4.598,-0.0066
4.599,-0.0172
4.6,-0.0141
4.601,-0.017
4.602,-0.0145
4.603,-0.0024
4.604,-0.0002
4.605,-0.0062
4.606,-0.0117
4.607,0.0099
4.608,-0.0227
4.609,-0.0185
4.61,-0.0068
4.611,-0.0033
4.612,-0.0002
4.613,-0.009
4.614,-0.0064
4.615,0.0007
4.616,0.0029
4.617,0.0049
4.618,0.0104
4.619,0.0154
4.62,0.0049
4.621,-0.0018
4.622,0.0066
4.623,-0.0059
4.624,-0.0009
4.625,0.0006
4.626,-0.009
4.627,-0.0029
4.628,0.0049
4.629,0
4.63,0.0009
4.631,0.0017
4.632,0.0039
4.633,-0.0064
4.634,0.0071
4.635,0.0053
4.636,0.0037
4.637,-0.0068
4.638,0.0055
4.639,-0.0027
4.64,0.0108
4.641,-0.0095
4.642,-0.0004
4.643,0.0212
4.644,0.0419
4.645,0.0498
4.646,0.033
4.647,-0.0002
4.648,-0.0145
4.649,-0.0102
4.65,-0.022
4.651,-0.0185
4.652,-0.009
4.653,-0.0119
4.654,-0.0093
4.655,-0.007
4.656,-0.0048
4.657,-0.0027
4.658,-0.0046
4.659,-0.0095
4.66,-0.002
4.661,-0.0033
4.662,-0.0022
4.663,0.0035
4.664,0.0044
4.665,-0.0002
4.666,-0.0077
4.667,-0.0007
4.668,-0.0053
4.669,-0.0029
4.67,0.004
4.671,-0.0099
4.672,-0.0038
4.673,0.0017
4.674,0.0033
4.675,-0.0011
4.676,0.0084
4.677,0.0049
4.678,0.0082
4.679,0.0053
4.68,0.0062
4.681,-0.0029
4.682,-0.0018
4.683,-0.0029
4.684,0.0062
4.685,0.0002
4.686,0.0035
4.687,0.0026
4.688,-0.0002
4.689,0.0022
4.69,0.0029
4.691,0.0035
4.692,0.0066
4.693,0.0009
4.694,0.0125
4.695,0.0341
4.696,0.0429
4.697,0.0454
4.698,0.009
4.699,0.0039
4.7,-0.02
4.701,-0.0157
4.702,-0.0196
4.703,-0.0231
4.704,-0.02
4.705,-0.0229
4.706,-0.0254
4.707,-0.0134
4.708,-0.0156
4.709,-0.0055
4.71,-0.011
4.711,-0.0093
4.712,-0.0049
4.713,-0.0009
4.714,0.0002
4.715,-0.0077
4.716,-0.0027
4.717,0.0075
4.718,-0.0048
4.719,0.0002
4.72,0.0046
4.721,0.0059
4.722,0.007
4.723,0.0103
4.724,-0.0009
4.725,-0.0053
4.726,0.0042
4.727,0.0103
4.728,0
4.729,0.0068
4.73,-0.0044
4.731,0.0092
4.732,0.0037
4.733,-0.0046
4.734,0.0059
4.735,0.0018
4.736,-0.0042
4.737,0.0015
4.738,0.0024
4.739,-0.0004
4.74,0.0071
4.741,0.0062
4.742,0.0053
4.743,0.0066
4.744,0.0059
4.745,0.0037
4.746,0.0139
4.747,0.0364
4.748,0.0526
4.749,0.0319
4.75,-0.0031
4.751,-0.0174
4.752,-0.0216
4.753,-0.0254
4.754,-0.0148
4.755,-0.0179
4.756,-0.0209
4.757,-0.013
4.758,-0.0154
4.759,-0.0088
4.76,-0.0148
4.761,-0.0093
4.762,-0.0044
4.763,-0.0059
4.764,-0.0099
4.765,-0.0088
4.766,-0.0099
4.767,-0.0029
4.768,-0.0002
4.769,-0.0009
4.77,-0.0079
4.771,0.0024
4.772,-0.0071
4.773,-0.0011
4.774,0.0046
4.775,0.0037
4.776,0.0082
4.777,0.0059
4.778,-0.0011
4.779,0.0035
4.78,0.0059
4.781,0.0112
4.782,0.0009
4.783,-0.0005
4.784,0.0035
4.785,0
4.786,0.0011
4.787,0.002
4.788,-0.0007
4.789,-0.0031
4.79,0.0022
4.791,-0.0011
4.792,-0.0042
4.793,0.0042
4.794,0.0125
4.795,0.0309
4.796,0.0068
4.797,-0.0027
4.798,0.0002
4.799,-0.0077
4.8,0.0288
4.801,0.0339
4.802,0.0291
4.803,0.0419
4.804,0.0145
4.805,-0.0178
4.806,-0.022
4.807,-0.0102
4.808,-0.028
4.809,-0.0311
4.81,-0.0163
4.811,-0.0242
4.812,-0.0121
4.813,-0.0187
4.814,-0.0126
4.815,-0.0108
4.816,-0.0059
4.817,-0.0223
4.818,-0.007
4.819,-0.0049
4.82,-0.0031
4.821,-0.0015
4.822,0.015
4.823,0.004
4.824,-0.002
4.825,0.0071
4.826,0.0088
4.827,0.0073
4.828,0.0033
4.829,0.0044
4.83,-0.0035
4.831,-0.0005
4.832,0.004
4.833,-0.0016
4.834,0.0022
4.835,0.0028
4.836,0.0123
4.837,0.011
4.838,-0.0002
4.839,-0.0046
4.84,-0.0033
4.841,0.0002
4.842,0.0013
4.843,0.0062
4.844,0.0053
4.845,0.0015
4.846,0.0055
4.847,0.0048
4.848,0.015
4.849,0.0286
4.85,0.0524
4.851,0.0299
4.852,0.0031
4.853,-0.0146
4.854,-0.0115
4.855,-0.0203
4.856,-0.0229
4.857,-0.03
4.858,-0.019
4.859,-0.017
4.86,-0.0189
4.861,-0.0172
4.862,-0.0097
4.863,-0.011
4.864,-0.0099
4.865,0.0004
4.866,-0.0119
4.867,-0.007
4.868,0.0035
4.869,-0.0033
4.87,0.0002
4.871,0.0013
4.872,0.0062
4.873,0.0017
4.874,0.004
4.875,0.0002
4.876,-0.0016
4.877,-0.0048
4.878,-0.0009
4.879,-0.0084
4.88,-0.0117
4.881,-0.0209
4.882,-0.0198
4.883,-0.0187
4.884,-0.0339
4.885,-0.0449
4.886,-0.0227
4.887,-0.0198
4.888,-0.0064
4.889,0.0057
4.89,0.0123
4.891,0.0143
4.892,0.0161
4.893,0.041
4.894,0.0659
4.895,0.082
4.896,0.0784
4.897,0.0872
4.898,0.0897
4.899,0.1018
4.9,0.1262
4.901,0.1555
4.902,0.1516
4.903,0.1267
4.904,0.1042
4.905,0.1013
4.906,0.1038
4.907,0.0674
4.908,0.0623
4.909,0.048
4.91,0.0352
4.911,0.0077
4.912,-0.0029
4.913,-0.019
4.914,-0.0278
4.915,-0.0681
4.916,-0.1201
4.917,-0.1833
4.918,-0.2086
4.919,-0.2162
4.92,-0.2371
4.921,-0.256
4.922,-0.2732
4.923,-0.2681
4.924,-0.2633
4.925,-0.2243
4.926,-0.1981
4.927,-0.1838
4.928,-0.1796
4.929,-0.1758
4.93,-0.1793
4.931,-0.1761
4.932,-0.1435
4.933,-0.0785
4.934,-0.0132
4.935,0.046
4.936,0.069
4.937,0.104
4.938,0.1357
4.939,0.1529
4.94,0.1685
4.941,0.1542
4.942,0.15
4.943,0.1774
4.944,0.1809
4.945,0.1714
4.946,0.1685
4.947,0.1604
4.948,0.1525
4.949,0.1502
4.95,0.1567
4.951,0.1306
4.952,0.1483
4.953,0.1126
4.954,0.0696
4.955,0.0408
4.956,0.0357
4.957,0.0214
4.958,-0.0002
4.959,0.0037
4.96,-0.007
4.961,-0.0165
4.962,-0.0077
4.963,-0.0211
4.964,-0.0187
4.965,-0.0209
4.966,-0.0229
4.967,-0.0101
4.968,-0.0216
4.969,-0.0231
4.97,-0.0135
4.971,-0.017
4.972,-0.0159
4.973,-0.013
4.974,-0.0121
4.975,-0.0046
4.976,-0.0178
4.977,-0.0123
4.978,-0.0106
4.979,-0.0121
4.98,-0.0108
4.981,-0.0119
4.982,-0.0152
4.983,-0.0181
4.984,-0.0154
4.985,-0.0146
4.986,-0.0231
4.987,-0.0128
4.988,-0.006
4.989,-0.0196
4.99,-0.0141
4.991,-0.0124
4.992,-0.02
4.993,-0.0104
4.994,-0.0044
4.995,0.0013
4.996,-0.0057
4.997,-0.0048
4.998,-0.0081
4.999,-0.0005
5,-0.0035
5.001,0.0104
5.002,0.0407
5.003,0.0278
5.004,0.0082
5.005,-0.0167
5.006,-0.0198
5.007,-0.0286
5.008,-0.026
5.009,-0.0284
5.01,-0.0306
5.011,-0.0205
5.012,-0.0223
5.013,-0.0207
5.014,-0.0163
5.015,-0.0123
5.016,-0.0038
5.017,-0.0141
5.018,0.0009
5.019,-0.0051
5.02,-0.007
5.021,-0.002
5.022,-0.0035
5.023,-0.0048
5.024,0.0037
5.025,-0.002
5.026,0.0029
5.027,0.002
5.028,-0.0055
5.029,0.0015
5.03,0.006
5.031,0.0068
5.032,0.0046
5.033,0.0013
5.034,0.0044
5.035,-0.004
5.036,0.0071
5.037,-0.0064
5.038,-0.0046
5.039,-0.0029
5.04,0.0167
5.041,0.0353
5.042,0.0037
5.043,0.0079
5.044,-0.0038
5.045,-0.0004
5.046,-0.0099
5.047,0.0049
5.048,0.0024
5.049,-0.0059
5.05,-0.0082
5.051,0.0071
5.052,0.0333
5.053,0.0299
5.054,0.046
5.055,0.0489
5.056,0.0194
5.057,-0.0161
5.058,-0.0209
5.059,-0.0251
5.06,-0.0212
5.061,-0.0178
5.062,-0.0146
5.063,-0.0234
5.064,-0.0209
5.065,-0.0185
5.066,-0.0207
5.067,-0.0227
5.068,-0.0062
5.069,-0.0128
5.07,-0.0068
5.071,-0.0013
5.072,0.0103
5.073,-0.0002
5.074,0.0066
5.075,0.0126
5.076,0.0115
5.077,0.0046
5.078,0.0055
5.079,-0.0037
5.08,0.0048
5.081,-0.0101
5.082,0.004
5.083,0.0059
5.084,0.0009
5.085,0.0024
5.086,0.0011
5.087,0.0022
5.088,-0.0035
5.089,-0.0005
5.09,-0.0015
5.091,-0.0007
5.092,0.0062
5.093,-0.0002
5.094,0.0039
5.095,0.0031
5.096,-0.0002
5.097,-0.002
5.098,0.0031
5.099,0.0026
5.1,0
5.101,0.0057
5.102,0.0172
5.103,0.0388
5.104,0.0359
5.105,0.0333
5.106,0.0357
5.107,0.0291
5.108,0.0352
5.109,0.0077
5.11,-0.0357
5.111,-0.03
5.112,-0.0352
5.113,-0.0209
5.114,-0.0251
5.115,-0.0289
5.116,-0.0254
5.117,-0.0159
5.118,-0.013
5.119,-0.0156
5.12,-0.0035
5.121,-0.0145
5.122,-0.0124
5.123,-0.0106
5.124,-0.0024
5.125,0.0051
5.126,0.0064
5.127,0.0053
5.128,0.0064
5.129,-0.0005
5.13,0.0079
5.131,0.0068
5.132,0.0039
5.133,0.0066
5.134,0.0059
5.135,0.0112
5.136,0.0022
5.137,0.0033
5.138,0.0022
5.139,0.0092
5.14,-0.0048
5.141,-0.0027
5.142,0.0064
5.143,-0.0018
5.144,-0.0033
5.145,-0.002
5.146,-0.0031
5.147,0.0048
5.148,0.0057
5.149,0.0084
5.15,0.0028
5.151,-0.0059
5.152,0.0011
5.153,0.0039
5.154,0.0163
5.155,0.0401
5.156,0.037
5.157,0.0458
5.158,0.0483
5.159,0.0119
5.16,-0.0247
5.161,-0.02
5.162,-0.0242
5.163,-0.028
5.164,-0.0245
5.165,-0.0276
5.166,-0.0306
5.167,-0.0227
5.168,-0.0156
5.169,-0.0265
5.17,-0.0044
5.171,-0.0073
5.172,-0.0152
5.173,-0.0128
5.174,-0.0062
5.175,-0.0042
5.176,-0.0024
5.177,0.0026
5.178,0.0011
5.179,0.0024
5.18,-0.0011
5.181,0.0046
5.182,0.0037
5.183,-0.0009
5.184,0.0082
5.185,0.0071
5.186,0.0104
5.187,0.0055
5.188,0.0046
5.189,0.0022
5.19,0.0137
5.191,0.0055
5.192,-0.0081
5.193,0.0121
5.194,0.0095
5.195,-0.0026
5.196,-0.0004
5.197,0.0057
5.198,-0.0071
5.199,0.0079
5.2,-0.0062
5.201,-0.0044
5.202,0.0066
5.203,-0.0016
5.204,0.0059
5.205,0.0264
5.206,0.0293
5.207,0.0267
5.208,0.0436
5.209,0.0192
5.21,-0.0165
5.211,-0.0308
5.212,-0.0179
5.213,-0.0218
5.214,-0.0253
5.215,-0.0284
5.216,-0.0196
5.217,-0.0222
5.218,-0.015
5.219,-0.0172
5.22,-0.0112
5.221,-0.0057
5.222,-0.0139
5.223,-0.0124
5.224,0.0026
5.225,-0.0115
5.226,-0.0024
5.227,-0.0073
5.228,-0.0059
5.229,0.0009
5.23,-0.0002
5.231,-0.0059
5.232,0.0053
5.233,0.0039
5.234,-0.0084
5.235,0.0132
5.236,0.0044
5.237,-0.0035
5.238,-0.0011
5.239,0.0011
5.24,0.0152
5.241,0.006
5.242,-0.0055
5.243,0.002
5.244,0.0143
5.245,0.006
5.246,0.0017
5.247,0.0029
5.248,0.009
5.249,-0.0013
5.25,0
5.251,0.006
5.252,0.0049
5.253,-0.0088
5.254,-0.0059
5.255,0.0081
5.256,0.0383
5.257,0.0511
5.258,0.0315
5.259,-0.0007
5.26,-0.0135
5.261,-0.0174
5.262,-0.0209
5.263,-0.024
5.264,-0.0269
5.265,-0.019
5.266,-0.0119
5.267,0.0035
5.268,-0.0106
5.269,-0.0051
5.27,0.0099
5.271,-0.0082
5.272,-0.0106
5.273,-0.0084
5.274,0.0057
5.275,0.0002
5.276,-0.0048
5.277,-0.0004
5.278,-0.0044
5.279,0.004
5.28,0.0051
5.281,0.0022
5.282,0.0049
5.283,0.0057
5.284,0.0079
5.285,-0.0024
5.286,0.0201
5.287,0.017
5.288,0.0022
5.289,-0.0057
5.29,0.0015
5.291,-0.0007
5.292,-0.0068
5.293,-0.0086
5.294,-0.007
5.295,-0.0084
5.296,-0.0044
5.297,-0.0033
5.298,-0.0066
5.299,-0.0037
5.3,-0.0046
5.301,0.0079
5.302,0.0024
5.303,0.0007
5.304,0.0073
5.305,0.0029
5.306,0.007
5.307,0.0255
5.308,0.0441
5.309,0.061
5.31,0.0322
5.311,0.0048
5.312,-0.0201
5.313,-0.0106
5.314,-0.0254
5.315,-0.028
5.316,-0.0159
5.317,-0.0225
5.318,-0.0205
5.319,-0.0223
5.32,-0.0108
5.321,-0.0123
5.322,-0.0163
5.323,-0.0079
5.324,-0.0046
5.325,-0.0037
5.326,-0.0082
5.327,0.0042
5.328,0.0024
5.329,0.0007
5.33,-0.0007
5.331,0.0006
5.332,0.0066
5.333,0.0009
5.334,0.0059
5.335,0.0104
5.336,0.0097
5.337,-0.0018
5.338,-0.0068
5.339,0.0007
5.34,-0.0033
5.341,0.0002
5.342,0.0104
5.343,0.0037
5.344,0.0048
5.345,0.0059
5.346,-0.0011
5.347,-0.002
5.348,0.0004
5.349,-0.0004
5.35,0.0015
5.351,-0.0016
5.352,0.0022
5.353,0.0077
5.354,0.0007
5.355,0.0044
5.356,-0.0002
5.357,0.0123
5.358,0.0178
5.359,0.0427
5.36,0.0461
5.361,0.0169
5.362,0.0051
5.363,-0.0126
5.364,-0.0031
5.365,-0.0002
5.366,-0.0135
5.367,-0.0207
5.368,-0.0229
5.369,-0.0088
5.37,-0.007
5.371,-0.0119
5.372,-0.0223
5.373,-0.0101
5.374,0.0015
5.375,-0.009
5.376,-0.0077
5.377,-0.0042
5.378,-0.0009
5.379,-0.0079
5.38,-0.0033
5.381,0.0007
5.382,-0.0015
5.383,-0.0033
5.384,0.0024
5.385,-0.0046
5.386,0.0018
5.387,0.0042
5.388,-0.0042
5.389,-0.0053
5.39,0.0099
5.391,0.0033
5.392,0.0013
5.393,-0.0005
5.394,-0.0088
5.395,-0.0013
5.396,0
5.397,0.0035
5.398,0.0024
5.399,0.0015
5.4,-0.0031
5.401,0.0044
5.402,0.0035
5.403,0.0062
5.404,0.0039
5.405,0.0046
5.406,-0.0022
5.407,0.0081
5.408,0.0156
5.409,0.0361
5.41,0.0331
5.411,0.041
5.412,0.0289
5.413,-0.0042
5.414,-0.0185
5.415,-0.0057
5.416,-0.0253
5.417,-0.0218
5.418,-0.0249
5.419,-0.022
5.42,-0.0141
5.421,-0.0165
5.422,-0.0099
5.423,-0.0079
5.424,-0.0097
5.425,-0.0048
5.426,-0.0004
5.427,0.0009
5.428,0.002
5.429,-0.0037
5.43,0.0033
5.431,-0.0031
5.432,0.0044
5.433,0.0035
5.434,0.0026
5.435,0.0049
5.436,0.0103
5.437,0
5.438,-0.0075
5.439,-0.0035
5.44,0.0049
5.441,0.0082
5.442,-0.007
5.443,-0.0048
5.444,0.0053
5.445,0.0071
5.446,-0.0044
5.447,0
5.448,0.004
5.449,-0.0044
5.45,0.0013
5.451,-0.0139
5.452,0.0104
5.453,0.0009
5.454,0.0097
5.455,0.0018
5.456,0.0042
5.457,0.0007
5.458,0.0029
5.459,0.0211
5.46,0.0331
5.461,0.0397
5.462,0.0498
5.463,0.026
5.464,-0.0033
5.465,-0.0229
5.466,-0.0264
5.467,-0.0232
5.468,-0.0262
5.469,-0.0287
5.47,-0.0216
5.471,-0.0194
5.472,-0.0053
5.473,-0.0071
5.474,-0.0154
5.475,-0.0079
5.476,-0.0011
5.477,0
5.478,-0.0033
5.479,-0.0062
5.48,0.0002
5.481,-0.0022
5.482,0
5.483,-0.009
5.484,0.0071
5.485,0.0049
5.486,0.0029
5.487,0.0048
5.488,0.0064
5.489,0.0079
5.49,0.0066
5.491,-0.0046
5.492,-0.0002
5.493,0.0039
5.494,-0.0123
5.495,0.0031
5.496,0.0092
5.497,0.0037
5.498,-0.0013
5.499,-0.0088
5.5,0.0117
5.501,0.0029
5.502,0.0055
5.503,0.0031
5.504,0.0053
5.505,-0.0007
5.506,-0.0026
5.507,-0.0108
5.508,-0.0015
5.509,0.0029
5.51,0.0152
5.511,0.0302
5.512,0.0363
5.513,0.0527
5.514,0.0196
5.515,0.0053
5.516,-0.0163
5.517,-0.0201
5.518,-0.0236
5.519,-0.0267
5.52,-0.0179
5.521,-0.0205
5.522,-0.0229
5.523,-0.0163
5.524,-0.0183
5.525,-0.0201
5.526,-0.0119
5.527,-0.0015
5.528,-0.0027
5.529,-0.0038
5.53,0.0018
5.531,-0.0093
5.532,0.0132
5.533,0.0227
5.534,-0.004
5.535,-0.0005
5.536,0.0026
5.537,-0.0062
5.538,-0.0141
5.539,-0.007
5.54,-0.0048
5.541,-0.0148
5.542,-0.0057
5.543,0.0059
5.544,0.0103
5.545,0.0035
5.546,0.0095
5.547,-0.0075
5.548,0.0145
5.549,0.0115
5.55,-0.0018
5.551,-0.0042
5.552,-0.002
5.553,0.0081
5.554,-0.0048
5.555,-0.0031
5.556,-0.0016
5.557,-0.0004
5.558,-0.0015
5.559,-0.0037
5.56,-0.0004
5.561,0.0148
5.562,0.0348
5.563,0.0535
5.564,0.0315
5.565,0.0048
5.566,0.0013
5.567,-0.0082
5.568,-0.0231
5.569,-0.0097
5.57,-0.0168
5.571,-0.0102
5.572,-0.0163
5.573,-0.0071
5.574,-0.0088
5.575,-0.0102
5.576,-0.009
5.577,-0.0079
5.578,-0.0068
5.579,-0.0097
5.58,0.0006
5.581,0.0018
5.582,-0.0066
5.583,-0.0077
5.584,0.0075
5.585,0.0009
5.586,-0.0011
5.587,0.0007
5.588,0.0024
5.589,0.0009
5.59,0.0049
5.591,-0.0011
5.592,0
5.593,0.0029
5.594,0.0039
5.595,-0.0002
5.596,0.0051
5.597,0.0126
5.598,0.0015
5.599,0
5.6,0.0013
5.601,0.0024
5.602,-0.0055
5.603,-0.0084
5.604,0.0055
5.605,-0.0005
5.606,0.0049
5.607,0
5.608,0.0015
5.609,-0.0026
5.61,0.0044
5.611,-0.0016
5.612,0.0154
5.613,0.0322
5.614,0.0476
5.615,0.0496
5.616,0.0258
5.617,-0.0035
5.618,-0.0152
5.619,-0.0258
5.62,-0.0163
5.621,-0.0192
5.622,-0.0218
5.623,-0.0242
5.624,-0.0132
5.625,-0.0112
5.626,-0.0093
5.627,-0.0077
5.628,-0.0121
5.629,-0.0134
5.63,0.0051
5.631,-0.0082
5.632,-0.0106
5.633,-0.004
5.634,0.0181
5.635,0.0033
5.636,-0.0046
5.637,-0.0022
5.638,0.0044
5.639,-0.0016
5.64,0.0075
5.641,-0.0007
5.642,0.0037
5.643,0.0104
5.644,0.0044
5.645,0.0033
5.646,-0.0016
5.647,0.0011
5.648,0.0018
5.649,0.0071
5.65,-0.0018
5.651,-0.0007
5.652,0.0004
5.653,0.0013
5.654,-0.0051
5.655,-0.0011
5.656,-0.0049
5.657,-0.0031
5.658,0.0026
5.659,0.0004
5.66,0.0049
5.661,0.0051
5.662,0.0095
5.663,0.0123
5.664,0.0198
5.665,0.0368
5.666,0.0537
5.667,0.0249
5.668,-0.0106
5.669,-0.0154
5.67,-0.0282
5.671,-0.0243
5.672,-0.0209
5.673,-0.0178
5.674,-0.0265
5.675,-0.0132
5.676,-0.0108
5.677,-0.0086
5.678,-0.0066
5.679,-0.0231
5.68,-0.0077
5.681,0.0024
5.682,-0.0068
5.683,0.0015
5.684,0.0029
5.685,-0.0011
5.686,0.0024
5.687,0.0057
5.688,0.0028
5.689,-0.0037
5.69,0.002
5.691,0.0042
5.692,0.0048
5.693,-0.0048
5.694,0.002
5.695,-0.0015
5.696,0.0018
5.697,0.0028
5.698,0.0037
5.699,-0.0004
5.7,0.0097
5.701,0.0029
5.702,0.0064
5.703,0.0007
5.704,0.0139
5.705,0.0084
5.706,0.0002
5.707,-0.0042
5.708,-0.0002
5.709,-0.0037
5.71,0.0042
5.711,0.0033
5.712,0
5.713,0.0009
5.714,0.0033
5.715,0.0148
5.716,0.0364
5.717,0.0394
5.718,0.0368
5.719,0.0004
5.72,-0.0152
5.721,-0.02
5.722,-0.0242
5.723,-0.0203
5.724,-0.0238
5.725,-0.0207
5.726,-0.0178
5.727,0.0009
5.728,-0.0062
5.729,-0.0128
5.73,-0.0027
5.731,-0.0082
5.732,-0.0099
5.733,-0.0084
5.734,-0.0044
5.735,0.004
5.736,-0.0038
5.737,-0.0009
5.738,-0.0018
5.739,0.0022
5.74,-0.0079
5.741,-0.0038
5.742,0.0046
5.743,0.0079
5.744,0.0009
5.745,0.013
5.746,0.0081
5.747,0.0006
5.748,-0.0062
5.749,0.0049
5.75,-0.0026
5.751,-0.0013
5.752,-0.0024
5.753,0.0009
5.754,-0.004
5.755,0.0024
5.756,0.0064
5.757,0.0042
5.758,-0.0004
5.759,0.0015
5.76,-0.0024
5.761,0.0031
5.762,0.0039
5.763,0.0022
5.764,-0.0011
5.765,0.0084
5.766,0.0289
5.767,0.026
5.768,0.0502
5.769,0.0341
5.77,0.0073
5.771,-0.0104
5.772,-0.0265
5.773,-0.0178
5.774,-0.0152
5.775,-0.032
5.776,-0.0121
5.777,-0.0042
5.778,0.0178
5.779,0.0029
5.78,-0.0104
5.781,-0.0128
5.782,-0.015
5.783,-0.009
5.784,-0.0145
5.785,-0.0095
5.786,0.0009
5.787,-0.0086
5.788,-0.0121
5.789,-0.0088
5.79,-0.0038
5.791,0.0046
5.792,-0.0102
5.793,-0.0123
5.794,0.0079
5.795,-0.0055
5.796,0.0017
5.797,0.0039
5.798,-0.0022
5.799,-0.0004
5.8,0.0013
5.801,0.0088
5.802,0.002
5.803,0.0009
5.804,0.0112
5.805,0.0125
5.806,-0.0037
5.807,-0.0059
5.808,0.0002
5.809,0.002
5.81,0.0004
5.811,0.0018
5.812,0.0031
5.813,0.0066
5.814,-0.0015
5.815,0.0042
5.816,0.0013
5.817,0.0152
5.818,0.0414
5.819,0.0236
5.82,0.0205
5.821,0.0293
5.822,0.0319
5.823,0.0002
5.824,-0.0214
5.825,-0.0253
5.826,-0.0218
5.827,-0.0313
5.828,-0.0165
5.829,-0.0243
5.83,-0.022
5.831,-0.0154
5.832,-0.0174
5.833,-0.0119
5.834,-0.007
5.835,0.0035
5.836,-0.0005
5.837,-0.009
5.838,-0.0011
5.839,-0.0002
5.84,0.0044
5.841,0.0051
5.842,-0.0018
5.843,-0.0046
5.844,0.0011
5.845,-0.009
5.846,0.0006
5.847,-0.0055
5.848,0.0093
5.849,0.0073
5.85,0.0055
5.851,0.0071
5.852,0.0086
5.853,0.0099
5.854,0.0039
5.855,0.0028
5.856,0.0018
5.857,0.0028
5.858,-0.0013
5.859,0.0026
5.86,0.0101
5.861,0.0031
5.862,0.0004
5.863,-0.0053
5.864,-0.0046
5.865,0.0073
5.866,-0.0002
5.867,0.011
5.868,0.0335
5.869,0.0692
5.87,0.0359
5.871,0.0143
5.872,-0.0212
5.873,-0.0165
5.874,-0.0207
5.875,-0.0168
5.876,-0.0134
5.877,-0.0229
5.878,-0.0141
5.879,-0.0167
5.88,-0.0095
5.881,-0.0161
5.882,-0.0141
5.883,-0.0049
5.884,-0.0033
5.885,0.0011
5.886,-0.0057
5.887,-0.0022
5.888,-0.0079
5.889,-0.0029
5.89,-0.002
5.891,0.0004
5.892,0.0042
5.893,-0.0004
5.894,0.0002
5.895,0.0018
5.896,-0.0037
5.897,0.0002
5.898,0.002
5.899,-0.0011
5.9,0.0028
5.901,0.0082
5.902,0.0044
5.903,-0.0046
5.904,0.0039
5.905,-0.0018
5.906,-0.0068
5.907,-0.0077
5.908,-0.0134
5.909,-0.0018
5.91,-0.0267
5.911,-0.0232
5.912,-0.0264
5.913,-0.0234
5.914,-0.026
5.915,-0.0331
5.916,-0.0322
5.917,-0.0035
5.918,0.0161
5.919,0.0339
5.92,0.0632
5.921,0.067
5.922,0.0493
5.923,0.0397
5.924,0.0427
5.925,0.056
5.926,0.0632
5.927,0.0566
5.928,0.0546
5.929,0.0564
5.93,0.0679
5.931,0.0875
5.932,0.1009
5.933,0.113
5.934,0.102
5.935,0.096
5.936,0.0905
5.937,0.102
5.938,0.0795
5.939,0.07
5.94,0.0432
5.941,0.0255
5.942,0.0093
5.943,-0.0055
5.944,-0.035
5.945,-0.0784
5.946,-0.1534
5.947,-0.1842
5.948,-0.2122
5.949,-0.2375
5.95,-0.2298
5.951,-0.2507
5.952,-0.2444
5.953,-0.2388
5.954,-0.2232
5.955,-0.1994
5.956,-0.1866
5.957,-0.167
5.958,-0.1776
5.959,-0.1681
5.96,-0.1888
5.961,-0.1646
5.962,-0.1159
5.963,-0.0108
5.964,0.0042
5.965,0.045
5.966,0.0824
5.967,0.1296
5.968,0.1633
5.969,0.1531
5.97,0.1811
5.971,0.1895
5.972,0.1818
5.973,0.161
5.974,0.1421
5.975,0.1478
5.976,0.1216
5.977,0.1263
5.978,0.1135
5.979,0.0939
5.98,0.0905
5.981,0.0873
5.982,0.0786
5.983,0.0436
5.984,0.0483
5.985,0.0355
5.986,0.0394
5.987,0.0216
5.988,0.0185
5.989,0.0214
5.99,0.0081
5.991,0.0009
5.992,-0.0013
5.993,0.0007
5.994,-0.0121
5.995,-0.0038
5.996,-0.0113
5.997,-0.0046
5.998,-0.0106
5.999,-0.0117
6,-0.0048
6.001,-0.0093
6.002,-0.0134
6.003,-0.0081
6.004,-0.0099
6.005,-0.0168
6.006,-0.0123
6.007,-0.0082
6.008,-0.0135
6.009,-0.0211
6.01,-0.0181
6.011,-0.0117
6.012,-0.0174
6.013,-0.0121
6.014,-0.0223
6.015,-0.0088
6.016,-0.0143
6.017,-0.0258
6.018,-0.0132
6.019,-0.0088
6.02,-0.0101
6.021,-0.004
6.022,-0.0119
6.023,0.0033
6.024,0.0233
6.025,-0.0117
6.026,-0.0165
6.027,0.0137
6.028,0.0255
6.029,0.0289
6.03,0.032
6.031,-0.0005
6.032,-0.0308
6.033,-0.019
6.034,-0.0225
6.035,-0.0256
6.036,-0.0344
6.037,-0.0265
6.038,-0.0194
6.039,-0.0216
6.04,-0.0236
6.041,-0.0181
6.042,-0.0165
6.043,-0.006
6.044,-0.0073
6.045,-0.0062
6.046,-0.0029
6.047,0.0103
6.048,-0.0135
6.049,-0.004
6.05,0.0048
6.051,0.0022
6.052,-0.0002
6.053,-0.0024
6.054,-0.0044
6.055,-0.0026
6.056,0.0024
6.057,0.0099
6.058,0.0031
6.059,0.0092
6.06,-0.0033
6.061,-0.0049
6.062,0.0055
6.063,0.0042
6.064,-0.0018
6.065,0.0039
6.066,0.0088
6.067,0.0024
6.068,0.0031
6.069,0.0044
6.07,0.0022
6.071,0.0084
6.072,0.0209
6.073,0.0374
6.074,0.044
6.075,0.0339
6.076,0.0064
6.077,-0.0211
6.078,-0.0176
6.079,-0.0271
6.08,-0.0183
6.081,-0.0157
6.082,-0.0134
6.083,-0.0112
6.084,-0.0092
6.085,-0.011
6.086,-0.0126
6.087,-0.0141
6.088,-0.0128
6.089,-0.0044
6.09,-0.0077
6.091,0.0015
6.092,-0.007
6.093,-0.0059
6.094,0.0033
6.095,0.0022
6.096,-0.0081
6.097,0.0042
6.098,0.0059
6.099,0.0044
6.1,0.0031
6.101,0.0042
6.102,0.0031
6.103,0.006
6.104,0.0033
6.105,0.0057
6.106,0.0049
6.107,0.0031
6.108,-0.0026
6.109,0.009
6.11,0.0073
6.111,-0.0062
6.112,0.0029
6.113,0.0013
6.114,0.0028
6.115,-0.0013
6.116,0.0048
6.117,0.0037
6.118,-0.0033
6.119,0.0088
6.12,-0.0066
6.121,-0.0082
6.122,-0.0007
6.123,0.0198
6.124,0.0584
6.125,0.0429
6.126,0.0095
6.127,-0.0121
6.128,-0.0082
6.129,-0.0189
6.13,-0.0157
6.131,-0.0187
6.132,-0.0212
6.133,-0.0189
6.134,-0.0123
6.135,-0.0102
6.136,-0.0084
6.137,-0.0035
6.138,0.0009
6.139,-0.0196
6.14,-0.0048
6.141,-0.0073
6.142,-0.0049
6.143,0.0017
6.144,0.0037
6.145,0.0018
6.146,-0.0064
6.147,-0.002
6.148,0.002
6.149,0.0031
6.15,-0.0002
6.151,0.0068
6.152,0.004
6.153,0.0081
6.154,0.0042
6.155,0.0037
6.156,-0.0046
6.157,0.0011
6.158,-0.0059
6.159,-0.0049
6.16,0.0026
6.161,0.0017
6.162,-0.0029
6.163,0.0028
6.164,0.0049
6.165,0.0044
6.166,-0.0026
6.167,0.0039
6.168,0.0095
6.169,0.0057
6.17,0.0024
6.171,-0.0051
6.172,0.0018
6.173,0.0103
6.174,0.0273
6.175,0.0344
6.176,0.0454
6.177,0.0233
6.178,0.0026
6.179,-0.0161
6.18,-0.0137
6.181,-0.0203
6.182,-0.0183
6.183,-0.0165
6.184,-0.0148
6.185,-0.0223
6.186,-0.0236
6.187,-0.0075
6.188,-0.0097
6.189,-0.0037
6.19,-0.0128
6.191,-0.0112
6.192,-0.0037
6.193,-0.0024
6.194,0.0037
6.195,0.0048
6.196,-0.0022
6.197,-0.0049
6.198,-0.0009
6.199,-0.0016
6.2,0.0017
6.201,0.0011
6.202,-0.004
6.203,0.0062
6.204,0.0018
6.205,0.0006
6.206,-0.0029
6.207,0.0004
6.208,-0.0046
6.209,0.0057
6.21,-0.0011
6.211,0.015
6.212,-0.0004
6.213,-0.0024
6.214,0.0104
6.215,0.0088
6.216,-0.0016
6.217,-0.0004
6.218,-0.0015
6.219,0.0018
6.22,0.0028
6.221,-0.0112
6.222,0.0015
6.223,-0.0046
6.224,0.0082
6.225,0.0331
6.226,0.0366
6.227,0.0335
6.228,0.0364
6.229,0.039
6.23,0.0366
6.231,0.0167
6.232,-0.0075
6.233,-0.03
6.234,-0.0388
6.235,-0.0309
6.236,-0.0381
6.237,-0.0271
6.238,-0.0251
6.239,-0.0232
6.24,-0.0183
6.241,-0.0139
6.242,-0.0152
6.243,-0.0092
6.244,-0.0102
6.245,-0.0152
6.246,-0.0031
6.247,-0.0081
6.248,-0.0037
6.249,0.0031
6.25,0.002
6.251,0.0077
6.252,-0.0035
6.253,0.004
6.254,0.0136
6.255,-0.0049
6.256,0.0029
6.257,0.0006
6.258,-0.0016
6.259,0.0004
6.26,0.0022
6.261,0.0039
6.262,0.0053
6.263,0.0066
6.264,0.0031
6.265,-0.0071
6.266,-0.0031
6.267,0.013
6.268,-0.0024
6.269,0.0238
6.27,0.0203
6.271,0.0042
6.272,-0.0046
6.273,-0.0095
6.274,-0.007
6.275,-0.0046
6.276,0.0286
6.277,0.0333
6.278,0.0461
6.279,0.0266
6.28,0.0017
6.281,-0.0145
6.282,-0.0174
6.283,-0.02
6.284,-0.0128
6.285,-0.015
6.286,-0.0291
6.287,-0.0236
6.288,-0.0154
6.289,-0.0139
6.29,-0.0044
6.291,-0.0009
6.292,-0.0112
6.293,-0.0179
6.294,-0.0018
6.295,0.0004
6.296,0.0024
6.297,-0.0031
6.298,0.0084
6.299,0.004
6.3,0.0028
6.301,0.0088
6.302,-0.0015
6.303,-0.0027
6.304,0.0007
6.305,0.004
6.306,0.0011
6.307,0.002
6.308,0.0044
6.309,0.0114
6.31,-0.0026
6.311,0.0035
6.312,0.0017
6.313,0
6.314,0.0044
6.315,0.0057
6.316,0.0046
6.317,0.0013
6.318,-0.0016
6.319,-0.0044
6.32,-0.0037
6.321,-0.0015
6.322,0.0048
6.323,0.0007
6.324,-0.0088
6.325,0.0028
6.326,0.0178
6.327,0.0359
6.328,0.0335
6.329,0.0667
6.33,0.0333
6.331,-0.0057
6.332,-0.0319
6.333,-0.0176
6.334,-0.0134
6.335,-0.0172
6.336,-0.0207
6.337,-0.0176
6.338,-0.0264
6.339,-0.013
6.34,-0.0059
6.341,-0.0081
6.342,-0.0101
6.343,-0.0046
6.344,-0.0062
6.345,-0.0048
6.346,-0.0088
6.347,-0.0004
6.348,0.0053
6.349,-0.0016
6.35,-0.0026
6.351,-0.0018
6.352,0.0066
6.353,-0.0059
6.354,-0.0009
6.355,0.0035
6.356,0.0048
6.357,0.0059
6.358,-0.0112
6.359,0.0057
6.36,0.0079
6.361,0.0018
6.362,-0.0037
6.363,0.0013
6.364,0.0088
6.365,0.0075
6.366,-0.0009
6.367,0.0024
6.368,-0.0005
6.369,0.0022
6.37,0.0015
6.371,-0.0055
6.372,-0.0064
6.373,-0.004
6.374,-0.0033
6.375,0
6.376,0.0103
6.377,0.0059
6.378,0.0264
6.379,0.0412
6.38,0.0438
6.381,0.0414
6.382,0.0126
6.383,-0.007
6.384,-0.0176
6.385,-0.0271
6.386,-0.0242
6.387,-0.0216
6.388,-0.0287
6.389,-0.0265
6.39,-0.0124
6.391,-0.0106
6.392,-0.0156
6.393,-0.0051
6.394,-0.0119
6.395,-0.0084
6.396,-0.0027
6.397,-0.0077
6.398,-0.0068
6.399,0.004
6.4,-0.0004
6.401,0.0064
6.402,0.0075
6.403,0.0108
6.404,0.0017
6.405,0.0006
6.406,-0.0005
6.407,0.0024
6.408,-0.0004
6.409,0.0037
6.41,0.0075
6.411,0.0013
6.412,0.002
6.413,0.009
6.414,0.0136
6.415,0.0044
6.416,-0.0016
6.417,0.0062
6.418,0.0071
6.419,0.0062
6.42,0.0055
6.421,-0.006
6.422,-0.0077
6.423,-0.0002
6.424,-0.0042
6.425,-0.0031
6.426,0.0037
6.427,-0.0042
6.428,-0.0013
6.429,0.0126
6.43,0.0267
6.431,0.0542
6.432,0.0425
6.433,0.0103
6.434,-0.02
6.435,-0.0082
6.436,-0.0189
6.437,-0.022
6.438,-0.019
6.439,-0.0269
6.44,-0.0245
6.441,-0.0179
6.442,-0.0159
6.443,-0.0104
6.444,-0.0154
6.445,-0.0139
6.446,-0.0099
6.447,-0.0038
6.448,-0.0005
6.449,0.0004
6.45,0.0031
6.451,0.0024
6.452,0.0046
6.453,0.004
6.454,-0.0029
6.455,0.0073
6.456,0.0033
6.457,-0.0079
6.458,-0.0004
6.459,0.0037
6.46,0.0026
6.461,-0.0007
6.462,0.0002
6.463,0.0123
6.464,0.0073
6.465,0.0029
6.466,-0.0011
6.467,0.0049
6.468,0.0152
6.469,-0.0053
6.47,-0.0024
6.471,-0.0049
6.472,-0.0073
6.473,-0.0007
6.474,-0.0027
6.475,0.0028
6.476,-0.0022
6.477,0.0037
6.478,-0.0007
6.479,0.0033
6.48,0.0218
6.481,0.0352
6.482,0.0619
6.483,0.0513
6.484,0.0026
6.485,-0.0044
6.486,-0.0232
6.487,-0.0289
6.488,-0.0238
6.489,-0.0286
6.49,-0.0157
6.491,-0.0196
6.492,-0.0161
6.493,-0.0192
6.494,-0.0222
6.495,-0.0088
6.496,-0.0112
6.497,-0.0002
6.498,0.0059
6.499,0.0004
6.5,0.002
6.501,-0.0055
6.502,0.0095
6.503,0.0035
6.504,-0.002
6.505,-0.0037
6.506,0.0068
6.507,0.0028
6.508,0.0039
6.509,0.0028
6.51,0.0018
6.511,0.0064
6.512,0.0088
6.513,0.0049
6.514,0.0031
6.515,0.0126
6.516,0.0277
6.517,0.0055
6.518,-0.0152
6.519,-0.0073
6.52,-0.0145
6.521,-0.0035
6.522,-0.0055
6.523,-0.0073
6.524,-0.0024
6.525,-0.0159
6.526,-0.0104
6.527,0.0011
6.528,-0.0015
6.529,-0.0029
6.53,0.0093
6.531,0.0309
6.532,0.0339
6.533,0.058
6.534,0.0288
6.535,0.0092
6.536,-0.0086
6.537,-0.0117
6.538,-0.0146
6.539,-0.0225
6.54,-0.0201
6.541,-0.0135
6.542,-0.0236
6.543,-0.0145
6.544,-0.0128
6.545,-0.0084
6.546,-0.0097
6.547,-0.0086
6.548,-0.0075
6.549,-0.0005
6.55,-0.0033
6.551,-0.0057
6.552,-0.0064
6.553,0.0026
6.554,-0.0035
6.555,0.0068
6.556,-0.0027
6.557,0.0084
6.558,0.0099
6.559,0.0112
6.56,0.0051
6.561,-0.0119
6.562,0.0002
6.563,0.0112
6.564,0.0011
6.565,0.0029
6.566,0.0046
6.567,0.0031
6.568,0.0018
6.569,0.0007
6.57,0.011
6.571,0.0015
6.572,-0.002
6.573,0.0082
6.574,-0.0013
6.575,-0.0073
6.576,0.0006
6.577,-0.0004
6.578,0.0024
6.579,-0.0007
6.58,0.0084
6.581,0.0145
6.582,0.0315
6.583,0.0386
6.584,0.0452
6.585,0.019
6.586,0.0156
6.587,-0.007
6.588,-0.0395
6.589,-0.0267
6.59,-0.0229
6.591,-0.0194
6.592,-0.0163
6.593,-0.0134
6.594,-0.0159
6.595,-0.0088
6.596,-0.0066
6.597,-0.0046
6.598,-0.0101
6.599,-0.0051
6.6,-0.0037
6.601,-0.0049
6.602,0.0011
6.603,-0.0022
6.604,-0.0013
6.605,0.0015
6.606,-0.0009
6.607,-0.0079
6.608,0.006
6.609,0.0081
6.61,0.0026
6.611,0.0009
6.612,0.0024
6.613,0.0092
6.614,-0.002
6.615,0.0024
6.616,0.0037
6.617,0.0002
6.618,-0.0009
6.619,-0.0038
6.62,0.0007
6.621,0
6.622,-0.0022
6.623,-0.0027
6.624,0.0004
6.625,0.0009
6.626,0.0055
6.627,0.0049
6.628,-0.0035
6.629,0.0026
6.63,0.0007
6.631,0.004
6.632,-0.0051
6.633,0.0134
6.634,0.0429
6.635,0.039
6.636,0.0355
6.637,0.045
6.638,0.0302
6.639,-0.0101
6.64,-0.0273
6.641,-0.0324
6.642,-0.0276
6.643,-0.0234
6.644,-0.0273
6.645,-0.0308
6.646,-0.0212
6.647,-0.0183
6.648,-0.0157
6.649,-0.0086
6.65,-0.0064
6.651,-0.0084
6.652,0.0007
6.653,0.009
6.654,-0.0106
6.655,-0.0081
6.656,-0.0009
6.657,0.0013
6.658,0.0073
6.659,-0.0018
6.66,0.0097
6.661,-0.0038
6.662,0.0053
6.663,0.0037
6.664,0.0022
6.665,0.0062
6.666,0.0073
6.667,0.0062
6.668,0.0071
6.669,0.0007
6.67,0.0064
6.671,-0.002
6.672,-0.0009
6.673,0.002
6.674,0.0066
6.675,-0.0059
6.676,-0.0113
6.677,0.0103
6.678,0.0015
6.679,-0.0011
6.68,0.0013
6.681,0.0044
6.682,0.0022
6.683,0.0203
6.684,0.0227
6.685,0.0471
6.686,0.0502
6.687,0.0176
6.688,-0.004
6.689,-0.0002
6.69,-0.0179
6.691,-0.0211
6.692,-0.0181
6.693,-0.0207
6.694,-0.0183
6.695,-0.0161
6.696,-0.006
6.697,-0.0115
6.698,-0.0132
6.699,-0.0176
6.7,-0.0081
6.701,0.0104
6.702,0.0079
6.703,-0.009
6.704,-0.0068
6.705,-0.0007
6.706,-0.0026
6.707,-0.0009
6.708,0.0066
6.709,-0.0029
6.71,-0.0018
6.711,0.0015
6.712,0.0064
6.713,0
6.714,0.004
6.715,0.0033
6.716,0.0051
6.717,0.002
6.718,0.0071
6.719,0.0026
6.72,-0.0057
6.721,0.0022
6.722,0.0013
6.723,0.0004
6.724,0.0028
6.725,0.0035
6.726,0.0017
6.727,-0.004
6.728,-0.0002
6.729,0.0073
6.73,0.0024
6.731,-0.0022
6.732,0.0059
6.733,0.0002
6.734,0.0086
6.735,0.0256
6.736,0.0233
6.737,0.0386
6.738,0.0447
6.739,0.0172
6.74,-0.0102
6.741,-0.0137
6.742,-0.0232
6.743,-0.0262
6.744,-0.0287
6.745,-0.0167
6.746,-0.0189
6.747,-0.0249
6.748,-0.0084
6.749,-0.0018
6.75,-0.0119
6.751,-0.0064
6.752,-0.0015
6.753,-0.009
6.754,-0.0049
6.755,0.0035
6.756,-0.0022
6.757,-0.0031
6.758,-0.0022
6.759,0.0002
6.76,0.0117
6.761,0.0267
6.762,0.0126
6.763,0.0071
6.764,-0.0044
6.765,-0.0119
6.766,0.0004
6.767,-0.0046
6.768,-0.006
6.769,-0.0048
6.77,-0.0013
6.771,-0.0024
6.772,-0.0053
6.773,0.0011
6.774,0.0004
6.775,0.0104
6.776,0.0064
6.777,0.0029
6.778,0.0018
6.779,0.0009
6.78,-0.0055
6.781,0.0053
6.782,-0.0112
6.783,0.0029
6.784,0.0007
6.785,0.0108
6.786,0.0346
6.787,0.0441
6.788,0.0529
6.789,0.0342
6.79,0.0123
6.791,-0.0084
6.792,-0.0218
6.793,-0.0194
6.794,-0.0172
6.795,-0.0192
6.796,-0.0174
6.797,-0.0223
6.798,-0.0119
6.799,-0.0242
6.8,-0.0159
6.801,0.0006
6.802,-0.006
6.803,-0.0081
6.804,-0.0026
6.805,0.009
6.806,-0.0015
6.807,-0.0002
6.808,0.0033
6.809,0.0044
6.81,0.0015
6.811,-0.0031
6.812,-0.0007
6.813,0.0031
6.814,-0.0044
6.815,0.0006
6.816,0.009
6.817,0.0057
6.818,0.0028
6.819,0.0055
6.82,-0.0053
6.821,-0.0009
6.822,0.0004
6.823,-0.0007
6.824,-0.0018
6.825,0.0011
6.826,-0.0016
6.827,0.0024
6.828,0.0017
6.829,-0.0046
6.83,0.0062
6.831,-0.0013
6.832,0.0055
6.833,-0.0106
6.834,0.0081
6.835,0.0015
6.836,-0.0005
6.837,0.0269
6.838,0.0386
6.839,0.0352
6.84,0.0383
6.841,0.0176
6.842,-0.0174
6.843,-0.0126
6.844,-0.0168
6.845,-0.0207
6.846,-0.0242
6.847,-0.0146
6.848,-0.0234
6.849,-0.0156
6.85,-0.0084
6.851,-0.0062
6.852,-0.0082
6.853,-0.0064
6.854,-0.0081
6.855,-0.0005
6.856,0.0007
6.857,-0.0004
6.858,0.0007
6.859,0.0037
6.86,-0.0009
6.861,0.0066
6.862,0.0178
6.863,0.0103
6.864,0.0062
6.865,0.0147
6.866,-0.0024
6.867,0
6.868,0.0022
6.869,-0.0038
6.87,-0.002
6.871,-0.0037
6.872,-0.0022
6.873,-0.0009
6.874,-0.0044
6.875,-0.0011
6.876,-0.0002
6.877,-0.0029
6.878,-0.0005
6.879,0.0002
6.88,0.002
6.881,0.0002
6.882,-0.0026
6.883,-0.0013
6.884,0
6.885,0.0022
6.886,-0.0016
6.887,0.0059
6.888,0.0229
6.889,0.0397
6.89,0.0463
6.891,0.0161
6.892,-0.0141
6.893,-0.0179
6.894,-0.0214
6.895,-0.0183
6.896,-0.0154
6.897,-0.0179
6.898,-0.03
6.899,-0.0234
6.9,-0.0134
6.901,-0.0115
6.902,-0.0165
6.903,-0.0121
6.904,-0.0134
6.905,-0.0022
6.906,-0.0007
6.907,-0.002
6.908,-0.0009
6.909,0.007
6.91,0.006
6.911,0.007
6.912,0.0126
6.913,0.0011
6.914,0.0028
6.915,-0.0108
6.916,-0.0053
6.917,0.0097
6.918,0.0037
6.919,0.0128
6.92,-0.0055
6.921,0.0066
6.922,0.0044
6.923,0.0104
6.924,-0.0024
6.925,-0.0139
6.926,0.0026
6.927,0.0004
6.928,-0.0016
6.929,0.0002
6.93,0.0051
6.931,0.0037
6.932,0.0077
6.933,0.0042
6.934,-0.0082
6.935,0.0068
6.936,-0.0059
6.937,0.0123
6.938,0.0194
6.939,0.0394
6.94,0.0315
6.941,0.0436
6.942,0.0414
6.943,0.0152
6.944,-0.017
6.945,-0.0212
6.946,-0.0251
6.947,-0.0216
6.948,-0.0247
6.949,-0.0276
6.95,-0.0198
6.951,-0.0174
6.952,-0.0152
6.953,-0.0172
6.954,-0.0081
6.955,-0.0031
6.956,0.0044
6.957,-0.0024
6.958,-0.0108
6.959,-0.0029
6.96,0.0103
6.961,0.0011
6.962,-0.0005
6.963,-0.0081
6.964,0.0015
6.965,0.0049
6.966,0.0106
6.967,-0.0046
6.968,0.0154
6.969,0.002
6.97,0.0044
6.971,0.0022
6.972,-0.0038
6.973,0.0053
6.974,0.007
6.975,-0.0095
6.976,-0.0117
6.977,-0.0016
6.978,0.0075
6.979,-0.0007
6.98,0.0037
6.981,0.0024
6.982,-0.0037
6.983,-0.0004
6.984,0.0046
6.985,-0.0038
6.986,-0.0071
6.987,0.0198
6.988,0.0046
6.989,0.0245
6.99,0.0432
6.991,0.0311
6.992,0.0421
6.993,0.028
6.994,0.0042
6.995,-0.0053
6.996,-0.0141
6.997,-0.0167
6.998,-0.0287
6.999,-0.0178
7,-0.0157
7.001,-0.0139
7.002,-0.0222
7.003,-0.0146
7.004,-0.0024
7.005,-0.0106
7.006,-0.0062
7.007,0.0143
7.008,-0.0005
7.009,-0.0084
7.01,-0.0108
7.011,0.0002
7.012,-0.0099
7.013,-0.0117
7.014,-0.02
7.015,-0.0335
7.016,-0.028
7.017,-0.0297
7.018,-0.0253
7.019,-0.0403
7.02,-0.0342
7.021,-0.0251
7.022,-0.0101
7.023,-0.004
7.024,0.0125
7.025,0.0103
7.026,0.0123
7.027,0.0397
7.028,0.0593
7.029,0.0771
7.03,0.074
7.031,0.0828
7.032,0.0853
7.033,0.0782
7.034,0.0804
7.035,0.1066
7.036,0.1243
7.037,0.1212
7.038,0.134
7.039,0.1311
7.04,0.139
7.041,0.1318
7.042,0.1562
7.043,0.1269
7.044,0.0678
7.045,0.0255
7.046,0.0024
7.047,-0.0185
7.048,-0.0247
7.049,-0.0535
7.05,-0.1218
7.051,-0.1685
7.052,-0.2107
7.053,-0.2184
7.054,-0.2393
7.055,-0.271
7.056,-0.2882
7.057,-0.2831
7.058,-0.2688
7.059,-0.2386
7.06,-0.219
7.061,-0.2012
7.062,-0.1851
7.063,-0.188
7.064,-0.1802
7.065,-0.197
7.066,-0.1816
7.067,-0.1514
7.068,-0.0864
7.069,-0.0024
7.07,0.054
7.071,0.1053
7.072,0.1333
7.073,0.1417
7.074,0.1494
7.075,0.1564
7.076,0.1752
7.077,0.1809
7.078,0.186
7.079,0.1813
7.08,0.1771
7.081,0.1732
7.082,0.1626
7.083,0.1401
7.084,0.1372
7.085,0.113
7.086,0.0969
7.087,0.082
7.088,0.0742
7.089,0.0689
7.09,0.052
7.091,0.063
7.092,0.065
7.093,0.0705
7.094,0.0656
7.095,0.043
7.096,0.0137
7.097,-0.0137
7.098,-0.0172
7.099,-0.0333
7.1,-0.0304
7.101,-0.033
7.102,-0.0306
7.103,-0.0328
7.104,-0.0348
7.105,-0.0293
7.106,-0.0276
7.107,-0.0201
7.108,-0.0214
7.109,-0.0179
7.11,-0.0168
7.111,-0.0238
7.112,-0.0192
7.113,-0.0135
7.114,-0.022
7.115,-0.0231
7.116,-0.0119
7.117,-0.0104
7.118,-0.0117
7.119,-0.0152
7.12,-0.0209
7.121,-0.0159
7.122,-0.0075
7.123,-0.0154
7.124,-0.0145
7.125,-0.0154
7.126,-0.0211
7.127,-0.0095
7.128,-0.0178
7.129,-0.0102
7.13,-0.0062
7.131,-0.0123
7.132,-0.009
7.133,-0.006
7.134,-0.0051
7.135,0.0006
7.136,-0.0033
7.137,-0.0066
7.138,0.0029
7.139,-0.0176
7.14,0
7.141,-0.0029
7.142,0.0158
7.143,0.0181
7.144,0.0247
7.145,0.0348
7.146,0.0403
7.147,0.0154
7.148,-0.0168
7.149,-0.0211
7.15,-0.0172
7.151,-0.0278
7.152,-0.0247
7.153,-0.0276
7.154,-0.0251
7.155,-0.0227
7.156,-0.0205
7.157,-0.0185
7.158,-0.0093
7.159,-0.0077
7.16,-0.0121
7.161,-0.0053
7.162,-0.0042
7.163,0.0037
7.164,0.0007
7.165,-0.0057
7.166,-0.0081
7.167,0.0035
7.168,0.0117
7.169,0.0013
7.17,0.0053
7.171,-0.0007
7.172,-0.0064
7.173,-0.0035
7.174,0.0049
7.175,-0.0007
7.176,0.0002
7.177,0.0141
7.178,0.004
7.179,-0.0051
7.18,0.0132
7.181,-0.0037
7.182,0.0029
7.183,0.0049
7.184,-0.0005
7.185,-0.0022
7.186,0.0053
7.187,0.0066
7.188,-0.0018
7.189,0.0039
7.19,0.0009
7.191,-0.0059
7.192,0.0081
7.193,0.0181
7.194,0.0309
7.195,0.0559
7.196,0.0309
7.197,0.0017
7.198,-0.0101
7.199,-0.0135
7.2,-0.0231
7.201,-0.0143
7.202,-0.0064
7.203,-0.0185
7.204,-0.0163
7.205,-0.0102
7.206,-0.0157
7.207,-0.0075
7.208,-0.009
7.209,-0.0049
7.21,-0.0038
7.211,-0.0027
7.212,-0.0057
7.213,0.0082
7.214,0.0022
7.215,-0.007
7.216,-0.0053
7.217,-0.0009
7.218,0.0004
7.219,0.0088
7.22,-0.0015
7.221,-0.0055
7.222,-0.0044
7.223,-0.0033
7.224,0.0017
7.225,0.0137
7.226,-0.0013
7.227,0.0007
7.228,0.0062
7.229,-0.002
7.23,0.0024
7.231,0.0064
7.232,0.0099
7.233,0.011
7.234,-0.0042
7.235,-0.002
7.236,0.004
7.237,-0.0051
7.238,0.0132
7.239,-0.0037
7.24,-0.0015
7.241,-0.0115
7.242,0.0007
7.243,0.0062
7.244,0.0013
7.245,-0.0031
7.246,0.0009
7.247,-0.0002
7.248,0.0147
7.249,-0.0075
7.25,-0.0046
7.251,0.0033
7.252,0.0201
7.253,0.0311
7.254,0.0049
7.255,-0.0057
7.256,0.0169
7.257,0.0256
7.258,0.0498
7.259,0.0141
7.26,-0.0097
7.261,-0.0139
7.262,-0.0178
7.263,-0.0355
7.264,-0.0194
7.265,-0.0223
7.266,-0.0249
7.267,-0.0225
7.268,-0.0159
7.269,-0.0099
7.27,-0.0044
7.271,-0.006
7.272,-0.0104
7.273,-0.0092
7.274,-0.0057
7.275,0.0022
7.276,-0.0048
7.277,-0.0002
7.278,0.0106
7.279,0.0062
7.28,-0.0033
7.281,0.0051
7.282,0.0062
7.283,0.0053
7.284,-0.0049
7.285,0.0101
7.286,0.004
7.287,0.0059
7.288,0.0009
7.289,0.0084
7.29,0.0044
7.291,0.0055
7.292,0.0022
7.293,0.0022
7.294,0.0051
7.295,0.0042
7.296,0.0167
7.297,0.0331
7.298,0.0485
7.299,0.0425
7.3,0.015
7.301,-0.0124
7.302,-0.0159
7.303,-0.032
7.304,-0.0232
7.305,-0.0258
7.306,-0.0137
7.307,-0.0203
7.308,-0.0223
7.309,-0.0168
7.31,-0.0119
7.311,-0.0075
7.312,-0.0143
7.313,0.0042
7.314,0.0068
7.315,-0.0004
7.316,0.0062
7.317,0.0002
7.318,-0.009
7.319,-0.004
7.32,0.0004
7.321,0.0017
7.322,0.0077
7.323,0.0044
7.324,0.0053
7.325,0.0137
7.326,0.0104
7.327,-0.0027
7.328,0.0028
7.329,-0.0022
7.33,0.0174
7.331,-0.0068
7.332,-0.0099
7.333,0.0049
7.334,0.0024
7.335,-0.0048
7.336,0.0062
7.337,0.0002
7.338,-0.009
7.339,-0.004
7.34,-0.0084
7.341,0.0066
7.342,0.0006
7.343,0.006
7.344,0.0073
7.345,0.0123
7.346,0.0079
7.347,0.0284
7.348,0.0313
7.349,0.0339
7.35,0.0315
7.351,0.0469
7.352,0.0288
7.353,-0.0029
7.354,-0.0331
7.355,-0.0293
7.356,-0.0328
7.357,-0.0359
7.358,-0.0271
7.359,-0.0297
7.36,-0.0273
7.361,-0.0207
7.362,-0.0187
7.363,-0.0168
7.364,-0.0119
7.365,-0.0044
7.366,-0.0167
7.367,-0.0183
7.368,0.0013
7.369,-0.0013
7.37,-0.0084
7.371,0.007
7.372,-0.0071
7.373,-0.0053
7.374,0.0029
7.375,0.0044
7.376,0.0084
7.377,0.0119
7.378,0.0086
7.379,-0.0066
7.38,0.0088
7.381,0.0068
7.382,0.0049
7.383,0
7.384,0.0015
7.385,0.0082
7.386,0.0093
7.387,0.0104
7.388,-0.0007
7.389,0.0007
7.39,-0.0033
7.391,0.0002
7.392,-0.0055
7.393,0.0037
7.394,-0.0024
7.395,0.0044
7.396,0.0011
7.397,0.0163
7.398,0.0363
7.399,0.0496
7.4,0.0472
7.401,0.0229
7.402,0.0068
7.403,-0.0081
7.404,-0.0159
7.405,-0.0231
7.406,-0.0253
7.407,-0.0031
7.408,-0.0179
7.409,-0.0205
7.41,-0.0134
7.411,-0.0068
7.412,-0.0088
7.413,-0.007
7.414,0.0013
7.415,-0.0062
7.416,0.0006
7.417,-0.0005
7.418,0.0028
7.419,0.0097
7.42,-0.0024
7.421,-0.0073
7.422,-0.0029
7.423,0.0066
7.424,0.0055
7.425,-0.007
7.426,0.0013
7.427,0.0057
7.428,-0.0066
7.429,0.0084
7.43,0.0104
7.431,0.0086
7.432,-0.0029
7.433,0.0015
7.434,0.0028
7.435,-0.0007
7.436,0.0004
7.437,0.0073
7.438,0.0064
7.439,0.0007
7.44,-0.0108
7.441,0.0075
7.442,0.0004
7.443,-0.0018
7.444,0.0042
7.445,0.006
7.446,0.0103
7.447,-0.0013
7.448,0.0152
7.449,0.0352
7.45,0.0326
7.451,0.0397
7.452,0.0375
7.453,0.0073
7.454,-0.0143
7.455,-0.0181
7.456,-0.0146
7.457,-0.0308
7.458,-0.022
7.459,-0.0245
7.46,-0.0174
7.461,-0.0152
7.462,-0.0172
7.463,-0.0154
7.464,-0.0071
7.465,-0.0146
7.466,0.0004
7.467,-0.0016
7.468,-0.0108
7.469,-0.0059
7.47,0.0046
7.471,0.0033
7.472,-0.0051
7.473,0.0028
7.474,-0.0002
7.475,0.0007
7.476,0.0048
7.477,0.0026
7.478,0.002
7.479,0.0026
7.48,-0.0026
7.481,0.0064
7.482,0.0053
7.483,0.0086
7.484,0.0037
7.485,0.0046
7.486,0.0022
7.487,0.0106
7.488,-0.0064
7.489,-0.004
7.49,0.0026
7.491,0.0006
7.492,-0.0013
7.493,0.007
7.494,0.0084
7.495,0.0044
7.496,-0.0016
7.497,-0.0022
7.498,0.0148
7.499,0.022
7.5,0.0066
7.501,-0.0075
7.502,-0.0093
7.503,0.0156
7.504,0.0549
7.505,0.0394
7.506,0.006
7.507,-0.0156
7.508,-0.0194
7.509,-0.03
7.51,-0.0139
7.511,-0.0227
7.512,-0.0093
7.513,-0.0214
7.514,-0.0148
7.515,-0.0088
7.516,-0.0033
7.517,-0.0148
7.518,-0.0104
7.519,-0.0117
7.52,-0.0005
7.521,0.0039
7.522,-0.0002
7.523,-0.0062
7.524,-0.0005
7.525,-0.0035
7.526,-0.0007
7.527,0.0117
7.528,0.0026
7.529,0.0009
7.53,-0.0005
7.531,0.0117
7.532,-0.0066
7.533,-0.0042
7.534,-0.002
7.535,0
7.536,0.0018
7.537,0.0101
7.538,-0.0004
7.539,0.0037
7.54,0.0048
7.541,-0.0031
7.542,-0.0002
7.543,-0.0011
7.544,0.0081
7.545,0.002
7.546,-0.0013
7.547,0.0057
7.548,0.0022
7.549,0.0031
7.55,0.0139
7.551,0.0364
7.552,0.0396
7.553,0.0483
7.554,0.0297
7.555,-0.002
7.556,-0.0148
7.557,-0.0187
7.558,-0.0222
7.559,-0.0126
7.56,-0.0214
7.561,-0.0135
7.562,-0.0159
7.563,-0.0181
7.564,-0.0121
7.565,-0.0102
7.566,-0.0119
7.567,-0.0075
7.568,-0.0062
7.569,-0.0051
7.57,0.0006
7.571,-0.0044
7.572,-0.0108
7.573,-0.0051
7.574,0.0049
7.575,-0.0018
7.576,0.0017
7.577,0.0028
7.578,0.0037
7.579,-0.0009
7.58,0.0031
7.581,0.0009
7.582,0.0004
7.583,-0.0002
7.584,0.0049
7.585,-0.0013
7.586,0.0079
7.587,-0.0005
7.588,0.0028
7.589,-0.0084
7.59,0.0112
7.591,-0.0022
7.592,0.0049
7.593,-0.0016
7.594,0.0004
7.595,-0.0051
7.596,0.0031
7.597,0.0075
7.598,-0.002
7.599,0.0088
7.6,0.0077
7.601,-0.0093
7.602,0.0271
7.603,0.0322
7.604,0.0275
7.605,0.0317
7.606,0.0355
7.607,0.032
7.608,0.0225
7.609,-0.0161
7.61,-0.011
7.611,-0.0348
7.612,-0.0306
7.613,-0.0267
7.614,-0.0232
7.615,-0.0264
7.616,-0.0234
7.617,-0.0209
7.618,-0.0137
7.619,-0.0071
7.62,-0.0092
7.621,-0.0183
7.622,0
7.623,-0.0071
7.624,-0.0049
7.625,0.0051
7.626,0.0033
7.627,-0.0016
7.628,-0.0002
7.629,0.0011
7.63,0
7.631,0.0011
7.632,0.0081
7.633,0.0126
7.634,0.0035
7.635,0
7.636,0.0011
7.637,0.002
7.638,-0.0082
7.639,-0.0042
7.64,0.0042
7.641,0.0167
7.642,0.0051
7.643,-0.0024
7.644,0.0017
7.645,-0.0068
7.646,0.0011
7.647,0.006
7.648,0.0088
7.649,-0.002
7.65,0.0022
7.651,0.0066
7.652,0.0134
7.653,0.0319
7.654,0.0452
7.655,0.0476
7.656,0.0145
7.657,0.0002
7.658,-0.0126
7.659,-0.0165
7.66,-0.02
7.661,-0.0104
7.662,-0.0253
7.663,-0.0174
7.664,-0.0102
7.665,-0.0081
7.666,0.002
7.667,-0.0108
7.668,-0.0092
7.669,-0.0106
7.67,-0.0038
7.671,-0.0073
7.672,-0.0106
7.673,0.0026
7.674,0.0007
7.675,0.009
7.676,-0.0046
7.677,0.0009
7.678,0.0059
7.679,0.0015
7.68,-0.0053
7.681,0.0082
7.682,0.0064
7.683,0.0081
7.684,-0.0084
7.685,0.007
7.686,0.013
7.687,0.0039
7.688,0.0055
7.689,-0.002
7.69,0.002
7.691,0.0009
7.692,-0.0048
7.693,-0.0038
7.694,-0.0084
7.695,0.0007
7.696,0.0018
7.697,0.0029
7.698,0.0039
7.699,0.0029
7.7,0.0053
7.701,0.0073
7.702,0.0004
7.703,0.0143
7.704,0.0244
7.705,0.0482
7.706,0.0386
7.707,0.0179
7.708,-0.017
7.709,-0.0218
7.71,-0.026
7.711,-0.0222
7.712,-0.0187
7.713,-0.0156
7.714,-0.0126
7.715,-0.0152
7.716,-0.0081
7.717,-0.0102
7.718,-0.0123
7.719,-0.0141
7.72,-0.0059
7.721,-0.0015
7.722,-0.0002
7.723,-0.0037
7.724,0.0042
7.725,-0.0049
7.726,0.0011
7.727,0.0114
7.728,0.0046
7.729,0.0081
7.73,-0.0022
7.731,0.0128
7.732,-0.0013
7.733,-0.0068
7.734,0.0048
7.735,0.0062
7.736,-0.0033
7.737,-0.0044
7.738,0.0013
7.739,0.0104
7.74,-0.0007
7.741,-0.0022
7.742,-0.0035
7.743,0.0101
7.744,0.0302
7.745,0.0115
7.746,-0.0053
7.747,0.0013
7.748,-0.0007
7.749,-0.0099
7.75,-0.0016
7.751,-0.0031
7.752,0
7.753,-0.004
7.754,-0.0051
7.755,0.0119
7.756,0.019
7.757,0.03
7.758,0.0441
7.759,0.0167
7.76,-0.0108
7.761,-0.0143
7.762,-0.0238
7.763,-0.0209
7.764,-0.0287
7.765,-0.0216
7.766,-0.0106
7.767,-0.0247
7.768,-0.0229
7.769,-0.0179
7.77,-0.0075
7.771,0.0048
7.772,-0.0035
7.773,0.004
7.774,-0.0055
7.775,0.0057
7.776,-0.0018
7.777,-0.0031
7.778,0.0081
7.779,0.0037
7.78,-0.0004
7.781,0.0007
7.782,0.0064
7.783,-0.0005
7.784,-0.0051
7.785,0.0073
7.786,-0.0018
7.787,0.0097
7.788,0.0022
7.789,0.0035
7.79,-0.0026
7.791,0.0007
7.792,0.0037
7.793,-0.0009
7.794,0.0015
7.795,0.0068
7.796,0.0073
7.797,0.0092
7.798,0.0007
7.799,0.0018
7.8,0.0029
7.801,-0.0082
7.802,0.0022
7.803,0.0051
7.804,-0.0044
7.805,0.004
7.806,0.0211
7.807,0.043
7.808,0.0518
7.809,0.0277
7.81,-0.0146
7.811,-0.009
7.812,-0.0141
7.813,-0.0284
7.814,-0.0242
7.815,-0.028
7.816,-0.0102
7.817,-0.0198
7.818,-0.0168
7.819,-0.009
7.82,-0.0113
7.821,-0.0135
7.822,-0.0035
7.823,-0.009
7.824,-0.0007
7.825,-0.0051
7.826,-0.0038
7.827,-0.0049
7.828,0.0121
7.829,0
7.83,0.0066
7.831,0.0046
7.832,-0.0046
7.833,0.007
7.834,0.0055
7.835,0.0015
7.836,0.0004
7.837,0.0037
7.838,-0.0013
7.839,-0.0004
7.84,0.0088
7.841,0.0028
7.842,0.0176
7.843,-0.0046
7.844,-0.0016
7.845,0.0009
7.846,0.0033
7.847,0.0011
7.848,0.0071
7.849,0.0017
7.85,0
7.851,-0.0015
7.852,-0.0027
7.853,-0.0016
7.854,0.0037
7.855,-0.0088
7.856,0.0028
7.857,0.0253
7.858,0.0348
7.859,0.026
7.86,0.0502
7.861,0.0341
7.862,-0.0046
7.863,-0.0201
7.864,-0.0249
7.865,-0.0207
7.866,-0.0245
7.867,-0.028
7.868,-0.0185
7.869,-0.0214
7.87,-0.0135
7.871,-0.0207
7.872,-0.0229
7.873,-0.0168
7.874,-0.0077
7.875,-0.006
7.876,0.0015
7.877,0.0028
7.878,-0.0033
7.879,0
7.88,0.007
7.881,0.0006
7.882,-0.0035
7.883,0.0018
7.884,0.0037
7.885,0.0018
7.886,0.0092
7.887,0.0082
7.888,-0.0002
7.889,0.0055
7.89,0.0104
7.891,-0.0016
7.892,0
7.893,-0.0015
7.894,0.0026
7.895,0.006
7.896,0.0028
7.897,-0.0022
7.898,-0.0031
7.899,0.0044
7.9,0.0015
7.901,0.0024
7.902,0.0048
7.903,0.0101
7.904,-0.0002
7.905,-0.0051
7.906,0.0024
7.907,0.0229
7.908,0.0317
7.909,0.045
7.91,0.0282
7.911,-0.0005
7.912,-0.0044
7.913,-0.015
7.914,-0.0181
7.915,-0.0152
7.916,-0.0178
7.917,-0.0154
7.918,-0.022
7.919,-0.0119
7.92,-0.0211
7.921,-0.0027
7.922,-0.0099
7.923,-0.0033
7.924,-0.0053
7.925,0.0002
7.926,-0.0015
7.927,0
7.928,-0.004
7.929,-0.0005
7.93,0.0051
7.931,0.0042
7.932,0.0033
7.933,-0.0007
7.934,0.0046
7.935,0.0108
7.936,0.0101
7.937,0.0031
7.938,-0.0015
7.939,-0.0007
7.94,-0.0029
7.941,-0.0024
7.942,0.0007
7.943,-0.002
7.944,-0.0095
7.945,0.0007
7.946,0.002
7.947,-0.004
7.948,-0.0029
7.949,0.002
7.95,0.0029
7.951,0.0053
7.952,0
7.953,0.0018
7.954,-0.0026
7.955,0.0048
7.956,0
7.957,0.0029
7.958,0.0169
7.959,0.0269
7.96,0.0361
7.961,0.0476
7.962,0.052
7.963,0.0315
7.964,-0.013
7.965,-0.0192
7.966,-0.0249
7.967,-0.03
7.968,-0.0253
7.969,-0.0211
7.97,-0.0249
7.971,-0.0284
7.972,-0.0189
7.973,-0.0218
7.974,-0.0139
7.975,-0.0115
7.976,-0.0049
7.977,-0.0029
7.978,-0.0011
7.979,0.0039
7.98,-0.0005
7.981,-0.0018
7.982,-0.0053
7.983,-0.002
7.984,0.0049
7.985,0.0022
7.986,0.0029
7.987,0.0037
7.988,0.0055
7.989,0.0125
7.99,0.0264
7.991,0.0002
7.992,-0.0104
7.993,-0.0073
7.994,0.0015
7.995,0.004
7.996,-0.0081
7.997,-0.0059
7.998,-0.0038
7.999,-0.0057
8,-0.004
8.001,0.0004
8.002,-0.0009
8.003,-0.002
8.004,-0.0009
8.005,0.002
8.006,-0.0082
8.007,-0.0029
8.008,0.0011
8.009,0.0196
8.01,0.0383
8.011,0.0551
8.012,0.0352
8.013,0.011
8.014,-0.0051
8.015,-0.0139
8.016,-0.0113
8.017,-0.0234
8.018,-0.0168
8.019,-0.0189
8.02,-0.017
8.021,-0.0055
8.022,-0.013
8.023,-0.0143
8.024,-0.0007
8.025,0.0011
8.026,-0.0071
8.027,0.0004
8.028,-0.0009
8.029,-0.002
8.03,-0.0053
8.031,-0.0062
8.032,-0.0035
8.033,-0.0059
8.034,-0.0128
8.035,-0.0156
8.036,-0.0099
8.037,-0.0214
8.038,-0.0264
8.039,-0.0278
8.04,-0.0265
8.041,-0.0231
8.042,-0.022
8.043,-0.0068
8.044,0.0042
8.045,0.0183
8.046,0.0128
8.047,0.0278
8.048,0.0339
8.049,0.0467
8.05,0.0716
8.051,0.0751
8.052,0.0782
8.053,0.0753
8.054,0.0778
8.055,0.0754
8.056,0.0864
8.057,0.0965
8.058,0.1201
8.059,0.1146
8.06,0.113
8.061,0.1265
8.062,0.1357
8.063,0.134
8.064,0.1176
8.065,0.0844
8.066,0.0414
8.067,0.0011
8.068,-0.0145
8.069,-0.0383
8.07,-0.0599
8.071,-0.119
8.072,-0.1954
8.073,-0.2261
8.074,-0.2355
8.075,-0.2439
8.076,-0.267
8.077,-0.26
8.078,-0.2411
8.079,-0.2355
8.08,-0.2093
8.081,-0.195
8.082,-0.1648
8.083,-0.1765
8.084,-0.173
8.085,-0.1761
8.086,-0.1732
8.087,-0.1329
8.088,-0.0463
8.089,-0.009
8.09,0.0474
8.091,0.0782
8.092,0.0875
8.093,0.1298
8.094,0.1375
8.095,0.1306
8.096,0.1368
8.097,0.1311
8.098,0.1467
8.099,0.1514
8.1,0.1556
8.101,0.1518
8.102,0.1483
8.103,0.1452
8.104,0.1304
8.105,0.1062
8.106,0.0967
8.107,0.0938
8.108,0.0859
8.109,0.0762
8.11,0.0542
8.111,0.063
8.112,0.0604
8.113,0.0824
8.114,0.0676
8.115,0.0326
8.116,0.0088
8.117,-0.004
8.118,-0.0315
8.119,-0.0209
8.12,-0.024
8.121,-0.0328
8.122,-0.0194
8.123,-0.0218
8.124,-0.0328
8.125,-0.0267
8.126,-0.0212
8.127,-0.0196
8.128,-0.0271
8.129,-0.0121
8.13,-0.0181
8.131,-0.02
8.132,-0.0216
8.133,-0.0141
8.134,-0.0181
8.135,-0.017
8.136,-0.0181
8.137,-0.0132
8.138,-0.0159
8.139,-0.0119
8.14,-0.0157
8.141,-0.0203
8.142,-0.0108
8.143,-0.0068
8.144,-0.0128
8.145,-0.0095
8.146,-0.0026
8.147,-0.0165
8.148,-0.0064
8.149,-0.0119
8.15,-0.0168
8.151,-0.0093
8.152,0.0002
8.153,0.0013
8.154,-0.0044
8.155,-0.0073
8.156,-0.0046
8.157,-0.0022
8.158,-0.0123
8.159,-0.011
8.16,-0.0081
8.161,0.0004
8.162,0.0128
8.163,0.0278
8.164,0.05
8.165,0.0352
8.166,0.0002
8.167,-0.0141
8.168,-0.0183
8.169,-0.0222
8.17,-0.0256
8.171,-0.0161
8.172,-0.0132
8.173,-0.0157
8.174,-0.0181
8.175,-0.0115
8.176,-0.0055
8.177,-0.0146
8.178,-0.0097
8.179,-0.0053
8.18,-0.0066
8.181,-0.0055
8.182,-0.0044
8.183,-0.0015
8.184,-0.006
8.185,-0.0117
8.186,-0.0048
8.187,0.0037
8.188,0.0026
8.189,-0.0066
8.19,0.007
8.191,0.0051
8.192,0.0002
8.193,0.0017
8.194,0.0057
8.195,0.0068
8.196,-0.0011
8.197,-0.0102
8.198,-0.0018
8.199,-0.0051
8.2,0.004
8.201,0.0152
8.202,0.0048
8.203,0.0007
8.204,0.0018
8.205,0.0029
8.206,0.0039
8.207,-0.0007
8.208,0.0033
8.209,0.0086
8.21,0.0024
8.211,0.0095
8.212,0.0004
8.213,0.0189
8.214,0.0214
8.215,0.0434
8.216,0.0463
8.217,0.0222
8.218,-0.0071
8.219,-0.011
8.22,-0.0287
8.221,-0.0192
8.222,-0.0163
8.223,-0.0242
8.224,-0.017
8.225,-0.0104
8.226,-0.0245
8.227,-0.0154
8.228,-0.0071
8.229,-0.0086
8.23,-0.0073
8.231,0.0039
8.232,0.0053
8.233,0.0013
8.234,0.0002
8.235,0.0172
8.236,0.0293
8.237,0.0006
8.238,-0.0033
8.239,-0.0068
8.24,-0.0037
8.241,-0.0007
8.242,-0.0033
8.243,-0.0154
8.244,0
8.245,-0.002
8.246,-0.0002
8.247,-0.0084
8.248,0.002
8.249,-0.0075
8.25,-0.0015
8.251,-0.0026
8.252,0.0106
8.253,0.0015
8.254,-0.0002
8.255,-0.0046
8.256,0.0022
8.257,0.0033
8.258,0.0044
8.259,-0.0048
8.26,0.0037
8.261,0.0004
8.262,0.0051
8.263,0.0042
8.264,0.0106
8.265,0.0231
8.266,0.0286
8.267,0.0502
8.268,0.0295
8.269,0.0216
8.27,-0.0148
8.271,-0.02
8.272,-0.0247
8.273,-0.0205
8.274,-0.0167
8.275,-0.0132
8.276,-0.0227
8.277,-0.0198
8.278,-0.0172
8.279,-0.0101
8.28,-0.0079
8.281,-0.0059
8.282,-0.004
8.283,-0.0123
8.284,-0.0079
8.285,-0.0092
8.286,-0.0007
8.287,0.0004
8.288,-0.0005
8.289,-0.0015
8.29,0.0093
8.291,0.0018
8.292,0.0141
8.293,-0.0009
8.294,-0.0029
8.295,0.0026
8.296,0.0009
8.297,-0.0035
8.298,-0.0022
8.299,-0.0011
8.3,0.0068
8.301,0.0117
8.302,0.009
8.303,0.013
8.304,0.0015
8.305,-0.0068
8.306,0.0068
8.307,-0.006
8.308,0.0022
8.309,-0.0053
8.31,0.0097
8.311,-0.0004
8.312,0.0015
8.313,0.0022
8.314,0.0006
8.315,0.0201
8.316,0.0388
8.317,0.046
8.318,0.0482
8.319,0.022
8.32,0.0114
8.321,-0.0112
8.322,-0.02
8.323,-0.0333
8.324,-0.0165
8.325,-0.0143
8.326,-0.0163
8.327,-0.0254
8.328,-0.0205
8.329,-0.004
8.33,-0.0106
8.331,-0.0167
8.332,-0.0075
8.333,-0.0059
8.334,-0.0073
8.335,-0.0033
8.336,0.0079
8.337,0.0035
8.338,0.0022
8.339,0.0033
8.34,0.0044
8.341,-0.0005
8.342,-0.009
8.343,-0.0011
8.344,0.0081
8.345,-0.0104
8.346,0.0137
8.347,0.0042
8.348,0.0071
8.349,0.0046
8.35,0.0117
8.351,-0.0126
8.352,-0.0031
8.353,-0.0002
8.354,-0.0027
8.355,-0.0051
8.356,-0.0029
8.357,-0.0049
8.358,-0.0068
8.359,-0.0018
8.36,0.0026
8.361,0.0013
8.362,0.0097
8.363,-0.0005
8.364,0.0007
8.365,0.0048
8.366,0.0082
8.367,0.0253
8.368,0.0229
8.369,0.0472
8.37,0.0377
8.371,0.0051
8.372,-0.0251
8.373,-0.0212
8.374,-0.0247
8.375,-0.0216
8.376,-0.0245
8.377,-0.0112
8.378,-0.0232
8.379,-0.0167
8.38,-0.0146
8.381,-0.0165
8.382,-0.0115
8.383,-0.013
8.384,-0.0062
8.385,-0.0174
8.386,-0.0038
8.387,0.0017
8.388,-0.0066
8.389,0.0009
8.39,0.0049
8.391,0.0084
8.392,0.0028
8.393,0.0037
8.394,0.0082
8.395,0.0042
8.396,0.0004
8.397,0.0106
8.398,-0.009
8.399,-0.0011
8.4,0.006
8.401,-0.0005
8.402,-0.0106
8.403,0.0059
8.404,0.0081
8.405,0.0101
8.406,0.0046
8.407,-0.0004
8.408,-0.0018
8.409,-0.0059
8.41,0.0077
8.411,-0.0015
8.412,0.0101
8.413,-0.0035
8.414,0.0093
8.415,-0.0044
8.416,0.0039
8.417,-0.0066
8.418,0.0139
8.419,0.0346
8.42,0.0425
8.421,0.0304
8.422,0.0458
8.423,0.0438
8.424,0.0163
8.425,-0.0271
8.426,-0.0328
8.427,-0.0276
8.428,-0.0324
8.429,-0.0282
8.43,-0.0165
8.431,-0.02
8.432,-0.0231
8.433,-0.0201
8.434,-0.0123
8.435,-0.0194
8.436,-0.0084
8.437,-0.0024
8.438,0.0031
8.439,-0.0051
8.44,-0.0066
8.441,0.0029
8.442,0.004
8.443,-0.0016
8.444,-0.0046
8.445,0
8.446,0.0092
8.447,0.0057
8.448,0.0068
8.449,0.0059
8.45,-0.0044
8.451,-0.0004
8.452,0.0031
8.453,0.0042
8.454,0.0134
8.455,0.0099
8.456,-0.0049
8.457,0.0051
8.458,-0.004
8.459,-0.0024
8.46,0.0051
8.461,0.0039
8.462,-0.0073
8.463,0.0002
8.464,-0.0066
8.465,0.007
8.466,0.0029
8.467,0.0084
8.468,0.0167
8.469,0.0331
8.47,0.0441
8.471,0.0502
8.472,0.0374
8.473,0.0125
8.474,-0.0198
8.475,-0.0156
8.476,-0.0194
8.477,-0.0159
8.478,-0.0254
8.479,-0.0225
8.48,-0.0146
8.481,0.0121
8.482,0.0086
8.483,-0.0009
8.484,-0.0038
8.485,-0.0064
8.486,-0.0088
8.487,-0.0198
8.488,-0.0057
8.489,-0.0075
8.49,0.004
8.491,-0.0095
8.492,-0.0077
8.493,-0.0027
8.494,-0.0042
8.495,-0.0002
8.496,0.0009
8.497,-0.0024
8.498,0.0006
8.499,0.0015
8.5,0.0055
8.501,0.0002
8.502,0.002
8.503,0.0077
8.504,0.0024
8.505,0.0042
8.506,-0.0053
8.507,0.0097
8.508,-0.0004
8.509,0.0015
8.51,0.0064
8.511,-0.0011
8.512,-0.0024
8.513,0.0088
8.514,0.0013
8.515,-0.0082
8.516,0.0079
8.517,0.0103
8.518,0.0037
8.519,0.0017
8.52,0.0291
8.521,0.0408
8.522,0.0515
8.523,0.0289
8.524,0.0022
8.525,-0.0084
8.526,-0.0115
8.527,-0.0264
8.528,-0.0238
8.529,-0.0214
8.53,-0.0104
8.531,-0.0124
8.532,-0.0216
8.533,-0.0134
8.534,-0.0029
8.535,-0.007
8.536,-0.0154
8.537,-0.0097
8.538,-0.0048
8.539,0.0037
8.54,-0.0112
8.541,-0.0051
8.542,0.0077
8.543,0.006
8.544,0.0104
8.545,-0.0018
8.546,0.0031
8.547,0.0017
8.548,0.0029
8.549,-0.0005
8.55,0.0006
8.551,0.0035
8.552,-0.0049
8.553,-0.006
8.554,-0.0011
8.555,0.0128
8.556,0.0028
8.557,0.0009
8.558,0.0026
8.559,0.004
8.56,0
8.561,-0.0035
8.562,0.0044
8.563,0.0015
8.564,0.0006
8.565,0.0097
8.566,-0.0088
8.567,0.0046
8.568,0.0125
8.569,-0.0044
8.57,0.0156
8.571,0.0289
8.572,0.0361
8.573,0.0515
8.574,0.0253
8.575,-0.007
8.576,-0.0112
8.577,-0.015
8.578,-0.0185
8.579,-0.028
8.58,-0.0192
8.581,-0.0059
8.582,-0.0179
8.583,-0.0157
8.584,-0.0258
8.585,-0.0057
8.586,-0.0135
8.587,-0.0159
8.588,-0.0137
8.589,-0.0037
8.59,0.0018
8.591,-0.0097
8.592,0.0007
8.593,0.002
8.594,0.0031
8.595,-0.0002
8.596,-0.0071
8.597,0.0049
8.598,-0.0033
8.599,-0.0018
8.6,0.0049
8.601,-0.0011
8.602,0.0068
8.603,0.0097
8.604,0.0088
8.605,0.0031
8.606,0.0039
8.607,0.0006
8.608,0
8.609,0.0028
8.61,0.0015
8.611,0.0002
8.612,0.0064
8.613,0.0037
8.614,-0.0004
8.615,-0.0011
8.616,0.0051
8.617,-0.0005
8.618,-0.0121
8.619,0.0007
8.62,-0.0009
8.621,0.0216
8.622,0.0311
8.623,0.0518
8.624,0.0331
8.625,0.0015
8.626,-0.0027
8.627,-0.0223
8.628,-0.0258
8.629,-0.0163
8.63,-0.0192
8.631,-0.0167
8.632,-0.0046
8.633,-0.0156
8.634,-0.0055
8.635,-0.0073
8.636,0.0009
8.637,-0.0005
8.638,-0.0046
8.639,-0.0081
8.64,-0.0092
8.641,0.002
8.642,-0.0024
8.643,-0.0011
8.644,0.0073
8.645,0.004
8.646,-0.0092
8.647,0.0037
8.648,0.002
8.649,0.0064
8.65,0.0024
8.651,0.0059
8.652,-0.002
8.653,0.0009
8.654,-0.0112
8.655,0.0137
8.656,0.0103
8.657,0.0007
8.658,0.0037
8.659,0.0011
8.66,0.0132
8.661,0.0066
8.662,0.0046
8.663,-0.0082
8.664,0
8.665,0.0044
8.666,0.0031
8.667,-0.0029
8.668,0.0095
8.669,-0.0088
8.67,0.0007
8.671,0.0031
8.672,0.0185
8.673,0.0286
8.674,0.0267
8.675,0.045
8.676,0.0282
8.677,0.0128
8.678,-0.0174
8.679,-0.0216
8.68,-0.0178
8.681,-0.0284
8.682,-0.0189
8.683,-0.0218
8.684,-0.0192
8.685,-0.0216
8.686,-0.0194
8.687,-0.0093
8.688,-0.0112
8.689,-0.0029
8.69,-0.0015
8.691,-0.0082
8.692,-0.0022
8.693,-0.0055
8.694,0.0037
8.695,0.0048
8.696,-0.0009
8.697,0
8.698,-0.0084
8.699,0.0018
8.7,0.0114
8.701,0.0029
8.702,-0.0027
8.703,0.0002
8.704,0.0029
8.705,0.0037
8.706,-0.0048
8.707,0.0031
8.708,0.004
8.709,0.0086
8.71,0.0062
8.711,-0.0053
8.712,0.0029
8.713,-0.0046
8.714,0.0104
8.715,-0.0077
8.716,-0.0005
8.717,-0.0027
8.718,-0.0007
8.719,0.0048
8.72,0.0097
8.721,0.0081
8.722,0.0125
8.723,-0.0081
8.724,0.0007
8.725,0.0033
8.726,0.0104
8.727,0.0214
8.728,0.0194
8.729,0.0066
8.73,0.0082
8.731,0.0126
8.732,0.0331
8.733,0.0302
8.734,0.006
8.735,-0.0101
8.736,-0.0189
8.737,-0.0267
8.738,-0.0196
8.739,-0.0218
8.74,-0.0238
8.741,-0.022
8.742,-0.0037
8.743,0.0231
8.744,0.0266
8.745,0.0491
8.746,0.0046
8.747,-0.0016
8.748,-0.0304
8.749,-0.0253
8.75,-0.0205
8.751,-0.0163
8.752,-0.0201
8.753,-0.0167
8.754,-0.0135
8.755,-0.0106
8.756,-0.0081
8.757,-0.0009
8.758,0.0013
8.759,-0.0088
8.76,0.0004
8.761,-0.0013
8.762,0.0002
8.763,-0.0011
8.764,-0.0022
8.765,-0.0055
8.766,-0.0026
8.767,0.0059
8.768,0.0092
8.769,0.0141
8.77,0.0057
8.771,0.0114
8.772,0.0059
8.773,0.0009
8.774,0.0148
8.775,0.033
8.776,0.0549
8.777,0.0579
8.778,0.0284
8.779,0.0009
8.78,-0.0097
8.781,-0.0066
8.782,-0.0214
8.783,-0.0189
8.784,-0.026
8.785,-0.0238
8.786,-0.0178
8.787,-0.0196
8.788,-0.0113
8.789,-0.0128
8.79,-0.006
8.791,-0.0071
8.792,0.0007
8.793,-0.0084
8.794,-0.0024
8.795,0.0055
8.796,0.0046
8.797,-0.0038
8.798,-0.0117
8.799,0.0035
8.8,0.0013
8.801,0.0033
8.802,0.0015
8.803,0.0064
8.804,0.0049
8.805,0.0009
8.806,-0.0026
8.807,0.0099
8.808,0.0049
8.809,0.0006
8.81,0.0101
8.811,0.0136
8.812,0.0057
8.813,0.0048
8.814,0.0039
8.815,0.0079
8.816,-0.0037
8.817,-0.002
8.818,-0.0005
8.819,0.0062
8.82,-0.0049
8.821,0.0026
8.822,-0.007
8.823,-0.0117
8.824,0.0018
8.825,0.011
8.826,0.0293
8.827,0.0513
8.828,0.0364
8.829,0.0015
8.83,-0.0223
8.831,-0.0181
8.832,-0.0143
8.833,-0.0178
8.834,-0.0146
8.835,-0.0176
8.836,-0.0201
8.837,-0.0225
8.838,-0.0115
8.839,-0.0135
8.84,-0.019
8.841,-0.0007
8.842,0.0064
8.843,0.0042
8.844,0.0062
8.845,-0.0102
8.846,-0.0037
8.847,-0.0016
8.848,0.0002
8.849,0.0018
8.85,0.0004
8.851,0.0044
8.852,0.0055
8.853,0.0044
8.854,-0.0026
8.855,-0.0053
8.856,0.0055
8.857,0.007
8.858,0.011
8.859,-0.0051
8.86,0.0103
8.861,0.0042
8.862,-0.0049
8.863,0.0066
8.864,-0.007
8.865,-0.0015
8.866,0.0035
8.867,0.0049
8.868,-0.0046
8.869,0.009
8.87,-0.0002
8.871,-0.0051
8.872,-0.0095
8.873,-0.0082
8.874,-0.0029
8.875,-0.0064
8.876,0.0106
8.877,0.0326
8.878,0.0297
8.879,0.043
8.88,0.0551
8.881,0.022
8.882,-0.0018
8.883,-0.0234
8.884,-0.0196
8.885,-0.0161
8.886,-0.0256
8.887,-0.0227
8.888,-0.0201
8.889,-0.0178
8.89,-0.0112
8.891,-0.0092
8.892,-0.0146
8.893,0.0004
8.894,0.0064
8.895,-0.0064
8.896,-0.0015
8.897,-0.0059
8.898,0.0064
8.899,-0.0086
8.9,-0.0026
8.901,-0.0044
8.902,-0.0093
8.903,0.0071
8.904,0.0093
8.905,0.0073
8.906,0.0018
8.907,0.0002
8.908,0.0046
8.909,-0.0022
8.91,0.0163
8.911,-0.0079
8.912,-0.011
8.913,0.0039
8.914,-0.004
8.915,-0.0016
8.916,0.0006
8.917,0.0066
8.918,0.0048
8.919,0.0097
8.92,0.0022
8.921,0.0035
8.922,0.0046
8.923,0.0035
8.924,-0.0035
8.925,0.0022
8.926,0.0031
8.927,0.0156
8.928,0.0174
8.929,0.0256
8.93,0.0181
8.931,0.0386
8.932,0.0416
8.933,0.0013
8.934,-0.0159
8.935,-0.0211
8.936,-0.0258
8.937,-0.03
8.938,-0.0104
8.939,-0.0282
8.94,-0.0187
8.941,-0.0216
8.942,-0.019
8.943,-0.0119
8.944,-0.0053
8.945,-0.0113
8.946,-0.0059
8.947,-0.0042
8.948,0.0033
8.949,0.002
8.95,-0.0015
8.951,-0.0048
8.952,0.0022
8.953,0.0031
8.954,0.0039
8.955,-0.0031
8.956,-0.0095
8.957,-0.0088
8.958,-0.0081
8.959,-0.0005
8.96,0.0147
8.961,0.0125
8.962,0.0064
8.963,-0.0027
8.964,-0.011
8.965,0.0055
8.966,0.0033
8.967,-0.0027
8.968,0.0028
8.969,0.0011
8.97,0.0055
8.971,0.0015
8.972,0.0099
8.973,0.0269
8.974,0.0002
8.975,0.0179
8.976,-0.0037
8.977,-0.0068
8.978,-0.0038
8.979,0.004
8.98,0.0357
8.981,0.0315
8.982,0.0432
8.983,0.0183
8.984,-0.0174
8.985,-0.0222
8.986,-0.0264
8.987,-0.0302
8.988,-0.0196
8.989,-0.0227
8.99,-0.0256
8.991,-0.0123
8.992,-0.0099
8.993,-0.0121
8.994,-0.006
8.995,-0.0005
8.996,-0.0121
8.997,-0.0046
8.998,0.0077
8.999,-0.0005
9,0.0039
9.001,0.0026
9.002,0.0211
9.003,0.0077
9.004,0.0006
9.005,0.0028
9.006,-0.0033
9.007,-0.0015
9.008,-0.0064
9.009,0.004
9.01,0.0053
9.011,-0.0031
9.012,-0.002
9.013,0.0071
9.014,0.0037
9.015,-0.002
9.016,0.0049
9.017,0.0077
9.018,-0.0031
9.019,0.0013
9.02,0.0053
9.021,-0.0007
9.022,0.0004
9.023,-0.0046
9.024,-0.0055
9.025,0.0002
9.026,0.0024
9.027,0.0037
9.028,0.0055
9.029,0.006
9.03,0.0145
9.031,0.033
9.032,0.0408
9.033,0.0432
9.034,0.0145
9.035,-0.013
9.036,-0.0236
9.037,-0.0205
9.038,-0.0234
9.039,-0.0313
9.04,-0.0145
9.041,-0.0079
9.042,-0.0139
9.043,-0.0231
9.044,-0.0247
9.045,-0.0051
9.046,-0.0026
