0,0.0055
0.001,-0.0045
0.002,-0.0027
0.003,-0.001
0.004,-0.0054
0.005,0.0151
0.006,0.0299
0.007,0.0057
0.008,0.0026
0.009,-0.0003
0.01,-0.0029
0.011,-0.0005
0.012,-0.0071
0.013,-0.0172
0.014,-0.008
0.015,-0.0263
0.016,-0.0142
0.017,-0.012
0.018,-0.01
0.019,-0.0118
0.02,-0.0201
0.021,-0.0157
0.022,-0.0062
0.023,-0.0001
0.024,0.0032
0.025,0.0081
0.026,0.0017
0.027,0.001
0.028,0.0017
0.029,0.0023
0.03,0.0028
0.031,0.009
0.032,-0.0018
0.033,0.0026
0.034,0.0121
0.035,0.0087
0.036,0.0008
0.037,-0.0062
0.038,0.0002
0.039,0.0026
0.04,-0.0089
0.041,-0.0172
0.042,-0.0157
0.043,-0.0062
0.044,0.0023
0.045,0.0101
0.046,0.0213
0.047,0.0317
0.048,0.0222
0.049,0.0233
0.05,0.0063
0.051,-0.0054
0.052,-0.0078
0.053,-0.0012
0.054,0.0129
0.055,0.0147
0.056,0.0164
0.057,0.0028
0.058,-0.0064
0.059,-0.0047
0.06,-0.0091
0.061,-0.0131
0.062,-0.0047
0.063,-0.0126
0.064,-0.0014
0.065,-0.0029
0.066,-0.0042
0.067,-0.0102
0.068,-0.0045
0.069,-0.0016
0.07,-0.0025
0.071,-0.0117
0.072,-0.0151
0.073,-0.0118
0.074,-0.0049
0.075,-0.004
0.076,-0.008
0.077,0.0004
0.078,0.0107
0.079,0.012
0.08,0.0085
0.081,0.0052
0.082,0.0121
0.083,0.0057
0.084,0.0034
0.085,-0.0005
0.086,-0.0051
0.087,-0.002
0.088,-0.0014
0.089,-0.0038
0.09,-0.0016
0.091,0.0046
0.092,0.0055
0.093,0.0032
0.094,-0.0007
0.095,-0.0109
0.096,-0.0124
0.097,-0.0084
0.098,0.0001
0.099,0.0012
0.1,0.0002
0.101,-0.0025
0.102,-0.0018
0.103,0.0039
0.104,0.0032
0.105,-0.0071
0.106,-0.0027
0.107,0.0041
0.108,0.0076
0.109,0.0224
0.11,0.0284
0.111,0.0229
0.112,0.0279
0.113,0.0383
0.114,0.0533
0.115,0.0473
0.116,0.0198
0.117,-0.0157
0.118,-0.0205
0.119,-0.0333
0.12,-0.0294
0.121,-0.04
0.122,-0.0239
0.123,-0.0151
0.124,-0.0073
0.125,-0.0049
0.126,-0.0159
0.127,-0.0139
0.128,-0.0157
0.129,-0.0042
0.13,-0.0027
0.131,0.0041
0.132,0.0076
0.133,0.0087
0.134,0.0017
0.135,-0.0047
0.136,-0.0122
0.137,-0.0151
0.138,-0.0124
0.139,-0.0032
0.14,0.0052
0.141,0.0085
0.142,0.0094
0.143,0.0121
0.144,0.0065
0.145,-0.0051
0.146,-0.0166
0.147,-0.0062
0.148,0.0061
0.149,0.0077
0.15,0.0002
0.151,0.0015
0.152,-0.0069
0.153,-0.0069
0.154,0.001
0.155,0.0162
0.156,0.0272
0.157,0.0211
0.158,0.0376
0.159,0.0398
0.16,0.0257
0.161,0.0055
0.162,-0.0078
0.163,-0.0102
0.164,-0.0036
0.165,-0.0096
0.166,-0.0042
0.167,-0.0124
0.168,-0.0168
0.169,-0.0236
0.17,-0.0075
0.171,-0.0096
0.172,-0.0157
0.173,-0.0175
0.174,-0.0126
0.175,-0.0051
0.176,-0.0118
0.177,-0.0107
0.178,-0.0029
0.179,-0.0078
0.18,-0.0069
0.181,-0.0062
0.182,-0.0009
0.183,0.0066
0.184,0.0057
0.185,-0.0007
0.186,0.0017
0.187,0.0024
0.188,0.0057
0.189,0.0039
0.19,0.0023
0.191,0.0068
0.192,0.0074
0.193,0.0023
0.194,0.0125
0.195,0.0169
0.196,0.0101
0.197,-0.0034
0.198,-0.0089
0.199,-0.004
0.2,0.0004
0.201,0.0099
0.202,0.016
0.203,0.0035
0.204,-0.0018
0.205,0.0032
0.206,0.0046
0.207,0.0251
0.208,0.0164
0.209,0.0297
0.21,0.0226
0.211,0.0072
0.212,-0.0029
0.213,-0.012
0.214,-0.017
0.215,-0.0126
0.216,-0.0221
0.217,-0.0186
0.218,-0.0197
0.219,-0.0226
0.22,-0.0162
0.221,-0.0139
0.222,-0.0023
0.223,0.0059
0.224,0.0045
0.225,-0.0051
0.226,-0.0086
0.227,-0.0118
0.228,-0.0128
0.229,-0.0043
0.23,-0.01
0.231,-0.0031
0.232,0.0072
0.233,0.014
0.234,0.0175
0.235,0.0164
0.236,0.0052
0.237,0.0008
0.238,-0.0115
0.239,-0.0098
0.24,0.0037
0.241,0.0055
0.242,0.0105
0.243,-0.0031
0.244,-0.0049
0.245,-0.0098
0.246,-0.0142
0.247,0.0035
0.248,0.0107
0.249,0.0129
0.25,0.0189
0.251,0.0317
0.252,0.0202
0.253,0.0066
0.254,-0.0062
0.255,-0.0069
0.256,-0.0086
0.257,-0.001
0.258,0.0112
0.259,0.0129
0.26,0.0143
0.261,0.0239
0.262,0.0103
0.263,0.0085
0.264,0.0035
0.265,0.0079
0.266,-0.0016
0.267,-0.0027
0.268,-0.0197
0.269,-0.0318
0.27,-0.0164
0.271,-0.0144
0.272,-0.0162
0.273,-0.0146
0.274,-0.0102
0.275,-0.0142
0.276,-0.0177
0.277,-0.0234
0.278,-0.0205
0.279,-0.0177
0.28,-0.0102
0.281,0.001
0.282,0.0145
0.283,0.0164
0.284,0.0213
0.285,0.0257
0.286,0.0162
0.287,0.0151
0.288,0.0184
0.289,0.0072
0.29,-0.0003
0.291,-0.0071
0.292,-0.0155
0.293,-0.0144
0.294,-0.0032
0.295,-0.0018
0.296,0.0023
0.297,0.0034
0.298,0.0023
0.299,0.0052
0.3,0.0098
0.301,0.0138
0.302,0.0116
0.303,0.0013
0.304,-0.0122
0.305,-0.0067
0.306,-0.0003
0.307,0.0046
0.308,0.0121
0.309,0.0217
0.31,0.0277
0.311,0.022
0.312,0.0191
0.313,0.0052
0.314,-0.0129
0.315,-0.0058
0.316,-0.008
0.317,-0.0181
0.318,-0.0236
0.319,-0.0186
0.32,-0.023
0.321,-0.0217
0.322,-0.0157
0.323,-0.0124
0.324,-0.0095
0.325,-0.0049
0.326,0.0008
0.327,0.0015
0.328,0.0034
0.329,-0.0023
0.33,0.0046
0.331,0.0092
0.332,0.0099
0.333,0.0092
0.334,0.0059
0.335,0.0028
0.336,-0.0056
0.337,-0.0117
0.338,-0.0014
0.339,0.0081
0.34,-0.0003
0.341,-0.0106
0.342,-0.0038
0.343,-0.0049
0.344,-0.0038
0.345,0.0032
0.346,0.0004
0.347,0.0012
0.348,0.0034
0.349,0.0028
0.35,0.0034
0.351,0.0072
0.352,0.0147
0.353,0.0136
0.354,0.0107
0.355,0.0246
0.356,0.0266
0.357,0.0085
0.358,0.014
0.359,0.0024
0.36,-0.0051
0.361,0.0127
0.362,0.0248
0.363,0.0226
0.364,0.0246
0.365,0.0118
0.366,-0.0065
0.367,-0.0285
0.368,-0.0373
0.369,-0.0399
0.37,-0.0327
0.371,-0.0128
0.372,0.0006
0.373,0.003
0.374,0.0052
0.375,0.0072
0.376,0.0054
0.377,-0.0029
0.378,-0.0043
0.379,-0.0084
0.38,-0.0144
0.381,-0.0042
0.382,0.0026
0.383,-0.0058
0.384,-0.0183
0.385,-0.01
0.386,-0.0056
0.387,0.0039
0.388,0.005
0.389,0.0017
0.39,0.0026
0.391,-0.0058
0.392,-0.0091
0.393,-0.014
0.394,-0.0056
0.395,0.0023
0.396,0.0092
0.397,0.0065
0.398,0.0173
0.399,0.0217
0.4,0.0257
0.401,0.0145
0.402,-0.002
0.403,0.0046
0.404,0.0066
0.405,0.0085
0.406,0.0002
0.407,-0.0012
0.408,0.0077
0.409,0.0118
0.41,0.0129
0.411,0.0096
0.412,0.0125
0.413,0.0079
0.414,-0.0045
0.415,-0.0173
0.416,-0.0324
0.417,-0.0384
0.418,-0.0585
0.419,-0.0507
0.42,-0.0287
0.421,-0.0199
0.422,-0.0225
0.423,-0.0153
0.424,-0.0131
0.425,-0.0071
0.426,0.0021
0.427,0.027
0.428,0.0519
0.429,0.0424
0.43,0.0336
0.431,0.0469
0.432,0.0348
0.433,0.0239
0.434,0.0178
0.435,0.027
0.436,0.042
0.437,0.048
0.438,0.0608
0.439,0.0857
0.44,0.1323
0.441,0.1639
0.442,0.1696
0.443,0.1645
0.444,0.1407
0.445,0.0843
0.446,0.0458
0.447,0.0389
0.448,0.0072
0.449,-0.0331
0.45,-0.1118
0.451,-0.2134
0.452,-0.1999
0.453,-0.1874
0.454,-0.1763
0.455,-0.125
0.456,-0.1157
0.457,-0.1072
0.458,-0.0842
0.459,-0.0882
0.46,-0.0952
0.461,-0.0763
0.462,-0.082
0.463,-0.0454
0.464,-0.0311
0.465,-0.0353
0.466,-0.047
0.467,-0.0719
0.468,-0.088
0.469,-0.0851
0.47,-0.0609
0.471,-0.0316
0.472,-0.012
0.473,-0.0155
0.474,-0.006
0.475,0.0028
0.476,0.027
0.477,0.0365
0.478,0.0394
0.479,0.0581
0.48,0.0557
0.481,0.0623
0.482,0.0603
0.483,0.0658
0.484,0.0608
0.485,0.0533
0.486,0.0466
0.487,0.0526
0.488,0.0629
0.489,0.0641
0.49,0.0557
0.491,0.0478
0.492,0.0409
0.493,0.0436
0.494,0.0561
0.495,0.0469
0.496,0.042
0.497,0.0315
0.498,0.0328
0.499,0.0317
0.5,0.0215
0.501,0.0147
0.502,0.0207
0.503,0.0196
0.504,0.0167
0.505,0.0121
0.506,0.0098
0.507,0.012
0.508,0.0138
0.509,0.0068
0.51,0.0026
0.511,-0.0076
0.512,-0.0064
0.513,0.0098
0.514,0.0164
0.515,0.0305
0.516,0.014
0.517,-0.006
0.518,-0.0194
0.519,-0.0265
0.52,-0.0199
0.521,-0.0139
0.522,-0.0047
0.523,-0.0064
0.524,-0.0049
0.525,0.0019
0.526,-0.0166
0.527,-0.0192
0.528,-0.0168
0.529,-0.019
0.53,-0.021
0.531,-0.0118
0.532,-0.0135
0.533,-0.006
0.534,-0.01
0.535,-0.0135
0.536,-0.0192
0.537,-0.0201
0.538,-0.008
0.539,-0.0031
0.54,-0.0045
0.541,0.0023
0.542,0.0034
0.543,0.009
0.544,0.0061
0.545,0.0015
0.546,-0.0025
0.547,-0.0047
0.548,-0.0093
0.549,-0.0036
0.55,0.0017
0.551,-0.0045
0.552,-0.0038
0.553,0.0032
0.554,0.0023
0.555,-0.0069
0.556,-0.0153
0.557,-0.0096
0.558,-0.0067
0.559,-0.0076
0.56,-0.0084
0.561,-0.001
0.562,0.0074
0.563,0.0244
0.564,0.0365
0.565,0.0387
0.566,0.0326
0.567,0.0198
0.568,0.0248
0.569,0.0023
0.57,-0.0073
0.571,-0.0102
0.572,-0.0236
0.573,-0.0356
0.574,-0.0378
0.575,-0.0237
0.576,-0.0219
0.577,-0.017
0.578,-0.0065
0.579,-0.0106
0.58,-0.014
0.581,-0.0062
0.582,-0.0032
0.583,0.0107
0.584,0.0127
0.585,-0.0001
0.586,-0.0018
0.587,-0.0062
0.588,-0.0075
0.589,-0.0109
0.59,0.0015
0.591,0.0065
0.592,-0.001
0.593,0.0002
0.594,0.0063
0.595,0.0052
0.596,0.0143
0.597,0.0109
0.598,0.003
0.599,-0.0082
0.6,0.0023
0.601,0.0228
0.602,0.0079
0.603,0.0054
0.604,0.003
0.605,0.0096
0.606,0.0076
0.607,0.0057
0.608,0.0041
0.609,0.0055
0.61,0.0015
0.611,0.005
0.612,-0.0076
0.613,-0.0109
0.614,0.0023
0.615,0.0077
0.616,0.0193
0.617,0.0358
0.618,0.0204
0.619,0.0023
0.62,-0.0146
0.621,-0.0212
0.622,-0.0192
0.623,-0.0064
0.624,-0.008
0.625,-0.0184
0.626,-0.0172
0.627,-0.0111
0.628,0.0037
0.629,-0.0023
0.63,-0.0005
0.631,-0.0021
0.632,0.0023
0.633,0.0035
0.634,0.0024
0.635,0.0081
0.636,0.0012
0.637,-0.0016
0.638,-0.0009
0.639,0.003
0.64,0.0063
0.641,0.0032
0.642,0.0026
0.643,-0.0049
0.644,-0.0016
0.645,0.0013
0.646,0.0023
0.647,-0.0034
0.648,-0.0012
0.649,-0.0007
0.65,0.0088
0.651,0.0021
0.652,0.0055
0.653,-0.0001
0.654,0.0028
0.655,0.0001
0.656,0.0109
0.657,0.0004
0.658,0.0072
0.659,-0.004
0.66,-0.0025
0.661,-0.0012
0.662,-0.0001
0.663,0.007
0.664,0.0081
0.665,0.009
0.666,0.0099
0.667,0.0224
0.668,0.0352
0.669,0.0237
0.67,0.0101
0.671,-0.0064
0.672,-0.0217
0.673,-0.0197
0.674,-0.0216
0.675,-0.0265
0.676,-0.01
0.677,-0.0122
0.678,-0.0183
0.679,-0.0018
0.68,0.0092
0.681,0.0112
0.682,0.0021
0.683,0.0037
0.684,-0.0098
0.685,-0.008
0.686,-0.0031
0.687,0.0134
0.688,0.0156
0.689,0.0096
0.69,0.0077
0.691,0.0028
0.692,0.0043
0.693,0.0002
0.694,-0.0009
0.695,-0.002
0.696,0.001
0.697,0.0037
0.698,0.0094
0.699,-0.0007
0.7,-0.0129
0.701,-0.0146
0.702,-0.001
0.703,-0.0139
0.704,-0.0089
0.705,-0.0104
0.706,0.0019
0.707,0.0068
0.708,0.0112
0.709,0.0045
0.71,0.001
0.711,0.0043
0.712,0.0052
0.713,0.0061
0.714,0.0107
0.715,0.0131
0.716,0.0138
0.717,0.02
0.718,0.0207
0.719,0.0215
0.72,0.0169
0.721,0.0074
0.722,-0.0131
0.723,-0.0219
0.724,-0.0245
0.725,-0.0221
0.726,-0.0111
0.727,-0.0131
0.728,-0.0113
0.729,-0.0096
0.73,-0.0053
0.731,0.0015
0.732,0.005
0.733,0.0017
0.734,-0.0012
0.735,-0.0076
0.736,-0.0133
0.737,-0.008
0.738,-0.0098
0.739,-0.008
0.74,-0.0042
0.741,0.0034
0.742,0.0045
0.743,0.0074
0.744,0.0046
0.745,-0.001
0.746,-0.0049
0.747,-0.0067
0.748,-0.0137
0.749,-0.0146
0.75,-0.0122
0.751,-0.0069
0.752,-0.0007
0.753,0.0017
0.754,0.0132
0.755,0.0083
0.756,0.0279
0.757,0.0145
0.758,0.0121
0.759,0.0099
0.76,-0.0042
0.761,0.0013
0.762,0.0063
0.763,0.0048
0.764,-0.002
0.765,-0.0054
0.766,-0.0089
0.767,0.0035
0.768,0.0151
0.769,0.0376
0.77,0.0407
0.771,0.0319
0.772,0.0132
0.773,-0.0036
0.774,-0.0058
0.775,-0.0199
0.776,-0.0327
0.777,-0.0278
0.778,-0.0263
0.779,-0.0276
0.78,-0.0241
0.781,-0.0139
0.782,-0.0043
0.783,-0.0205
0.784,-0.0095
0.785,0.0046
0.786,0.0101
0.787,0.0019
0.788,-0.0025
0.789,-0.0012
0.79,-0.0047
0.791,-0.0036
0.792,0.0055
0.793,0.0066
0.794,0.0055
0.795,0.0125
0.796,0.0098
0.797,-0.0027
0.798,-0.0082
0.799,0.0034
0.8,0.0048
0.801,0.0088
0.802,0.0099
0.803,0.011
0.804,0.018
0.805,0.0116
0.806,0.0092
0.807,0.0054
0.808,-0.0021
0.809,-0.0091
0.81,-0.0027
0.811,-0.002
0.812,-0.0058
0.813,0.0045
0.814,0.0059
0.815,0.0127
0.816,0.0129
0.817,0.0118
0.818,0.0288
0.819,0.0359
0.82,0.0337
0.821,0.0398
0.822,0.0306
0.823,0.0123
0.824,-0.0096
0.825,-0.0184
0.826,-0.0318
0.827,-0.0247
0.828,-0.0225
0.829,-0.0285
0.83,-0.0377
0.831,-0.036
0.832,-0.0256
0.833,-0.0078
0.834,-0.0007
0.835,0.0015
0.836,-0.0045
0.837,0.001
0.838,0.0092
0.839,0.0107
0.84,0.0066
0.841,-0.0018
0.842,-0.0029
0.843,0.0001
0.844,0.0065
0.845,0.0072
0.846,0.0094
0.847,0.0196
0.848,0.0092
0.849,0.0052
0.85,-0.0084
0.851,-0.0029
0.852,-0.0012
0.853,-0.0056
0.854,-0.0043
0.855,-0.0054
0.856,0.0002
0.857,-0.0027
0.858,0.0112
0.859,0.0132
0.86,0.0187
0.861,0.0138
0.862,0.0063
0.863,0.005
0.864,0.0061
0.865,0.005
0.866,0.0041
0.867,-0.004
0.868,0.0024
0.869,0.0099
0.87,0.0109
0.871,0.0173
0.872,0.0248
0.873,0.0218
0.874,0.0116
0.875,-0.0089
0.876,-0.0177
0.877,-0.0203
0.878,-0.0226
0.879,-0.0248
0.88,-0.0188
0.881,-0.0133
0.882,-0.0183
0.883,-0.0139
0.884,-0.0043
0.885,-0.0009
0.886,-0.0179
0.887,-0.0203
0.888,-0.0225
0.889,-0.0043
0.89,0.0077
0.891,0.0187
0.892,0.0207
0.893,0.0189
0.894,0.0107
0.895,0.0063
0.896,-0.0005
0.897,-0.004
0.898,0.0017
0.899,0.0046
0.9,-0.0093
0.901,-0.0032
0.902,-0.0014
0.903,0.0035
0.904,0.014
0.905,0.0099
0.906,-0.0036
0.907,0.0019
0.908,0.0068
0.909,0.0024
0.91,0.0092
0.911,0.0153
0.912,0.0142
0.913,0.005
0.914,-0.0086
0.915,-0.0104
0.916,-0.0054
0.917,-0.0098
0.918,-0.0098
0.919,-0.0111
0.92,0.0001
0.921,0.0165
0.922,0.0319
0.923,0.042
0.924,0.0365
0.925,0.0149
0.926,0.012
0.927,-0.0014
0.928,0.001
0.929,-0.0056
0.93,0.0004
0.931,-0.0124
0.932,-0.014
0.933,-0.0216
0.934,-0.0175
0.935,-0.0091
0.936,-0.0194
0.937,-0.0181
0.938,-0.017
0.939,-0.0137
0.94,-0.0087
0.941,0.0034
0.942,0.005
0.943,-0.0054
0.944,-0.0014
0.945,-0.0025
0.946,-0.0058
0.947,-0.0107
0.948,0.0032
0.949,0.0092
0.95,0.011
0.951,0.016
0.952,0.0204
0.953,0.0136
0.954,0.0101
0.955,0.0068
0.956,0.0019
0.957,-0.0009
0.958,0.0032
0.959,0.007
0.96,0.0103
0.961,0.0021
0.962,-0.0082
0.963,-0.0069
0.964,-0.0009
0.965,-0.0087
0.966,-0.0038
0.967,-0.0084
0.968,-0.0124
0.969,-0.0135
0.97,-0.002
0.971,0.0229
0.972,0.0336
0.973,0.0367
0.974,0.0515
0.975,0.0381
0.976,0.0114
0.977,-0.0064
0.978,-0.0289
0.979,-0.0318
0.98,-0.0239
0.981,-0.0216
0.982,-0.015
0.983,-0.0129
0.984,-0.0148
0.985,-0.0164
0.986,-0.0179
0.987,-0.0111
0.988,-0.0076
0.989,0.0048
0.99,0.0065
0.991,0.005
0.992,0.0037
0.993,0.0002
0.994,0.0013
0.995,-0.0098
0.996,-0.0142
0.997,-0.002
0.998,0.0096
0.999,-0.0069
1,0.0085
1.001,0.0065
1.002,-0.0027
1.003,-0.001
1.004,0.0034
1.005,-0.0007
1.006,-0.0018
1.007,-0.0096
1.008,-0.0005
1.009,0.0079
1.01,0.0136
1.011,0.0165
1.012,0.0229
1.013,0.0206
1.014,0.009
1.015,0.0041
1.016,0.0026
1.017,-0.0014
1.018,-0.0025
1.019,-0.0104
1.02,-0.0157
1.021,-0.0248
1.022,-0.0064
1.023,0.0123
1.024,0.0244
1.025,0.0398
1.026,0.0337
1.027,0.0063
1.028,-0.0054
1.029,-0.002
1.03,-0.0115
1.031,-0.0086
1.032,-0.0111
1.033,-0.0135
1.034,-0.0069
1.035,-0.0049
1.036,-0.0031
1.037,-0.0113
1.038,-0.0217
1.039,-0.023
1.04,-0.017
1.041,-0.0045
1.042,-0.0062
1.043,-0.0076
1.044,0.0046
1.045,0.0129
1.046,0.0085
1.047,0.0153
1.048,0.0187
1.049,0.0109
1.05,-0.0023
1.051,-0.0078
1.052,0.0037
1.053,0.0023
1.054,-0.0045
1.055,-0.0034
1.056,-0.0023
1.057,0.0046
1.058,0.0019
1.059,-0.0021
1.06,-0.0014
1.061,0.0061
1.062,0.0052
1.063,-0.0069
1.064,0.0046
1.065,0.0151
1.066,0.0055
1.067,0.0021
1.068,0.0054
1.069,-0.0098
1.07,-0.0208
1.071,-0.0164
1.072,-0.0184
1.073,0.0017
1.074,0.0259
1.075,0.0484
1.076,0.0572
1.077,0.0493
1.078,0.0273
1.079,0.0066
1.08,-0.0175
1.081,-0.0144
1.082,-0.0056
1.083,-0.019
1.084,-0.0261
1.085,-0.0283
1.086,-0.0263
1.087,-0.0318
1.088,-0.0236
1.089,-0.0131
1.09,-0.0064
1.091,-0.0029
1.092,0.0142
1.093,0.0165
1.094,0.0143
1.095,0.0083
1.096,-0.0045
1.097,-0.0195
1.098,-0.0175
1.099,-0.0084
1.1,-0.0001
1.101,0.0074
1.102,0.0087
1.103,0.0076
1.104,-0.0073
1.105,-0.0053
1.106,-0.0071
1.107,-0.0087
1.108,-0.0162
1.109,-0.0122
1.11,-0.001
1.111,0.0034
1.112,0.0074
1.113,0.0209
1.114,0.0337
1.115,0.0288
1.116,0.0184
1.117,0.0251
1.118,0.009
1.119,-0.0064
1.12,-0.0043
1.121,-0.0172
1.122,-0.0062
1.123,0.0021
1.124,-0.0084
1.125,-0.0016
1.126,0.0096
1.127,0.0261
1.128,0.0195
1.129,0.0094
1.13,-0.0144
1.131,-0.0175
1.132,-0.0087
1.133,-0.0009
1.134,-0.008
1.135,-0.0146
1.136,-0.0287
1.137,-0.0305
1.138,-0.0089
1.139,0.0178
1.14,0.0143
1.141,0.0048
1.142,0.0077
1.143,0.0103
1.144,-0.0018
1.145,-0.0084
1.146,-0.0104
1.147,-0.0049
1.148,-0.0098
1.149,-0.0023
1.15,0.0017
1.151,0.0101
1.152,0.0023
1.153,0.0032
1.154,0.0041
1.155,-0.0034
1.156,-0.0064
1.157,0.0021
1.158,0.001
1.159,-0.002
1.16,0.0065
1.161,-0.0084
1.162,-0.0064
1.163,0.0028
1.164,0.0012
1.165,0.0087
1.166,0.0154
1.167,-0.0007
1.168,-0.0117
1.169,-0.0096
1.17,-0.0115
1.171,-0.0065
1.172,-0.008
1.173,-0.004
1.174,0.0083
1.175,0.0198
1.176,0.0334
1.177,0.0389
1.178,0.0504
1.179,0.0489
1.18,0.0284
1.181,0.0077
1.182,-0.0056
1.183,-0.008
1.184,-0.0058
1.185,-0.0118
1.186,-0.0247
1.187,-0.0362
1.188,-0.0377
1.189,-0.0336
1.19,-0.0252
1.191,-0.0219
1.192,-0.0128
1.193,-0.0043
1.194,0.0105
1.195,0.0125
1.196,0.0107
1.197,-0.0076
1.198,-0.0148
1.199,-0.0082
1.2,0.0019
1.201,0.0001
1.202,0.005
1.203,0.0215
1.204,0.0325
1.205,0.0264
1.206,0.0099
1.207,0.0034
1.208,0.0054
1.209,-0.0038
1.21,-0.0153
1.211,-0.0109
1.212,-0.0096
1.213,-0.0107
1.214,-0.0051
1.215,-0.0142
1.216,-0.0203
1.217,-0.0214
1.218,-0.0082
1.219,-0.0137
1.22,-0.0087
1.221,-0.0073
1.222,-0.0005
1.223,0.0055
1.224,0.0114
1.225,0.0284
1.226,0.0453
1.227,0.0475
1.228,0.0374
1.229,0.0283
1.23,0.0299
1.231,0.0343
1.232,0.0248
1.233,0.0063
1.234,-0.0124
1.235,-0.0195
1.236,-0.0261
1.237,-0.0201
1.238,-0.0183
1.239,-0.0265
1.24,-0.0309
1.241,-0.0186
1.242,-0.0071
1.243,-0.0027
1.244,-0.0095
1.245,-0.0179
1.246,-0.0146
1.247,-0.0117
1.248,0.0023
1.249,0.0002
1.25,-0.0089
1.251,-0.004
1.252,-0.0054
1.253,-0.0014
1.254,0.0098
1.255,0.0083
1.256,0.0123
1.257,0.0134
1.258,0.0145
1.259,0.0096
1.26,0.0012
1.261,0.0001
1.262,-0.0049
1.263,0.0072
1.264,0.0121
1.265,0.0136
1.266,0.0096
1.267,0.0085
1.268,0.0006
1.269,-0.0086
1.27,-0.017
1.271,-0.0067
1.272,0.0001
1.273,0.0085
1.274,0.0052
1.275,-0.015
1.276,-0.0018
1.277,0.0257
1.278,0.0295
1.279,0.0402
1.28,0.0306
1.281,0.0099
1.282,0.0021
1.283,-0.0148
1.284,-0.0214
1.285,-0.0234
1.286,-0.0252
1.287,-0.0302
1.288,-0.0137
1.289,-0.0027
1.29,-0.0007
1.291,-0.0025
1.292,-0.0009
1.293,-0.0053
1.294,-0.0012
1.295,-0.0096
1.296,-0.0175
1.297,-0.0245
1.298,-0.0291
1.299,-0.0267
1.3,-0.0228
1.301,-0.0195
1.302,-0.0164
1.303,-0.0126
1.304,-0.008
1.305,-0.0036
1.306,0.0002
1.307,0.0077
1.308,0.011
1.309,0.0061
1.31,0.02
1.311,0.0341
1.312,0.0323
1.313,0.0438
1.314,0.0334
1.315,0.0374
1.316,0.0262
1.317,0.0158
1.318,0.0063
1.319,0.0198
1.32,0.0253
1.321,0.0403
1.322,0.0504
1.323,0.0706
1.324,0.1
1.325,0.1275
1.326,0.144
1.327,0.1475
1.328,0.1443
1.329,0.1356
1.33,0.1006
1.331,0.0768
1.332,0.064
1.333,0.0365
1.334,-0.0172
1.335,-0.1327
1.336,-0.2486
1.337,-0.2336
1.338,-0.1928
1.339,-0.1554
1.34,-0.1217
1.341,-0.1115
1.342,-0.1021
1.343,-0.0937
1.344,-0.086
1.345,-0.079
1.346,-0.0602
1.347,-0.0659
1.348,-0.0607
1.349,-0.0369
1.35,-0.0327
1.351,-0.0602
1.352,-0.0851
1.353,-0.1012
1.354,-0.0864
1.355,-0.0677
1.356,-0.036
1.357,-0.0058
1.358,-0.0096
1.359,-0.0062
1.36,-0.0031
1.361,0.0118
1.362,0.0305
1.363,0.0376
1.364,0.0442
1.365,0.0663
1.366,0.0576
1.367,0.055
1.368,0.0671
1.369,0.0693
1.37,0.0632
1.371,0.0614
1.372,0.063
1.373,0.0645
1.374,0.0632
1.375,0.0643
1.376,0.0565
1.377,0.051
1.378,0.0559
1.379,0.0698
1.38,0.0718
1.381,0.0627
1.382,0.0676
1.383,0.0541
1.384,0.0413
1.385,0.0229
1.386,0.0158
1.387,0.0004
1.388,-0.0096
1.389,-0.0188
1.39,-0.0139
1.391,-0.0124
1.392,-0.0111
1.393,-0.0051
1.394,-0.0153
1.395,-0.014
1.396,-0.0106
1.397,-0.0184
1.398,-0.0093
1.399,-0.0009
1.4,0.0002
1.401,0.0012
1.402,0.0021
1.403,-0.0104
1.404,-0.0159
1.405,-0.0076
1.406,-0.0062
1.407,-0.0102
1.408,0.0059
1.409,0.0037
1.41,-0.0023
1.411,-0.0078
1.412,-0.0194
1.413,-0.015
1.414,-0.0082
1.415,-0.0093
1.416,-0.0014
1.417,-0.0005
1.418,-0.0069
1.419,-0.0076
1.42,-0.0161
1.421,-0.0104
1.422,-0.0054
1.423,-0.0009
1.424,-0.0032
1.425,-0.004
1.426,0.005
1.427,0.0015
1.428,-0.0135
1.429,-0.0146
1.43,-0.0137
1.431,0.0002
1.432,0.0264
1.433,0.0229
1.434,0.0068
1.435,0.0039
1.436,0.0065
1.437,0.0041
1.438,-0.0069
1.439,-0.0049
1.44,-0.0067
1.441,-0.0018
1.442,-0.0093
1.443,-0.0161
1.444,-0.01
1.445,-0.0067
1.446,-0.0179
1.447,-0.0164
1.448,-0.0042
1.449,0.0041
1.45,0.0026
1.451,-0.0042
1.452,-0.0053
1.453,-0.0042
1.454,-0.0032
1.455,-0.0005
1.456,-0.0129
1.457,-0.0038
1.458,0.0045
1.459,0.0088
1.46,0.0048
1.461,0.0083
1.462,0.0162
1.463,0.001
1.464,-0.01
1.465,0.0041
1.466,-0.0014
1.467,0.0068
1.468,0.0054
1.469,0.0041
1.47,-0.0043
1.471,-0.0146
1.472,-0.0214
1.473,-0.0102
1.474,0.0034
1.475,-0.0058
1.476,-0.0042
1.477,0.0123
1.478,0.0145
1.479,0.007
1.48,0.005
1.481,0.0288
1.482,0.0319
1.483,0.0348
1.484,0.0323
1.485,0.0394
1.486,0.0063
1.487,-0.008
1.488,-0.0122
1.489,-0.0161
1.49,-0.0195
1.491,-0.0226
1.492,-0.0256
1.493,-0.023
1.494,-0.0062
1.495,0.0004
1.496,-0.0096
1.497,-0.0078
1.498,-0.0029
1.499,0.0076
1.5,0.0008
1.501,0.0043
1.502,0.0054
1.503,0.0004
1.504,-0.008
1.505,-0.0137
1.506,-0.0107
1.507,-0.0098
1.508,-0.0007
1.509,-0.0018
1.51,-0.0007
1.511,0.0043
1.512,0.0015
1.513,-0.0009
1.514,-0.0093
1.515,-0.0082
1.516,-0.0053
1.517,-0.0007
1.518,0.005
1.519,0.0088
1.52,0.0026
1.521,0.0066
1.522,0.012
1.523,0.0222
1.524,0.0118
1.525,-0.0005
1.526,0.0012
1.527,-0.0003
1.528,0.0065
1.529,0.0099
1.53,0.0099
1.531,0.011
1.532,0.0061
1.533,0.02
1.534,0.018
1.535,0.0345
1.536,0.0279
1.537,0.038
1.538,0.0251
1.539,0.0002
1.54,-0.0175
1.541,-0.0206
1.542,-0.0236
1.543,-0.021
1.544,-0.0281
1.545,-0.0259
1.546,-0.0199
1.547,-0.0144
1.548,-0.0029
1.549,0.0046
1.55,0.0059
1.551,0.0024
1.552,-0.0032
1.553,-0.0164
1.554,-0.0183
1.555,-0.0133
1.556,0.0002
1.557,-0.0089
1.558,-0.004
1.559,0.0035
1.56,0.0048
1.561,0.0059
1.562,0.007
1.563,0.0041
1.564,-0.0005
1.565,0.0019
1.566,0.0026
1.567,0.0045
1.568,0.0114
1.569,0.0087
1.57,0.0012
1.571,0.0002
1.572,0.0123
1.573,0.0173
1.574,0.0187
1.575,0.0392
1.576,0.0244
1.577,0.011
1.578,-0.001
1.579,-0.0032
1.58,-0.0053
1.581,-0.0194
1.582,-0.0175
1.583,-0.006
1.584,-0.0016
1.585,0.0024
1.586,-0.006
1.587,-0.0027
1.588,0.0125
1.589,0.0279
1.59,0.042
1.591,0.0328
1.592,0.0112
1.593,-0.0036
1.594,-0.0115
1.595,-0.0139
1.596,-0.0161
1.597,-0.0261
1.598,-0.028
1.599,-0.023
1.6,-0.0216
1.601,-0.0203
1.602,-0.0118
1.603,-0.0086
1.604,0.0006
1.605,-0.0078
1.606,-0.0089
1.607,-0.0241
1.608,-0.0131
1.609,-0.0031
1.61,0.0024
1.611,0.0107
1.612,0.0092
1.613,0.0024
1.614,-0.001
1.615,0.0046
1.616,0.0055
1.617,0.0028
1.618,0.0021
1.619,-0.0032
1.62,-0.0078
1.621,-0.0096
1.622,-0.0069
1.623,-0.0014
1.624,0.0055
1.625,0.0101
1.626,-0.0007
1.627,-0.0021
1.628,0.0046
1.629,0.0081
1.63,0.0048
1.631,0.0039
1.632,0.0026
1.633,0.009
1.634,0.0131
1.635,0.02
1.636,0.0339
1.637,0.0319
1.638,0.0118
1.639,0.0143
1.64,0.0072
1.641,0.005
1.642,-0.0051
1.643,-0.0252
1.644,-0.0226
1.645,-0.0155
1.646,-0.0177
1.647,-0.0237
1.648,-0.0146
1.649,-0.0195
1.65,-0.012
1.651,-0.0161
1.652,-0.01
1.653,-0.0248
1.654,-0.0107
1.655,0.0021
1.656,0.0171
1.657,0.0231
1.658,0.014
1.659,-0.0076
1.66,0.0012
1.661,0.0037
1.662,0.0013
1.663,0.0035
1.664,-0.0025
1.665,0.003
1.666,-0.002
1.667,-0.0005
1.668,-0.0018
1.669,-0.0102
1.67,-0.0069
1.671,-0.006
1.672,0.0079
1.673,0.022
1.674,0.0348
1.675,0.0132
1.676,0.0045
1.677,0.0123
1.678,0.0244
1.679,0.0134
1.68,0.0034
1.681,-0.0021
1.682,-0.0071
1.683,-0.0106
1.684,-0.015
1.685,-0.0027
1.686,0.0156
1.687,0.0277
1.688,0.0211
1.689,0.003
1.69,-0.0042
1.691,-0.0151
1.692,-0.0212
1.693,-0.0267
1.694,-0.0184
1.695,-0.008
1.696,0.0015
1.697,0.0004
1.698,-0.0007
1.699,0.0125
1.7,0.0034
1.701,-0.0049
1.702,-0.0005
1.703,-0.0045
1.704,-0.008
1.705,-0.0137
1.706,-0.0005
1.707,0.005
1.708,0.0099
1.709,0.0114
1.71,0.0019
1.711,0.0054
1.712,0.0065
1.713,0.0035
1.714,0.0008
1.715,0.0032
1.716,0.0147
1.717,-0.0003
1.718,0.0017
1.719,-0.0075
1.72,-0.0124
1.721,-0.008
1.722,-0.0093
1.723,-0.0009
1.724,0.0094
1.725,0.0107
1.726,0.0023
1.727,-0.001
1.728,-0.0142
1.729,-0.0197
1.73,-0.0214
1.731,-0.0078
1.732,0.005
1.733,0.0132
1.734,0.0099
1.735,0.0085
1.736,0.0153
1.737,0.0187
1.738,0.029
1.739,0.0303
1.74,0.0292
1.741,0.0259
1.742,0.035
1.743,0.029
1.744,0.012
1.745,-0.0001
1.746,-0.0111
1.747,-0.0091
1.748,-0.0219
1.749,-0.017
1.75,-0.0155
1.751,-0.025
1.752,-0.0285
1.753,-0.0206
1.754,-0.0157
1.755,-0.0203
1.756,-0.0179
1.757,-0.0172
1.758,-0.0166
1.759,-0.0109
1.76,-0.0056
1.761,-0.0023
1.762,-0.0005
1.763,0.0034
1.764,0.0066
1.765,0.0109
1.766,0.0103
1.767,0.0037
1.768,-0.0065
1.769,-0.0133
1.77,-0.0073
1.771,-0.0016
1.772,0.0054
1.773,0.0063
1.774,0.0055
1.775,0.0017
1.776,0.0063
1.777,0.0068
1.778,0.012
1.779,0.0209
1.78,0.0294
1.781,0.0191
1.782,0.0068
1.783,-0.0014
1.784,-0.0058
1.785,-0.0018
1.786,-0.0031
1.787,0.0081
1.788,0.0185
1.789,0.0281
1.79,0.0341
1.791,0.0284
1.792,0.0132
1.793,-0.0155
1.794,-0.0194
1.795,-0.0159
1.796,-0.0128
1.797,-0.0098
1.798,-0.0124
1.799,-0.0053
1.8,-0.0118
1.801,-0.0139
1.802,-0.0157
1.803,-0.0173
1.804,-0.0129
1.805,-0.0034
1.806,-0.0045
1.807,-0.0056
1.808,-0.0047
1.809,-0.0001
1.81,0.0023
1.811,0.0076
1.812,0.0151
1.813,0.0101
1.814,0.0092
1.815,0.0099
1.816,0.003
1.817,-0.0034
1.818,-0.0126
1.819,-0.0091
1.82,-0.0124
1.821,-0.0032
1.822,0.0052
1.823,0.0131
1.824,0.0283
1.825,0.0305
1.826,0.0284
1.827,0.0083
1.828,-0.0104
1.829,0.0017
1.83,0.0217
1.831,-0.0078
1.832,-0.0195
1.833,-0.0161
1.834,-0.0065
1.835,0.0023
1.836,0.0026
1.837,-0.0053
1.838,0.0068
1.839,0.0312
1.84,0.0537
1.841,0.0449
1.842,0.0154
1.843,-0.012
1.844,-0.0155
1.845,-0.025
1.846,-0.028
1.847,-0.0254
1.848,-0.023
1.849,-0.0164
1.85,-0.0064
1.851,-0.0118
1.852,-0.0168
1.853,-0.0183
1.854,-0.0142
1.855,-0.0107
1.856,-0.0051
1.857,-0.0042
1.858,0.0004
1.859,-0.0036
1.86,0.0034
1.861,0.0043
1.862,0.0035
1.863,0.0088
1.864,0.0107
1.865,0.0176
1.866,0.0149
1.867,0.0074
1.868,0.0103
1.869,0.0019
1.87,-0.0038
1.871,-0.0067
1.872,-0.0058
1.873,-0.0098
1.874,0.0017
1.875,0.0001
1.876,-0.0014
1.877,-0.0027
1.878,0.0008
1.879,0.0019
1.88,0.001
1.881,0.0019
1.882,0.0059
1.883,-0.0042
1.884,-0.0082
1.885,-0.0047
1.886,0.001
1.887,0.0063
1.888,0.0072
1.889,0.0211
1.89,0.0312
1.891,0.0367
1.892,0.035
1.893,0.0306
1.894,0.0294
1.895,0.0182
1.896,0.0077
1.897,-0.01
1.898,-0.0269
1.899,-0.0291
1.9,-0.019
1.901,-0.0245
1.902,-0.0327
1.903,-0.0252
1.904,-0.0265
1.905,-0.023
1.906,-0.0106
1.907,0.001
1.908,-0.0005
1.909,-0.0018
1.91,-0.0053
1.911,-0.0155
1.912,-0.0087
1.913,0.0024
1.914,0.016
1.915,0.0105
1.916,0.0055
1.917,0.0012
1.918,-0.0029
1.919,-0.0064
1.92,-0.0166
1.921,-0.0206
1.922,-0.0021
1.923,0.0057
1.924,0.0129
1.925,0.0195
1.926,0.0255
1.927,0.0054
1.928,-0.0025
1.929,-0.0049
1.93,0.0017
1.931,0.0037
1.932,0.0019
1.933,-0.0031
1.934,-0.0045
1.935,-0.0005
1.936,0.0006
1.937,0.0039
1.938,0.0004
1.939,0.0034
1.94,0.0136
1.941,0.0286
1.942,0.0347
1.943,0.0475
1.944,0.0259
1.945,-0.0009
1.946,-0.0115
1.947,-0.021
1.948,-0.0181
1.949,-0.0206
1.95,-0.0135
1.951,-0.0025
1.952,-0.0045
1.953,-0.01
1.954,-0.0084
1.955,-0.0069
1.956,-0.0029
1.957,0.0032
1.958,-0.0001
1.959,0.0028
1.96,0.0074
1.961,0.0017
1.962,0.001
1.963,-0.0053
1.964,-0.0144
1.965,-0.0084
1.966,0.0065
1.967,0.0004
1.968,-0.0051
1.969,-0.0034
1.97,-0.0139
1.971,-0.0234
1.972,-0.0073
1.973,0.0081
1.974,0.0061
1.975,0.0116
1.976,0.0066
1.977,0.0052
1.978,0.0039
1.979,0.0004
1.98,-0.0029
1.981,0.0083
1.982,0.0008
1.983,-0.0087
1.984,0.0074
1.985,0.0273
1.986,0.0248
1.987,0.0079
1.988,-0.0031
1.989,-0.0062
1.99,-0.0122
1.991,-0.0067
1.992,0.0083
1.993,0.0305
1.994,0.0392
1.995,0.0471
1.996,0.0303
1.997,0.0015
1.998,-0.0102
1.999,-0.0137
2,-0.0298
2.001,-0.0269
2.002,-0.0243
2.003,-0.0267
2.004,-0.0289
2.005,-0.0228
2.006,-0.01
2.007,-0.0018
2.008,0.0118
2.009,0.0063
2.01,0.0046
2.011,0.0002
2.012,-0.012
2.013,-0.0071
2.014,-0.0146
2.015,-0.0023
2.016,0.0026
2.017,0.0012
2.018,-0.0056
2.019,-0.0091
2.02,-0.0058
2.021,-0.0067
2.022,-0.004
2.023,-0.0016
2.024,0.0068
2.025,0.0057
2.026,0.0028
2.027,0.0131
2.028,0.0008
2.029,-0.0107
2.03,-0.0064
2.031,-0.0051
2.032,0.001
2.033,-0.0001
2.034,0.0048
2.035,-0.0016
2.036,-0.0023
2.037,-0.0076
2.038,-0.0031
2.039,0.0013
2.04,0.0048
2.041,0.0076
2.042,0.0151
2.043,0.0321
2.044,0.0541
2.045,0.0334
2.046,0.0359
2.047,0.0239
2.048,0.0305
2.049,0.0123
2.05,0.0002
2.051,-0.0197
2.052,-0.0276
2.053,-0.0347
2.054,-0.0325
2.055,-0.0265
2.056,-0.0247
2.057,-0.0164
2.058,-0.015
2.059,-0.0137
2.06,-0.0076
2.061,-0.0065
2.062,-0.0056
2.063,-0.0159
2.064,-0.0226
2.065,-0.0166
2.066,-0.0042
2.067,0.0041
2.068,0.0237
2.069,0.0262
2.07,0.0142
2.071,0.0076
2.072,0.0015
2.073,0.0107
2.074,0.0123
2.075,0.0288
2.076,0.0222
2.077,0.0081
2.078,-0.001
2.079,-0.0161
2.08,-0.0181
2.081,-0.0162
2.082,-0.0113
2.083,-0.0038
2.084,0.003
2.085,0.0019
2.086,0.0008
2.087,-0.0104
2.088,-0.006
2.089,-0.0073
2.09,-0.0107
2.091,-0.0076
2.092,-0.002
2.093,0.0092
2.094,0.0196
2.095,0.0374
2.096,0.035
2.097,0.0196
2.098,0.0015
2.099,-0.0009
2.1,-0.0075
2.101,-0.0054
2.102,-0.0109
2.103,-0.0259
2.104,-0.0199
2.105,-0.0217
2.106,-0.0234
2.107,-0.0069
2.108,-0.0047
2.109,0.0054
2.11,0.0145
2.111,0.0129
2.112,0.0024
2.113,-0.0043
2.114,-0.0104
2.115,-0.0071
2.116,0.0021
2.117,0.0055
2.118,0.0023
2.119,-0.0069
2.12,-0.0181
2.121,-0.0316
2.122,-0.0371
2.123,-0.0256
2.124,-0.0212
2.125,-0.0144
2.126,-0.006
2.127,-0.0049
2.128,0.0043
2.129,0.0008
2.13,-0.0025
2.131,0.0127
2.132,0.0281
2.133,0.0301
2.134,0.0283
2.135,0.0398
2.136,0.0533
2.137,0.0442
2.138,0.0326
2.139,0.0283
2.14,0.0242
2.141,0.0231
2.142,0.0231
2.143,0.038
2.144,0.0682
2.145,0.0984
2.146,0.1339
2.147,0.1577
2.148,0.1619
2.149,0.1423
2.15,0.1246
2.151,0.0953
2.152,0.0519
2.153,0.0462
2.154,0.0096
2.155,-0.0335
2.156,-0.1201
2.157,-0.2321
2.158,-0.2171
2.159,-0.2036
2.16,-0.1911
2.161,-0.1347
2.162,-0.0834
2.163,-0.0741
2.164,-0.0657
2.165,-0.0426
2.166,-0.0496
2.167,-0.0558
2.168,-0.0845
2.169,-0.0794
2.17,-0.0747
2.171,-0.0618
2.172,-0.0736
2.173,-0.077
2.174,-0.0801
2.175,-0.0831
2.176,-0.0644
2.177,-0.0424
2.178,-0.0276
2.179,-0.0197
2.18,-0.0029
2.181,0.0259
2.182,0.0376
2.183,0.0341
2.184,0.0372
2.185,0.0284
2.186,0.0418
2.187,0.0539
2.188,0.0693
2.189,0.0673
2.19,0.0618
2.191,0.0634
2.192,0.0649
2.193,0.0663
2.194,0.0651
2.195,0.0762
2.196,0.0718
2.197,0.0678
2.198,0.0863
2.199,0.0889
2.2,0.072
2.201,0.061
2.202,0.055
2.203,0.0532
2.204,0.0283
2.205,0.0034
2.206,0.0002
2.207,-0.0146
2.208,-0.0225
2.209,-0.0104
2.21,-0.0126
2.211,-0.0025
2.212,-0.0117
2.213,-0.01
2.214,-0.0144
2.215,-0.0076
2.216,-0.0065
2.217,-0.0098
2.218,-0.0107
2.219,-0.0172
2.22,-0.0164
2.221,-0.008
2.222,-0.0047
2.223,-0.0018
2.224,-0.0082
2.225,-0.0122
2.226,-0.0115
2.227,-0.0069
2.228,-0.0012
2.229,-0.0005
2.23,0.0001
2.231,0.0045
2.232,0.0039
2.233,-0.0036
2.234,-0.0069
2.235,-0.002
2.236,-0.0084
2.237,0.0024
2.238,0.0039
2.239,0.0026
2.24,-0.0009
2.241,-0.0042
2.242,-0.0071
2.243,-0.0025
2.244,-0.004
2.245,0.0017
2.246,0.0132
2.247,0.0215
2.248,0.0319
2.249,0.0251
2.25,0.0116
2.251,-0.0049
2.252,-0.0159
2.253,-0.0058
2.254,-0.0296
2.255,-0.0457
2.256,-0.0309
2.257,-0.0175
2.258,-0.0199
2.259,-0.0309
2.26,-0.0208
2.261,-0.0043
2.262,-0.0065
2.263,-0.0005
2.264,0.0013
2.265,0.003
2.266,0.0045
2.267,0.0004
2.268,-0.008
2.269,0.0045
2.27,0.0127
2.271,0.0052
2.272,0.0012
2.273,0.0046
2.274,0.0057
2.275,0.0008
2.276,-0.0001
2.277,0.0055
2.278,0.0048
2.279,0.0015
2.28,-0.0042
2.281,-0.0064
2.282,-0.0031
2.283,-0.0012
2.284,-0.0029
2.285,-0.0016
2.286,-0.0086
2.287,-0.0076
2.288,0.0026
2.289,0.0039
2.29,0.005
2.291,0.0039
2.292,0.001
2.293,-0.0129
2.294,-0.023
2.295,-0.0142
2.296,-0.0087
2.297,0.0028
2.298,0.0224
2.299,0.0411
2.3,0.0579
2.301,0.0469
2.302,0.0248
2.303,0.0041
2.304,0.0015
2.305,-0.0009
2.306,-0.0075
2.307,-0.0095
2.308,-0.0113
2.309,-0.0162
2.31,-0.0148
2.311,-0.0053
2.312,-0.0018
2.313,-0.0075
2.314,-0.0166
2.315,-0.0082
2.316,-0.0093
2.317,-0.0064
2.318,-0.0091
2.319,-0.0067
2.32,-0.0075
2.321,0.0028
2.322,0.0224
2.323,0.009
2.324,0.0019
2.325,-0.0047
2.326,-0.0067
2.327,-0.0049
2.328,-0.0065
2.329,-0.008
2.33,0.0015
2.331,0.005
2.332,0.0017
2.333,-0.0032
2.334,-0.0096
2.335,-0.0005
2.336,-0.0016
2.337,-0.0095
2.338,-0.0164
2.339,-0.0118
2.34,-0.0043
2.341,0.0109
2.342,0.0087
2.343,0.0066
2.344,0.0012
2.345,0.0061
2.346,0.0099
2.347,0.0055
2.348,0.0123
2.349,0.0235
2.35,0.025
2.351,0.0345
2.352,0.0284
2.353,0.0251
2.354,0.0403
2.355,0.0204
2.356,0.0017
2.357,-0.0054
2.358,-0.0254
2.359,-0.0175
2.36,-0.0199
2.361,-0.0177
2.362,-0.0197
2.363,-0.0142
2.364,-0.0225
2.365,-0.021
2.366,-0.0223
2.367,-0.0188
2.368,-0.0155
2.369,-0.0043
2.37,-0.0029
2.371,-0.0016
2.372,-0.0005
2.373,0.0028
2.374,0.0019
2.375,-0.0065
2.376,0.0037
2.377,0.0077
2.378,0.0112
2.379,0.0123
2.38,0.0132
2.381,0.0068
2.382,0.0076
2.383,0.0023
2.384,0.0004
2.385,0.001
2.386,-0.0029
2.387,-0.0095
2.388,-0.0122
2.389,-0.0014
2.39,0.0061
2.391,0.0048
2.392,0.0059
2.393,0.007
2.394,0.0041
2.395,0.0105
2.396,0.0112
2.397,0.0048
2.398,0.007
2.399,0.0173
2.4,0.0337
2.401,0.0447
2.402,0.0427
2.403,0.0299
2.404,0.0116
2.405,-0.0104
2.406,-0.0133
2.407,-0.0107
2.408,-0.0084
2.409,-0.0018
2.41,-0.0078
2.411,-0.006
2.412,-0.0142
2.413,-0.0186
2.414,-0.0118
2.415,-0.0084
2.416,-0.0005
2.417,-0.0096
2.418,-0.0157
2.419,-0.019
2.42,-0.0181
2.421,-0.0117
2.422,-0.0157
2.423,-0.0042
2.424,0.0109
2.425,0.0169
2.426,0.0114
2.427,0.0065
2.428,-0.001
2.429,0.0002
2.43,0.0013
2.431,-0.002
2.432,-0.0089
2.433,-0.0117
2.434,-0.0173
2.435,-0.012
2.436,-0.0018
2.437,0.0118
2.438,0.0173
2.439,0.0123
2.44,0.0109
2.441,0.0096
2.442,0.0035
2.443,-0.0043
2.444,-0.0053
2.445,-0.0007
2.446,0.0068
2.447,0.0019
2.448,-0.0084
2.449,-0.0056
2.45,-0.008
2.451,0.0021
2.452,0.0171
2.453,0.0272
2.454,0.0217
2.455,0.0001
2.456,-0.0087
2.457,-0.0113
2.458,-0.0089
2.459,-0.0199
2.46,-0.0219
2.461,-0.0128
2.462,-0.0078
2.463,-0.0093
2.464,-0.0161
2.465,-0.0126
2.466,-0.0069
2.467,-0.006
2.468,-0.0106
2.469,-0.0082
2.47,-0.0043
2.471,-0.0025
2.472,-0.0043
2.473,-0.0027
2.474,-0.0014
2.475,0.0037
2.476,0.0004
2.477,0.0074
2.478,0.0101
2.479,0.0077
2.48,0.0085
2.481,0.016
2.482,0.0169
2.483,0.0105
2.484,0.0048
2.485,0.0055
2.486,-0.002
2.487,-0.0049
2.488,-0.0076
2.489,-0.0036
2.49,0.0017
2.491,-0.0001
2.492,-0.002
2.493,-0.0003
2.494,0.0072
2.495,0.0061
2.496,0.007
2.497,-0.0051
2.498,-0.0001
2.499,0.0019
2.5,0.0063
2.501,0.0131
2.502,0.0315
2.503,0.0237
2.504,0.0308
2.505,0.0198
2.506,0.0017
2.507,-0.0104
2.508,-0.0082
2.509,0.0019
2.51,-0.0036
2.511,0.0013
2.512,-0.0062
2.513,-0.0075
2.514,-0.021
2.515,-0.0192
2.516,-0.0142
2.517,-0.0128
2.518,-0.006
2.519,-0.012
2.52,-0.0109
2.521,0.0002
2.522,-0.0012
2.523,0.0055
2.524,0.0066
2.525,0.0034
2.526,0.0004
2.527,-0.0005
2.528,-0.0012
2.529,-0.0005
2.53,0.0013
2.531,0.0083
2.532,0.0167
2.533,0.0134
2.534,0.0023
2.535,-0.0113
2.536,-0.0131
2.537,-0.0181
2.538,-0.0106
2.539,-0.0093
2.54,-0.0082
2.541,0.0066
2.542,0.0127
2.543,-0.0001
2.544,0.0048
2.545,0.0123
2.546,0.0028
2.547,-0.0032
2.548,0.0024
2.549,0.0094
2.55,0.0129
2.551,0.0083
2.552,0.0207
2.553,0.0336
2.554,0.0451
2.555,0.0407
2.556,0.0312
2.557,0.0127
2.558,-0.0007
2.559,-0.0175
2.56,-0.0241
2.561,-0.0181
2.562,-0.0236
2.563,-0.0219
2.564,-0.0144
2.565,-0.0157
2.566,-0.0045
2.567,-0.0001
2.568,-0.0069
2.569,-0.0153
2.57,-0.0164
2.571,-0.0095
2.572,-0.0067
2.573,-0.0027
2.574,0.0026
2.575,0.0072
2.576,-0.0023
2.577,-0.001
2.578,-0.0045
2.579,-0.0078
2.58,-0.0148
2.581,-0.0009
2.582,0.0132
2.583,0.0187
2.584,0.0237
2.585,0.0162
2.586,0.0066
2.587,0.0077
2.588,0.0134
2.589,0.0184
2.59,0.0175
2.591,0.005
2.592,-0.0042
2.593,-0.0124
2.594,-0.0109
2.595,-0.0205
2.596,-0.012
2.597,-0.0042
2.598,-0.0071
2.599,-0.0007
2.6,0.005
2.601,-0.001
2.602,0.0074
2.603,0.0153
2.604,0.0244
2.605,0.0233
2.606,0.0403
2.607,0.0475
2.608,0.0187
2.609,-0.0087
2.61,-0.0194
2.611,-0.0162
2.612,-0.0133
2.613,-0.0159
2.614,-0.023
2.615,-0.0208
2.616,-0.0148
2.617,-0.0056
2.618,-0.0139
2.619,-0.0183
2.62,-0.017
2.621,-0.0109
2.622,-0.012
2.623,0.0012
2.624,0.003
2.625,0.0079
2.626,0.0065
2.627,0.0132
2.628,0.0098
2.629,0.0041
2.63,-0.0029
2.631,-0.0131
2.632,-0.0172
2.633,0.0013
2.634,0.0039
2.635,0.0063
2.636,-0.0003
2.637,-0.0064
2.638,-0.0118
2.639,-0.0036
2.64,0.0039
2.641,0.0189
2.642,0.0129
2.643,0.0147
2.644,0.0098
2.645,0.0054
2.646,0.0066
2.647,0.0101
2.648,0.0068
2.649,0.0059
2.65,0.005
2.651,0.0026
2.652,0.0107
2.653,0.0037
2.654,0.0121
2.655,0.0292
2.656,0.046
2.657,0.0261
2.658,-0.0034
2.659,-0.023
2.66,-0.0265
2.661,-0.0104
2.662,-0.0075
2.663,-0.0153
2.664,-0.0129
2.665,0.0024
2.666,-0.0076
2.667,-0.0095
2.668,-0.0111
2.669,-0.0155
2.67,-0.0195
2.671,-0.0161
2.672,-0.0128
2.673,-0.0137
2.674,0.0002
2.675,0.0103
2.676,0.0048
2.677,-0.0001
2.678,-0.0016
2.679,-0.0111
2.68,-0.0027
2.681,0.0052
2.682,0.0121
2.683,0.0076
2.684,0.0001
2.685,0.003
2.686,-0.0034
2.687,0.0041
2.688,-0.0071
2.689,0.0034
2.69,-0.0062
2.691,0.005
2.692,0.0065
2.693,0.0105
2.694,0.0116
2.695,0.0083
2.696,0.0074
2.697,0.0065
2.698,0.0105
2.699,0.0127
2.7,0.0132
2.701,0.0101
2.702,0.0028
2.703,-0.0128
2.704,-0.0098
2.705,0.0004
2.706,0.0127
2.707,0.0143
2.708,0.0218
2.709,0.0259
2.71,0.0319
2.711,0.0195
2.712,0.0277
2.713,0.0202
2.714,-0.0003
2.715,-0.027
2.716,-0.0164
2.717,-0.0259
2.718,-0.0347
2.719,-0.0373
2.72,-0.0349
2.721,-0.0239
2.722,-0.0219
2.723,-0.0201
2.724,-0.0184
2.725,-0.008
2.726,-0.0012
2.727,-0.0073
2.728,0.0052
2.729,0.0101
2.73,0.0057
2.731,0.007
2.732,0.0035
2.733,0.0068
2.734,0.0077
2.735,0.0087
2.736,0.0012
2.737,-0.0018
2.738,-0.012
2.739,-0.008
2.74,-0.0115
2.741,-0.0036
2.742,0.0076
2.743,0.018
2.744,0.0248
2.745,0.0283
2.746,0.018
2.747,0.0112
2.748,-0.0049
2.749,-0.0071
2.75,-0.0091
2.751,-0.0146
2.752,0.0004
2.753,-0.0016
2.754,0.0004
2.755,0.0132
2.756,0.0283
2.757,0.0303
2.758,0.0394
2.759,0.0312
2.76,0.0087
2.761,-0.0075
2.762,-0.0162
2.763,-0.0188
2.764,-0.0164
2.765,-0.0186
2.766,-0.0247
2.767,-0.0265
2.768,-0.0314
2.769,-0.021
2.77,-0.0087
2.771,0.0028
2.772,0.0013
2.773,0.0054
2.774,0.0088
2.775,0.0055
2.776,-0.0014
2.777,-0.0042
2.778,-0.0018
2.779,-0.0071
2.78,-0.0065
2.781,-0.006
2.782,0.0024
2.783,0.0085
2.784,0.0074
2.785,0.0065
2.786,-0.002
2.787,0.0083
2.788,-0.0012
2.789,-0.0073
2.79,-0.0062
2.791,-0.0071
2.792,-0.0135
2.793,-0.006
2.794,0.001
2.795,0.0001
2.796,0.0057
2.797,0.0096
2.798,0.0171
2.799,0.0142
2.8,0.0021
2.801,0.0037
2.802,0.0023
2.803,-0.0045
2.804,0.0015
2.805,0.0055
2.806,0.0112
2.807,0.0063
2.808,-0.0001
2.809,0.0023
2.81,0.0061
2.811,0.0015
2.812,0.011
2.813,0.0151
2.814,0.009
2.815,0.0034
2.816,0.0103
2.817,0.0187
2.818,0.0312
2.819,0.0262
2.82,0.0098
2.821,-0.0102
2.822,0.014
2.823,0.0109
2.824,-0.0098
2.825,-0.0177
2.826,-0.0201
2.827,-0.0311
2.828,-0.021
2.829,-0.0155
2.83,-0.0139
2.831,-0.0183
2.832,-0.0115
2.833,-0.015
2.834,-0.0252
2.835,-0.0184
2.836,-0.0049
2.837,-0.0067
2.838,-0.0084
2.839,-0.004
2.84,-0.0107
2.841,0.0028
2.842,0.0193
2.843,0.0215
2.844,0.0195
2.845,0.0066
2.846,0.005
2.847,0.0035
2.848,-0.0032
2.849,0.0052
2.85,0.0019
2.851,0.0048
2.852,0.0002
2.853,0.001
2.854,0.0002
2.855,-0.0016
2.856,-0.0025
2.857,-0.0069
2.858,0.0015
2.859,0.0176
2.86,0.0376
2.861,0.0402
2.862,0.0281
2.863,0.0037
2.864,0.0068
2.865,-0.008
2.866,-0.0054
2.867,-0.0175
2.868,-0.0241
2.869,-0.0261
2.87,-0.0133
2.871,-0.0216
2.872,-0.0172
2.873,-0.0049
2.874,0.0001
2.875,0.0076
2.876,0.0035
2.877,-0.0049
2.878,0.003
2.879,-0.002
2.88,-0.0084
2.881,-0.0076
2.882,0.0008
2.883,-0.0003
2.884,0.0046
2.885,0.0092
2.886,0.0035
2.887,0.0028
2.888,-0.0047
2.889,-0.0038
2.89,-0.0065
2.891,0.001
2.892,0.0019
2.893,-0.0065
2.894,-0.0054
2.895,0.0037
2.896,0.0026
2.897,0.0059
2.898,0.003
2.899,0.0114
2.9,0.0057
2.901,0.0048
2.902,0.0076
2.903,0.0099
2.904,0.0015
2.905,0.014
2.906,0.0156
2.907,0.0165
2.908,0.0121
2.909,0.0081
2.91,0.0142
2.911,0.0198
2.912,0.0228
2.913,0.0164
2.914,0.0039
2.915,0.0057
2.916,0.0008
2.917,-0.0036
2.918,-0.0023
2.919,-0.0107
2.92,-0.014
2.921,-0.0131
2.922,-0.0104
2.923,-0.0128
2.924,-0.015
2.925,-0.0252
2.926,-0.0208
2.927,-0.0168
2.928,-0.0084
2.929,-0.0027
2.93,-0.0018
2.931,-0.0064
2.932,-0.0023
2.933,0.003
2.934,-0.0073
2.935,-0.0058
2.936,-0.0045
2.937,0.0015
2.938,0.0048
2.939,-0.0001
2.94,0.0083
2.941,0.0026
2.942,0.0118
2.943,0.0083
2.944,0.0026
2.945,0.0035
2.946,0.0008
2.947,-0.0032
2.948,-0.0054
2.949,0.0048
2.95,0.0034
2.951,0.0074
2.952,0.0013
2.953,-0.0043
2.954,-0.0073
2.955,-0.01
2.956,-0.0107
2.957,0.0008
2.958,0.0048
2.959,0.0098
2.96,0.0142
2.961,0.0237
2.962,0.0297
2.963,0.033
2.964,0.0339
2.965,0.02
2.966,-0.0062
2.967,-0.0239
2.968,-0.027
2.969,-0.0358
2.97,-0.0384
2.971,-0.0455
2.972,-0.0477
2.973,-0.0377
2.974,-0.0322
2.975,-0.0371
2.976,-0.0327
2.977,-0.0122
2.978,-0.0034
2.979,0.0045
2.98,0.0213
2.981,0.0235
2.982,0.0376
2.983,0.0394
2.984,0.0411
2.985,0.0455
2.986,0.0387
2.987,0.0447
2.988,0.0277
2.989,0.0206
2.99,0.0405
2.991,0.0592
2.992,0.0812
2.993,0.1138
2.994,0.118
2.995,0.1297
2.996,0.1475
2.997,0.1379
2.998,0.1291
2.999,0.105
3,0.0563
3.001,0.0354
3.002,0.0165
3.003,-0.0237
3.004,-0.1025
3.005,-0.2041
3.006,-0.2177
3.007,-0.1803
3.008,-0.1691
3.009,-0.1314
3.01,-0.1007
3.011,-0.0913
3.012,-0.0829
3.013,-0.0444
3.014,-0.0236
3.015,-0.0424
3.016,-0.0712
3.017,-0.0763
3.018,-0.0811
3.019,-0.0595
3.02,-0.0633
3.021,-0.0811
3.022,-0.0972
3.023,-0.0823
3.024,-0.0637
3.025,-0.0516
3.026,-0.0362
3.027,-0.0221
3.028,-0.0093
3.029,-0.001
3.03,0.0094
3.031,0.0244
3.032,0.0345
3.033,0.051
3.034,0.0576
3.035,0.0676
3.036,0.0585
3.037,0.0735
3.038,0.0674
3.039,0.0656
3.04,0.064
3.041,0.0596
3.042,0.0555
3.043,0.0616
3.044,0.0559
3.045,0.0588
3.046,0.0597
3.047,0.0541
3.048,0.0594
3.049,0.0491
3.05,0.0387
3.051,0.0319
3.052,0.0308
3.053,0.0251
3.054,0.0202
3.055,0.0099
3.056,0.014
3.057,0.0105
3.058,0.0184
3.059,0.0092
3.06,0.0107
3.061,0.0046
3.062,-0.001
3.063,0.0059
3.064,0.0162
3.065,0.0229
3.066,0.0145
3.067,0.0134
3.068,0.0184
3.069,0.0063
3.07,-0.0186
3.071,-0.0364
3.072,-0.0333
3.073,-0.0303
3.074,-0.0382
3.075,-0.0406
3.076,-0.0296
3.077,-0.0195
3.078,-0.0177
3.079,-0.0062
3.08,-0.0047
3.081,-0.0087
3.082,0.0048
3.083,0.0103
3.084,0.0054
3.085,-0.0111
3.086,-0.0177
3.087,-0.0197
3.088,-0.0216
3.089,-0.01
3.09,0.0065
3.091,0.0043
3.092,-0.0018
3.093,-0.0036
3.094,0.0013
3.095,-0.0001
3.096,-0.0042
3.097,-0.0177
3.098,-0.0195
3.099,-0.0113
3.1,-0.0038
3.101,0.0085
3.102,0.0068
3.103,0.0112
3.104,0.0072
3.105,-0.0012
3.106,-0.0091
3.107,-0.012
3.108,-0.0056
3.109,0.0019
3.11,0.0088
3.111,0.0063
3.112,0.0017
3.113,0.0142
3.114,0.0306
3.115,0.0196
3.116,0.0337
3.117,0.0319
3.118,0.0169
3.119,-0.0133
3.12,-0.0175
3.121,-0.0292
3.122,-0.0327
3.123,-0.0296
3.124,-0.0208
3.125,-0.0129
3.126,-0.0058
3.127,-0.0168
3.128,-0.0107
3.129,-0.0089
3.13,-0.004
3.131,-0.0084
3.132,-0.0071
3.133,-0.0082
3.134,-0.0049
3.135,-0.0058
3.136,-0.0012
3.137,0.0012
3.138,0.005
3.139,0.0153
3.14,0.0167
3.141,0.0045
3.142,0.0127
3.143,0.0112
3.144,0.0045
3.145,0.001
3.146,-0.0001
3.147,-0.0051
3.148,-0.0042
3.149,-0.0049
3.15,-0.0102
3.151,-0.0056
3.152,-0.0075
3.153,-0.0023
3.154,0.0052
3.155,0.0143
3.156,0.0059
3.157,0.0048
3.158,0.0039
3.159,0.0048
3.16,0.0072
3.161,0.0019
3.162,-0.0025
3.163,-0.0031
3.164,0.0039
3.165,0.0066
3.166,0.0191
3.167,0.0209
3.168,0.016
3.169,0.0055
3.17,0.0043
3.171,-0.0042
3.172,0.0015
3.173,-0.0034
3.174,-0.0007
3.175,0.0001
3.176,-0.0021
3.177,-0.004
3.178,-0.0122
3.179,-0.0111
3.18,-0.0082
3.181,-0.0073
3.182,-0.0096
3.183,-0.0075
3.184,-0.0177
3.185,-0.0102
3.186,-0.0062
3.187,0.005
3.188,-0.0115
3.189,-0.0137
3.19,0.0045
3.191,0.0021
3.192,-0.0045
3.193,-0.0065
3.194,-0.001
3.195,-0.0027
3.196,-0.0012
3.197,0.0028
3.198,0.0088
3.199,0.0055
3.2,0.0085
3.201,-0.0018
3.202,-0.0058
3.203,0.0026
3.204,0.0105
3.205,0.0175
3.206,0.0165
3.207,0.0257
3.208,0.0317
3.209,0.0147
3.21,0.0026
3.211,0.0048
3.212,-0.0012
3.213,-0.0135
3.214,-0.0007
3.215,0.001
3.216,0.0114
3.217,0.0182
3.218,0.0317
3.219,0.0372
3.22,0.0222
3.221,0.0001
3.222,-0.0087
3.223,-0.0113
3.224,-0.0184
3.225,-0.0162
3.226,-0.0223
3.227,-0.0241
3.228,-0.0192
3.229,-0.0206
3.23,-0.0166
3.231,-0.0082
3.232,-0.0025
3.233,-0.0075
3.234,-0.0047
3.235,0.001
3.236,-0.0075
3.237,-0.0153
3.238,-0.0104
3.239,-0.004
3.24,-0.0064
3.241,0.0037
3.242,0.005
3.243,0.0061
3.244,0.0118
3.245,0.0068
3.246,0.0132
3.247,0.0257
3.248,0.0165
3.249,0.005
3.25,0.0035
3.251,-0.0005
3.252,-0.0166
3.253,-0.01
3.254,-0.012
3.255,-0.0029
3.256,0.0021
3.257,0.0156
3.258,0.0248
3.259,0.0032
3.26,0.0002
3.261,0.0028
3.262,-0.0043
3.263,-0.0065
3.264,-0.0054
3.265,-0.0034
3.266,0.0167
3.267,0.0193
3.268,0.0217
3.269,0.0151
3.27,0.0211
3.271,0.0339
3.272,0.0189
3.273,0.0129
3.274,0.0001
3.275,-0.015
3.276,-0.017
3.277,-0.0225
3.278,-0.0241
3.279,-0.0316
3.28,-0.0248
3.281,-0.0113
3.282,-0.0095
3.283,-0.0045
3.284,-0.006
3.285,-0.0155
3.286,-0.0239
3.287,-0.0206
3.288,-0.0197
3.289,-0.0076
3.29,-0.0027
3.291,-0.0012
3.292,0.0001
3.293,0.0112
3.294,0.0217
3.295,0.0176
3.296,0.0142
3.297,0.0131
3.298,0.0081
3.299,0.0054
3.3,-0.0071
3.301,-0.0089
3.302,-0.0172
3.303,0.0054
3.304,0.0085
3.305,-0.0003
3.306,-0.0029
3.307,-0.0005
3.308,-0.0115
3.309,-0.0135
3.31,-0.0043
3.311,-0.0093
3.312,-0.0107
3.313,-0.0067
3.314,-0.0056
3.315,0.0048
3.316,0.0173
3.317,0.0288
3.318,0.0363
3.319,0.0323
3.32,0.0334
3.321,0.0164
3.322,-0.0056
3.323,-0.0144
3.324,-0.0065
3.325,-0.0089
3.326,-0.0067
3.327,-0.0047
3.328,0.0008
3.329,-0.0107
3.33,-0.0122
3.331,-0.0054
3.332,-0.0139
3.333,-0.015
3.334,-0.014
3.335,-0.0113
3.336,-0.0073
3.337,-0.0034
3.338,-0.0029
3.339,0.0002
3.34,0.0008
3.341,-0.0025
3.342,0.0026
3.343,0.0101
3.344,0.0092
3.345,0.0083
3.346,0.0076
3.347,0.0023
3.348,0.0068
3.349,0.0074
3.35,-0.001
3.351,-0.0045
3.352,-0.0124
3.353,-0.0075
3.354,-0.0047
3.355,0.001
3.356,0.0063
3.357,0.0096
3.358,0.0052
3.359,0.0035
3.36,0.0039
3.361,-0.0031
3.362,-0.0021
3.363,0.0024
3.364,0.0048
3.365,0.007
3.366,0.0048
3.367,0.0094
3.368,0.0189
3.369,0.0176
3.37,0.0361
3.371,0.0387
3.372,0.0266
3.373,0.0112
3.374,0.0253
3.375,0.0381
3.376,0.0231
3.377,-0.0071
3.378,-0.0199
3.379,-0.0316
3.38,-0.0422
3.381,-0.0391
3.382,-0.0243
3.383,-0.0164
3.384,-0.0093
3.385,-0.0115
3.386,-0.0256
3.387,-0.0311
3.388,-0.0128
3.389,-0.0007
3.39,0.0103
3.391,0.0043
3.392,-0.0049
3.393,-0.0065
3.394,-0.0021
3.395,0.0074
3.396,0.0158
3.397,0.0191
3.398,0.024
3.399,0.0213
3.4,0.0088
3.401,-0.0003
3.402,-0.0118
3.403,-0.0194
3.404,-0.0153
3.405,-0.0142
3.406,-0.0064
3.407,0.0028
3.408,0.0112
3.409,0.0145
3.41,0.0277
3.411,0.0295
3.412,0.018
3.413,0.0076
3.414,0.0116
3.415,0.0032
3.416,-0.0001
3.417,-0.0032
3.418,-0.0082
3.419,-0.0054
3.42,0.007
3.421,0.0345
3.422,0.0306
3.423,0.0057
3.424,-0.0038
3.425,-0.0126
3.426,-0.0151
3.427,-0.0175
3.428,-0.0153
3.429,-0.0173
3.43,-0.0228
3.431,-0.0212
3.432,-0.0047
3.433,-0.0025
3.434,-0.0045
3.435,-0.0137
3.436,-0.0153
3.437,-0.0018
3.438,0.0037
3.439,0.0054
3.44,0.0068
3.441,0.0028
3.442,-0.0007
3.443,0.0026
3.444,0.0055
3.445,0.001
3.446,-0.0014
3.447,0.0055
3.448,0.0083
3.449,0.0026
3.45,-0.0089
3.451,-0.0007
3.452,0.0068
3.453,0.0109
3.454,0.0098
3.455,0.0087
3.456,0.0077
3.457,0.0087
3.458,0.0046
3.459,-0.0038
3.46,-0.0005
3.461,0.0087
3.462,0.0026
3.463,-0.0053
3.464,-0.0003
3.465,0.0099
3.466,-0.0106
3.467,-0.0076
3.468,-0.0018
3.469,-0.0043
3.47,0.0077
3.471,0.0277
3.472,0.0251
3.473,0.0228
3.474,0.0471
3.475,0.031
3.476,-0.0076
3.477,-0.0232
3.478,-0.0184
3.479,-0.0226
3.48,-0.0265
3.481,-0.023
3.482,-0.0199
3.483,-0.0111
3.484,-0.0032
3.485,-0.0104
3.486,-0.0126
3.487,-0.0226
3.488,-0.0025
3.489,0.0109
3.49,0.0037
3.491,0.0059
3.492,-0.0042
3.493,-0.006
3.494,-0.001
3.495,0.0034
3.496,-0.0007
3.497,-0.0042
3.498,0.0015
3.499,0.0024
3.5,0.0034
3.501,-0.0042
3.502,-0.0091
3.503,0.0012
3.504,0.0052
3.505,0.0187
3.506,0.0169
3.507,0.012
3.508,0.0164
3.509,0.0123
3.51,0.0012
3.511,-0.0093
3.512,-0.008
3.513,0.0004
3.514,0.0037
3.515,0.0107
3.516,0.0023
3.517,0.0055
3.518,0.0006
3.519,-0.0054
3.52,-0.01
3.521,-0.006
3.522,0.0055
3.523,0.0305
3.524,0.027
3.525,0.0109
3.526,-0.004
3.527,-0.0173
3.528,-0.015
3.529,-0.0084
3.53,-0.0023
3.531,-0.0005
3.532,-0.0054
3.533,-0.004
3.534,-0.008
3.535,-0.0069
3.536,-0.0148
3.537,-0.0157
3.538,-0.0111
3.539,-0.0104
3.54,-0.002
3.541,-0.0031
3.542,-0.006
3.543,0.0024
3.544,0.0149
3.545,0.0099
3.546,0.0055
3.547,0.0043
3.548,0.0228
3.549,0.0306
3.55,0.0235
3.551,0.0035
3.552,-0.0151
3.553,-0.0128
3.554,-0.0194
3.555,-0.0133
3.556,-0.0151
3.557,-0.0168
3.558,-0.0093
3.559,-0.0053
3.56,0.0083
3.561,0.0065
3.562,0.0015
3.563,0.0001
3.564,0.0041
3.565,0.0101
3.566,0.0112
3.567,0.0121
3.568,0.0057
3.569,-0.0067
3.57,-0.004
3.571,-0.0058
3.572,0.0158
3.573,0.0129
3.574,0.037
3.575,0.0275
3.576,0.0068
3.577,-0.0226
3.578,-0.0265
3.579,-0.023
3.58,-0.0135
3.581,0.0013
3.582,-0.0065
3.583,-0.0089
3.584,-0.0067
3.585,-0.0087
3.586,-0.0142
3.587,-0.006
3.588,-0.0164
3.589,-0.0069
3.59,0.0043
3.591,0.0057
3.592,0.007
3.593,0.0105
3.594,0.0138
3.595,0.0026
3.596,-0.0078
3.597,-0.0065
3.598,-0.0031
3.599,0.0002
3.6,0.0012
3.601,0.0096
3.602,0.0175
3.603,0.0125
3.604,-0.0014
3.605,-0.0034
3.606,-0.0016
3.607,-0.0065
3.608,-0.0021
3.609,0.0074
3.61,0.0063
3.611,0.003
3.612,-0.0122
3.613,-0.01
3.614,-0.008
3.615,-0.0098
3.616,-0.0049
3.617,-0.0034
3.618,-0.0075
3.619,-0.0064
3.62,-0.0031
3.621,0.0026
3.622,0.0096
3.623,0.0235
3.624,0.0376
3.625,0.0504
3.626,0.0521
3.627,0.0416
3.628,0.0266
3.629,0.0246
3.63,0.0081
3.631,0.0191
3.632,0.0131
3.633,-0.0144
3.634,-0.0261
3.635,-0.0296
3.636,-0.0327
3.637,-0.0356
3.638,-0.0331
3.639,-0.0355
3.64,-0.0333
3.641,-0.0272
3.642,-0.0181
3.643,-0.0164
3.644,-0.006
3.645,0.0008
3.646,-0.0053
3.647,-0.002
3.648,0.005
3.649,0.0041
3.65,0.0034
3.651,0.0041
3.652,0.0046
3.653,0.0002
3.654,-0.0082
3.655,-0.0047
3.656,0.001
3.657,0.0019
3.658,0.0083
3.659,0.0123
3.66,0.0131
3.661,0.0098
3.662,0.0116
3.663,0.011
3.664,0.0035
3.665,0.0002
3.666,0.0012
3.667,0.0021
3.668,-0.0003
3.669,0.0004
3.67,-0.0029
3.671,-0.0034
3.672,-0.0003
3.673,0.007
3.674,0.0222
3.675,0.0332
3.676,0.0272
3.677,0.051
3.678,0.0414
3.679,0.0147
3.68,-0.0175
3.681,-0.0217
3.682,-0.0179
3.683,-0.0214
3.684,-0.0245
3.685,-0.0216
3.686,-0.019
3.687,-0.0261
3.688,-0.0283
3.689,-0.0142
3.69,-0.0124
3.691,-0.014
3.692,-0.0005
3.693,0.0087
3.694,0.0136
3.695,0.0061
3.696,0.0021
3.697,-0.004
3.698,-0.0007
3.699,0.0002
3.7,0.0012
3.701,-0.0064
3.702,-0.0054
3.703,-0.0064
3.704,-0.004
3.705,0.0076
3.706,0.0092
3.707,0.0048
3.708,0.0088
3.709,0.0123
3.71,0.0112
3.711,0.0021
3.712,0.0081
3.713,0.0092
3.714,-0.002
3.715,-0.0095
3.716,0.0028
3.717,0.0077
3.718,-0.0118
3.719,-0.0144
3.72,-0.012
3.721,-0.0098
3.722,-0.0078
3.723,-0.0003
3.724,0.0015
3.725,0.0131
3.726,0.0295
3.727,0.0229
3.728,0.033
3.729,0.0312
3.73,0.0129
3.731,0.0105
3.732,-0.0005
3.733,-0.0186
3.734,-0.021
3.735,-0.0276
3.736,-0.0296
3.737,-0.0278
3.738,-0.0195
3.739,-0.0091
3.74,0.0004
3.741,0.0039
3.742,0.0118
3.743,0.0127
3.744,0.0136
3.745,0.0028
3.746,0.0013
3.747,0.0001
3.748,-0.0034
3.749,-0.0001
3.75,-0.001
3.751,-0.0001
3.752,-0.0025
3.753,-0.0047
3.754,-0.0109
3.755,-0.0069
3.756,-0.0016
3.757,-0.0021
3.758,-0.0027
3.759,0.0024
3.76,0.0057
3.761,-0.0038
3.762,0.0002
3.763,0.0087
3.764,0.0054
3.765,0.0103
3.766,0.0057
3.767,0.0165
3.768,0.0061
3.769,-0.0007
3.77,-0.0042
3.771,-0.0031
3.772,-0.004
3.773,-0.0012
3.774,0.0019
3.775,0.0012
3.776,0.0127
3.777,0.0242
3.778,0.0228
3.779,0.035
3.78,0.0367
3.781,0.0231
3.782,-0.0007
3.783,-0.0168
3.784,-0.0316
3.785,-0.0291
3.786,-0.0267
3.787,-0.0289
3.788,-0.0309
3.789,-0.0181
3.79,-0.0065
3.791,-0.008
3.792,-0.0067
3.793,-0.0007
3.794,0.0072
3.795,0.0164
3.796,0.0079
3.797,-0.0023
3.798,-0.0036
3.799,-0.0071
3.8,-0.0082
3.801,-0.0053
3.802,-0.0098
3.803,-0.0206
3.804,-0.0131
3.805,-0.0118
3.806,-0.0129
3.807,-0.0186
3.808,-0.0256
3.809,-0.0283
3.81,-0.0259
3.811,-0.0144
3.812,-0.0029
3.813,-0.0043
3.814,0.0079
3.815,0.0162
3.816,0.0266
3.817,0.0334
3.818,0.0394
3.819,0.0473
3.82,0.0522
3.821,0.055
3.822,0.0493
3.823,0.0378
3.824,0.0195
3.825,0.0297
3.826,0.0129
3.827,0.0416
3.828,0.0533
3.829,0.0927
3.83,0.1189
3.831,0.1237
3.832,0.1453
3.833,0.1414
3.834,0.1237
3.835,0.1011
3.836,0.0566
3.837,0.0378
3.838,0.0206
3.839,0.005
3.84,-0.0666
3.841,-0.2206
3.842,-0.2426
3.843,-0.2226
3.844,-0.2045
3.845,-0.1549
3.846,-0.1098
3.847,-0.0963
3.848,-0.0838
3.849,-0.0501
3.85,-0.0399
3.851,-0.0492
3.852,-0.0576
3.853,-0.0653
3.854,-0.0444
3.855,-0.0382
3.856,-0.0439
3.857,-0.0701
3.858,-0.0748
3.859,-0.079
3.86,-0.0752
3.861,-0.0503
3.862,-0.0342
3.863,-0.0194
3.864,-0.0007
3.865,0.0065
3.866,-0.0001
3.867,0.0059
3.868,0.0224
3.869,0.0378
3.87,0.0519
3.871,0.0647
3.872,0.0729
3.873,0.0654
3.874,0.0695
3.875,0.0729
3.876,0.0788
3.877,0.0709
3.878,0.066
3.879,0.0799
3.88,0.09
3.881,0.0625
3.882,0.0508
3.883,0.0402
3.884,0.0306
3.885,0.0218
3.886,0.014
3.887,0.0068
3.888,0.009
3.889,0.011
3.89,0.0129
3.891,0.0112
3.892,0.0156
3.893,0.0169
3.894,0.0085
3.895,0.0096
3.896,0.0105
3.897,0.0114
3.898,0.0121
3.899,0.0083
3.9,0.0008
3.901,-0.0062
3.902,-0.0146
3.903,-0.0113
3.904,-0.0021
3.905,0.0063
3.906,0.0096
3.907,0.0026
3.908,-0.0038
3.909,-0.0031
3.91,0.0008
3.911,0.0054
3.912,-0.0042
3.913,-0.0109
3.914,-0.0049
3.915,-0.0082
3.916,-0.0151
3.917,-0.0067
3.918,-0.0034
3.919,-0.0064
3.92,-0.0036
3.921,-0.0076
3.922,-0.0098
3.923,-0.0173
3.924,-0.0144
3.925,-0.0098
3.926,-0.0091
3.927,0.007
3.928,-0.0045
3.929,0.0004
3.93,0.0229
3.931,0.0455
3.932,0.0367
3.933,0.018
3.934,-0.0137
3.935,-0.0265
3.936,-0.0226
3.937,-0.0261
3.938,-0.023
3.939,-0.0201
3.94,-0.028
3.941,-0.0208
3.942,-0.0142
3.943,-0.0001
3.944,0.0017
3.945,0.0132
3.946,0.0088
3.947,-0.0007
3.948,0.0028
3.949,-0.0029
3.95,-0.012
3.951,-0.0109
3.952,-0.0212
3.953,-0.0225
3.954,-0.014
3.955,-0.0129
3.956,0.0023
3.957,0.0045
3.958,0.0105
3.959,0.005
3.96,0.0099
3.961,0.0114
3.962,0.0154
3.963,0.007
3.964,0.0081
3.965,-0.0031
3.966,-0.0045
3.967,-0.0005
3.968,0.0006
3.969,-0.0073
3.97,-0.0023
3.971,0.0004
3.972,0.0028
3.973,0.005
3.974,0.0032
3.975,0.0001
3.976,0.0006
3.977,-0.0027
3.978,-0.0128
3.979,-0.0086
3.98,-0.0001
3.981,0.0034
3.982,0.0204
3.983,0.0325
3.984,0.0171
3.985,-0.001
3.986,-0.0082
3.987,-0.0104
3.988,-0.0164
3.989,-0.0219
3.99,-0.0137
3.991,-0.0093
3.992,-0.0161
3.993,-0.0126
3.994,-0.0115
3.995,0.0037
3.996,0.0147
3.997,0.0207
3.998,0.0262
3.999,0.018
4,0.0105
4.001,0.0037
4.002,-0.0023
4.003,-0.0102
4.004,-0.0131
4.005,-0.0177
4.006,-0.0137
4.007,-0.0159
4.008,-0.014
4.009,-0.0096
4.01,-0.0058
4.011,0.0008
4.012,0.0017
4.013,0.0041
4.014,0.0048
4.015,0.0094
4.016,0.0024
4.017,-0.0003
4.018,0.0004
4.019,0.0026
4.02,0.0008
4.021,0.0013
4.022,0.0076
4.023,0.0099
4.024,0.0046
4.025,0.0041
4.026,0.0023
4.027,-0.0029
4.028,-0.0104
4.029,-0.0142
4.03,-0.0113
4.031,-0.001
4.032,0.0085
4.033,0.0096
4.034,0.0107
4.035,0.0116
4.036,-0.0005
4.037,-0.0021
4.038,-0.0007
4.039,0.0061
4.04,0.0246
4.041,0.0272
4.042,0.0052
4.043,0.0081
4.044,0.0107
4.045,-0.0062
4.046,0.0226
4.047,0.0187
4.048,0.0081
4.049,-0.008
4.05,-0.0168
4.051,-0.0142
4.052,-0.0071
4.053,-0.0137
4.054,-0.0117
4.055,-0.0135
4.056,-0.0118
4.057,-0.0133
4.058,-0.0065
4.059,0.0019
4.06,0.0008
4.061,-0.0144
4.062,-0.0034
4.063,0.0026
4.064,0.0008
4.065,-0.0042
4.066,0.0034
4.067,-0.0007
4.068,-0.0042
4.069,-0.0031
4.07,-0.004
4.071,-0.0031
4.072,0.0026
4.073,0.0079
4.074,0.0112
4.075,0.0017
4.076,0.0004
4.077,0.0015
4.078,-0.0042
4.079,0.009
4.08,0.0085
4.081,0.003
4.082,0.0246
4.083,0.0394
4.084,0.042
4.085,0.0348
4.086,0.0105
4.087,0.001
4.088,-0.0078
4.089,-0.0053
4.09,-0.0029
4.091,-0.0051
4.092,-0.0192
4.093,-0.0137
4.094,-0.0054
4.095,-0.001
4.096,0.0002
4.097,-0.0009
4.098,-0.0087
4.099,-0.0096
4.1,-0.0124
4.101,-0.0117
4.102,-0.017
4.103,-0.0203
4.104,-0.0197
4.105,-0.0113
4.106,0.0023
4.107,0.0077
4.108,0.0061
4.109,0.0076
4.11,0.0035
4.111,0.0024
4.112,-0.0078
4.113,-0.0038
4.114,0.0074
4.115,0.003
4.116,0.0043
4.117,0.0077
4.118,0.0066
4.119,-0.0003
4.12,0.0043
4.121,0.0083
4.122,0.0061
4.123,0.0015
4.124,-0.0016
4.125,0.0046
4.126,0.0006
4.127,-0.0047
4.128,-0.0042
4.129,-0.0137
4.13,-0.015
4.131,-0.0128
4.132,0.0008
4.133,-0.001
4.134,0.0239
4.135,0.0345
4.136,0.012
4.137,-0.0087
4.138,-0.0221
4.139,-0.0053
4.14,-0.0031
4.141,-0.001
4.142,0.0045
4.143,-0.0005
4.144,-0.0049
4.145,0.0019
4.146,-0.0016
4.147,-0.0164
4.148,-0.0184
4.149,-0.0056
4.15,-0.0139
4.151,-0.0153
4.152,-0.014
4.153,-0.008
4.154,0.0045
4.155,-0.0005
4.156,0.007
4.157,0.011
4.158,0.005
4.159,0.0039
4.16,0.0048
4.161,0.0021
4.162,0.0077
4.163,0.0039
4.164,0.0114
4.165,0.0065
4.166,-0.002
4.167,-0.0098
4.168,-0.0107
4.169,-0.0117
4.17,-0.0076
4.171,-0.0129
4.172,-0.0027
4.173,-0.0012
4.174,0.0028
4.175,-0.0007
4.176,0.005
4.177,0.0099
4.178,0.0109
4.179,0.0132
4.18,0.0017
4.181,-0.0032
4.182,0.0026
4.183,0.007
4.184,0.0138
4.185,0.0299
4.186,0.0277
4.187,0.0257
4.188,-0.0018
4.189,-0.0214
4.19,-0.0248
4.191,-0.0153
4.192,-0.0005
4.193,0.0074
4.194,0.0002
4.195,-0.0064
4.196,-0.0003
4.197,-0.0058
4.198,-0.0075
4.199,-0.015
4.2,-0.0245
4.201,-0.0161
4.202,-0.0082
4.203,-0.0012
4.204,0.0052
4.205,0.0059
4.206,0.0129
4.207,0.0156
4.208,0.018
4.209,0.025
4.21,0.0222
4.211,0.0165
4.212,0.0081
4.213,0.007
4.214,0.0079
4.215,-0.0005
4.216,-0.0084
4.217,-0.0093
4.218,-0.0177
4.219,-0.028
4.22,-0.032
4.221,-0.0159
4.222,-0.0005
4.223,0.0136
4.224,0.0081
4.225,-0.0001
4.226,0.0013
4.227,0.0054
4.228,0.0065
4.229,0.0076
4.23,0.0066
4.231,0.0094
4.232,0.0037
4.233,-0.0135
4.234,-0.0173
4.235,-0.0071
4.236,0.0034
4.237,0.0184
4.238,0.0244
4.239,0.0336
4.24,0.0319
4.241,0.0363
4.242,0.024
4.243,0.0224
4.244,0.0059
4.245,0.0213
4.246,0.0112
4.247,-0.0016
4.248,-0.0098
4.249,-0.0234
4.25,-0.0325
4.251,-0.0309
4.252,-0.0353
4.253,-0.0393
4.254,-0.0309
4.255,-0.0252
4.256,-0.0203
4.257,-0.0064
4.258,0.0037
4.259,-0.0018
4.26,-0.0133
4.261,-0.0089
4.262,-0.0102
4.263,-0.0137
4.264,-0.0012
4.265,0.007
4.266,0.0026
4.267,-0.0042
4.268,-0.0007
4.269,-0.0018
4.27,-0.0009
4.271,0.0019
4.272,0.0143
4.273,0.0088
4.274,0.0138
4.275,0.0034
4.276,-0.0117
4.277,0.0024
4.278,0.0189
4.279,0.0123
4.28,-0.0018
4.281,-0.0073
4.282,-0.0056
4.283,-0.0131
4.284,0.0004
4.285,0.0127
4.286,0.031
4.287,0.0334
4.288,0.018
4.289,0.0281
4.29,0.0409
4.291,0.0491
4.292,0.0266
4.293,0.0105
4.294,-0.0043
4.295,-0.0069
4.296,-0.0289
4.297,-0.0318
4.298,-0.0184
4.299,-0.0161
4.3,-0.0095
4.301,-0.0155
4.302,-0.0247
4.303,-0.023
4.304,-0.0155
4.305,-0.0142
4.306,-0.0082
4.307,-0.0093
4.308,-0.0064
4.309,0.0001
4.31,0.0024
4.311,0.0109
4.312,-0.0062
4.313,-0.0183
4.314,-0.0161
4.315,-0.002
4.316,-0.0001
4.317,-0.0018
4.318,0.0057
4.319,0.007
4.32,0.0081
4.321,0.0092
4.322,0.0063
4.323,0.0072
4.324,0.0112
4.325,0.009
4.326,0.0072
4.327,-0.0023
4.328,-0.0091
4.329,-0.0007
4.33,0.0164
4.331,0.0092
4.332,0.007
4.333,0.001
4.334,-0.0082
4.335,-0.0164
4.336,-0.0181
4.337,-0.0016
4.338,0.0184
4.339,0.037
4.34,0.0442
4.341,0.0288
4.342,-0.0014
4.343,-0.0142
4.344,-0.0181
4.345,-0.0075
4.346,-0.017
4.347,-0.014
4.348,-0.0115
4.349,-0.0091
4.35,-0.0069
4.351,-0.0009
4.352,0.0046
4.353,0.0096
4.354,0.014
4.355,0.0127
4.356,0.0066
4.357,0.0055
4.358,0.0065
4.359,-0.002
4.36,-0.0009
4.361,0.0001
4.362,0.001
4.363,-0.0098
4.364,-0.0173
4.365,-0.0214
4.366,-0.0179
4.367,-0.01
4.368,-0.0009
4.369,-0.002
4.37,-0.0031
4.371,0.0039
4.372,0.0123
4.373,0.009
4.374,0.0099
4.375,0.0054
4.376,0.003
4.377,0.0068
4.378,0.0063
4.379,-0.0032
4.38,-0.0183
4.381,-0.0001
4.382,-0.0025
4.383,-0.0091
4.384,-0.0232
4.385,-0.014
4.386,-0.004
4.387,0.0143
4.388,0.0264
4.389,0.0374
4.39,0.0354
4.391,0.0336
4.392,0.0286
4.393,0.0121
4.394,-0.0032
4.395,-0.0012
4.396,-0.0031
4.397,0.0052
4.398,-0.0023
4.399,-0.0064
4.4,-0.0098
4.401,-0.0109
4.402,-0.0179
4.403,-0.0225
4.404,-0.0281
4.405,-0.0197
4.406,-0.0118
4.407,-0.0027
4.408,-0.0062
4.409,-0.0095
4.41,-0.0104
4.411,-0.002
4.412,-0.0031
4.413,-0.006
4.414,-0.0032
4.415,-0.0089
4.416,-0.0005
4.417,0.0052
4.418,-0.01
4.419,-0.0078
4.42,-0.0018
4.421,-0.0036
4.422,-0.0053
4.423,0.0112
4.424,0.0134
4.425,0.0154
4.426,0.0209
4.427,0.016
4.428,0.0116
4.429,0.0076
4.43,0.0015
4.431,0.0048
4.432,0.0057
4.433,-0.0027
4.434,-0.0106
4.435,-0.0036
4.436,0.0028
4.437,0.0063
4.438,-0.0012
4.439,0.014
4.44,0.0206
4.441,0.0347
4.442,0.0255
4.443,0.014
4.444,0.0004
4.445,-0.0087
4.446,-0.0038
4.447,-0.0053
4.448,-0.012
4.449,-0.0086
4.45,-0.0188
4.451,-0.0148
4.452,-0.0183
4.453,-0.0216
4.454,-0.0265
4.455,-0.0181
4.456,-0.0102
4.457,-0.0151
4.458,-0.0067
4.459,0.0103
4.46,0.0127
4.461,0.0237
4.462,0.0136
4.463,0.0081
4.464,0.0065
4.465,0.005
4.466,0.0037
4.467,0.0173
4.468,0.0191
4.469,0.0109
4.47,0.0123
4.471,0.011
4.472,-0.0001
4.473,0.0013
4.474,-0.0109
4.475,-0.0093
4.476,-0.0078
4.477,-0.0038
4.478,-0.0122
4.479,-0.027
4.48,-0.017
4.481,-0.0042
4.482,-0.0025
4.483,0.0019
4.484,0.0087
4.485,0.0121
4.486,-0.0003
4.487,-0.0153
4.488,-0.0069
4.489,0.0072
4.49,0.031
4.491,0.0471
4.492,0.0559
4.493,0.0425
4.494,0.0257
4.495,0.0057
4.496,-0.0129
4.497,-0.0201
4.498,-0.0223
4.499,-0.0283
4.5,-0.0265
4.501,-0.0115
4.502,-0.0216
4.503,-0.0124
4.504,-0.014
4.505,-0.0155
4.506,-0.006
4.507,-0.0049
4.508,0.003
4.509,0.0079
4.51,-0.0023
4.511,-0.001
4.512,0.0125
4.513,0.0107
4.514,0.0024
4.515,0.0039
4.516,-0.0001
4.517,0.001
4.518,-0.0001
4.519,-0.0071
4.52,-0.0062
4.521,-0.0038
4.522,0.0001
4.523,0.0046
4.524,0.0028
4.525,0.0055
4.526,0.0001
4.527,-0.0007
4.528,0.0068
4.529,0.0039
4.53,0.0048
4.531,0.0173
4.532,0.0337
4.533,0.0184
4.534,0.0043
4.535,-0.0049
4.536,-0.0098
4.537,-0.0054
4.538,-0.0205
4.539,-0.0179
4.54,0.0002
4.541,0.0123
4.542,-0.0076
4.543,0.0218
4.544,0.0257
4.545,0.0079
4.546,-0.0082
4.547,-0.0053
4.548,-0.0027
4.549,0.0045
4.55,-0.0021
4.551,-0.0082
4.552,-0.0064
4.553,-0.0146
4.554,-0.025
4.555,-0.0291
4.556,-0.023
4.557,-0.0263
4.558,-0.0151
4.559,-0.0076
4.56,-0.0036
4.561,-0.0001
4.562,-0.0012
4.563,0.012
4.564,0.0248
4.565,0.0297
4.566,0.0162
4.567,0.0143
4.568,0.0061
4.569,-0.0014
4.57,-0.0001
4.571,0.001
4.572,0.0021
4.573,0.0012
4.574,0.0057
4.575,-0.0018
4.576,0.0052
4.577,0.0136
4.578,0.0215
4.579,0.0145
4.58,0.0006
4.581,-0.0014
4.582,0.0004
4.583,0.0054
4.584,-0.0021
4.585,-0.0009
4.586,-0.012
4.587,-0.0164
4.588,-0.0259
4.589,-0.032
4.59,-0.0223
4.591,-0.0166
4.592,-0.0014
4.593,0.0185
4.594,0.0427
4.595,0.0522
4.596,0.0493
4.597,0.0359
4.598,0.0191
4.599,0.0037
4.6,0.0017
4.601,-0.0184
4.602,-0.0263
4.603,-0.0192
4.604,-0.0258
4.605,-0.0197
4.606,-0.0106
4.607,-0.0089
4.608,-0.0133
4.609,-0.0146
4.61,-0.0062
4.611,-0.0029
4.612,0.0021
4.613,-0.0007
4.614,0.0034
4.615,0.0118
4.616,-0.0007
4.617,-0.0056
4.618,-0.0042
4.619,-0.0109
4.62,-0.0194
4.621,-0.0069
4.622,0.0081
4.623,0.0101
4.624,0.0046
4.625,0.0129
4.626,0.0054
4.627,0.0066
4.628,0.0032
4.629,0.0021
4.63,-0.0009
4.631,-0.0036
4.632,0.0055
4.633,-0.0029
4.634,-0.0086
4.635,-0.0115
4.636,-0.0217
4.637,-0.0285
4.638,-0.0369
4.639,-0.0291
4.64,-0.0159
4.641,0.0026
4.642,0.0081
4.643,0.0131
4.644,0.0206
4.645,0.0218
4.646,0.0253
4.647,0.0424
4.648,0.0643
4.649,0.0495
4.65,0.0416
4.651,0.0392
4.652,0.0239
4.653,-0.0023
4.654,-0.0201
4.655,-0.004
4.656,0.0109
4.657,0.0242
4.658,0.0363
4.659,0.0473
4.66,0.0735
4.661,0.1057
4.662,0.1359
4.663,0.1555
4.664,0.1449
4.665,0.1224
4.666,0.0779
4.667,0.059
4.668,0.0418
4.669,0.0052
4.67,-0.0569
4.671,-0.184
4.672,-0.2021
4.673,-0.1856
4.674,-0.1706
4.675,-0.157
4.676,-0.1197
4.677,-0.086
4.678,-0.0758
4.679,-0.0664
4.68,-0.0748
4.681,-0.0518
4.682,-0.0587
4.683,-0.0525
4.684,-0.0468
4.685,-0.0417
4.686,-0.056
4.687,-0.0688
4.688,-0.0805
4.689,-0.084
4.69,-0.0615
4.691,-0.0466
4.692,-0.034
4.693,-0.0153
4.694,-0.0032
4.695,0.0255
4.696,0.0451
4.697,0.0486
4.698,0.0455
4.699,0.0425
4.7,0.0347
4.701,0.0418
4.702,0.0484
4.703,0.0383
4.704,0.0438
4.705,0.0455
4.706,0.0469
4.707,0.051
4.708,0.0544
4.709,0.0601
4.71,0.0592
4.711,0.0528
4.712,0.0552
4.713,0.0544
4.714,0.055
4.715,0.048
4.716,0.0435
4.717,0.0411
4.718,0.0341
4.719,0.0277
4.72,0.022
4.721,0.0105
4.722,0.0055
4.723,0.0131
4.724,0.0171
4.725,0.0182
4.726,0.0149
4.727,0.012
4.728,0.0129
4.729,0.0004
4.73,-0.0051
4.731,0.0065
4.732,0.0021
4.733,0.0008
4.734,0.0043
4.735,-0.0082
4.736,-0.0164
4.737,-0.0269
4.738,-0.0336
4.739,-0.0175
4.74,-0.0021
4.741,0.0079
4.742,0.0098
4.743,0.0165
4.744,0.0182
4.745,0.0167
4.746,0.0207
4.747,0.0292
4.748,0.0235
4.749,0.0083
4.75,-0.0248
4.751,-0.0296
4.752,-0.0254
4.753,-0.0216
4.754,-0.0181
4.755,-0.015
4.756,-0.0062
4.757,-0.014
4.758,-0.0164
4.759,-0.0098
4.76,-0.0118
4.761,-0.0173
4.762,-0.0289
4.763,-0.0214
4.764,-0.0118
4.765,-0.0058
4.766,-0.0047
4.767,-0.0096
4.768,-0.0106
4.769,-0.0049
4.77,-0.0027
4.771,0.0006
4.772,-0.0089
4.773,-0.0049
4.774,0.0035
4.775,0.016
4.776,-0.0023
4.777,0.0048
4.778,0.0292
4.779,0.0066
4.78,-0.0082
4.781,0.0105
4.782,0.0034
4.783,0.0012
4.784,0.0072
4.785,0.009
4.786,0.0107
4.787,0.0063
4.788,-0.0005
4.789,-0.0016
4.79,0.0041
4.791,-0.0009
4.792,-0.0036
4.793,0.0004
4.794,-0.0084
4.795,-0.0153
4.796,-0.0014
4.797,0.0207
4.798,0.0356
4.799,0.0277
4.8,0.0206
4.801,0.0096
4.802,-0.0166
4.803,-0.0272
4.804,-0.0303
4.805,-0.0391
4.806,-0.0258
4.807,-0.0186
4.808,-0.0164
4.809,-0.0104
4.81,-0.0049
4.811,-0.0032
4.812,0.0012
4.813,0.0024
4.814,-0.001
4.815,-0.0181
4.816,-0.0109
4.817,0.0134
4.818,0.0229
4.819,0.0081
4.82,0.0055
4.821,0.0127
4.822,0.0105
4.823,0.0165
4.824,0.0037
4.825,-0.0078
4.826,-0.0064
4.827,-0.0131
4.828,-0.0192
4.829,-0.0021
4.83,0.0002
4.831,-0.002
4.832,0.0001
4.833,0.0055
4.834,0.0072
4.835,0.0057
4.836,0.0045
4.837,0.0034
4.838,0.009
4.839,0.0021
4.84,0.0012
4.841,-0.0029
4.842,-0.0098
4.843,-0.0126
4.844,-0.0018
4.845,-0.0003
4.846,0.0012
4.847,0.0052
4.848,0.0237
4.849,0.037
4.85,0.0347
4.851,0.0281
4.852,0.014
4.853,-0.0098
4.854,-0.0067
4.855,-0.0216
4.856,-0.0349
4.857,-0.0181
4.858,0.0019
4.859,-0.0007
4.86,-0.0078
4.861,-0.01
4.862,-0.0161
4.863,-0.0069
4.864,-0.002
4.865,0.0024
4.866,-0.0043
4.867,-0.0128
4.868,-0.0095
4.869,-0.0104
4.87,-0.0076
4.871,-0.0069
4.872,-0.0031
4.873,0.0045
4.874,0.0196
4.875,0.0175
4.876,0.0195
4.877,0.0103
4.878,0.0054
4.879,0.0068
4.88,-0.0054
4.881,-0.0071
4.882,0.0094
4.883,0.0028
4.884,0.0129
4.885,0.0184
4.886,0.0068
4.887,-0.0036
4.888,-0.0023
4.889,-0.0034
4.89,-0.0001
4.891,-0.0071
4.892,-0.0025
4.893,0.0032
4.894,0.0085
4.895,0.0079
4.896,0.0004
4.897,-0.0091
4.898,-0.0078
4.899,0.0107
4.9,0.0294
4.901,0.027
4.902,0.0513
4.903,0.0418
4.904,0.0151
4.905,-0.0172
4.906,-0.0214
4.907,-0.0252
4.908,-0.0217
4.909,-0.0248
4.91,-0.0397
4.911,-0.0318
4.912,-0.0197
4.913,-0.0087
4.914,0.0094
4.915,0.0262
4.916,0.0196
4.917,0.0136
4.918,0.0154
4.919,0.0004
4.92,-0.0096
4.921,-0.0078
4.922,-0.0029
4.923,-0.0104
4.924,-0.0064
4.925,-0.0029
4.926,-0.004
4.927,0.001
4.928,-0.0075
4.929,-0.0153
4.93,-0.0144
4.931,-0.0098
4.932,-0.0023
4.933,0.0026
4.934,0.009
4.935,0.0098
4.936,0.0105
4.937,0.0123
4.938,0.0105
4.939,0.0021
4.94,-0.0064
4.941,-0.0075
4.942,0.0017
4.943,0.0052
4.944,-0.0005
4.945,-0.0075
4.946,-0.0029
4.947,-0.0018
4.948,-0.0058
4.949,0.0057
4.95,0.0273
4.951,0.0361
4.952,0.0387
4.953,0.012
4.954,-0.0058
4.955,-0.0153
4.956,-0.0065
4.957,-0.004
4.958,-0.0064
4.959,-0.0042
4.96,-0.0102
4.961,-0.0194
4.962,-0.0276
4.963,-0.0291
4.964,-0.025
4.965,-0.0166
4.966,0.0004
4.967,0.0028
4.968,0.0094
4.969,-0.0047
4.97,-0.0029
4.971,0.0021
4.972,-0.0054
4.973,-0.0014
4.974,0.0046
4.975,0.0125
4.976,0.0055
4.977,0.0046
4.978,0.0054
4.979,0.0015
4.98,-0.0087
4.981,-0.0192
4.982,-0.0124
4.983,-0.0113
4.984,-0.008
4.985,-0.0071
4.986,-0.008
4.987,-0.004
4.988,0.0045
4.989,0.0147
4.99,0.016
4.991,-0.0001
4.992,0.0021
4.993,0.0081
4.994,-0.0084
4.995,-0.0018
4.996,0.0043
4.997,-0.0012
4.998,-0.0084
4.999,-0.0166
5,0.003
5.001,0.0109
5.002,0.0229
5.003,0.0429
5.004,0.0616
5.005,0.0396
5.006,0.0248
5.007,0.0061
5.008,-0.001
5.009,-0.0164
5.01,-0.0144
5.011,-0.0199
5.012,-0.0314
5.013,-0.03
5.014,-0.0205
5.015,-0.0144
5.016,-0.0065
5.017,-0.0115
5.018,-0.0069
5.019,-0.0194
5.02,-0.0212
5.021,0.0037
5.022,0.0215
5.023,0.031
5.024,0.0339
5.025,0.0206
5.026,0.0085
5.027,0.0019
5.028,-0.0122
5.029,0.0006
5.03,-0.0076
5.031,-0.0062
5.032,-0.0049
5.033,-0.006
5.034,-0.0071
5.035,-0.012
5.036,-0.0075
5.037,-0.0082
5.038,-0.006
5.039,-0.0014
5.04,0.0004
5.041,0.0077
5.042,0.0087
5.043,0.0151
5.044,0.0175
5.045,0.0121
5.046,0.0116
5.047,0.011
5.048,0.0072
5.049,0.0041
5.05,-0.0034
5.051,0.0023
5.052,0.0114
5.053,0.0175
5.054,0.0207
5.055,0.0116
5.056,0.0055
5.057,-0.0115
5.058,-0.0186
5.059,-0.0252
5.06,-0.0313
5.061,-0.0367
5.062,-0.0285
5.063,-0.015
5.064,0.0052
5.065,0.0131
5.066,0.0251
5.067,0.0185
5.068,0.0165
5.069,0.0147
5.07,0.0032
5.071,-0.0073
5.072,-0.0086
5.073,-0.0025
5.074,0.0008
5.075,-0.0001
5.076,0.0083
5.077,-0.002
5.078,-0.0007
5.079,0.0028
5.08,0.0085
5.081,-0.0047
5.082,0.0008
5.083,0.0158
5.084,0.0057
5.085,-0.0071
5.086,-0.0054
5.087,-0.004
5.088,-0.0135
5.089,-0.0075
5.09,-0.0153
5.091,-0.0104
5.092,-0.0001
5.093,0.0176
5.094,0.0105
5.095,-0.0005
5.096,0.0015
5.097,0.007
5.098,0.0153
5.099,0.0288
5.1,0.0143
5.101,-0.0095
5.102,-0.0064
5.103,-0.0034
5.104,0.0099
5.105,0.022
5.106,0.0198
5.107,0.0017
5.108,-0.0104
5.109,-0.0258
5.11,-0.0197
5.111,-0.0106
5.112,-0.0023
5.113,-0.0009
5.114,-0.0021
5.115,-0.0032
5.116,-0.0065
5.117,-0.0075
5.118,-0.0084
5.119,-0.014
5.12,-0.0118
5.121,-0.01
5.122,-0.0005
5.123,0.0035
5.124,0.0046
5.125,-0.0032
5.126,-0.0023
5.127,-0.0032
5.128,-0.0056
5.129,-0.0049
5.13,-0.0003
5.131,-0.0021
5.132,-0.0038
5.133,0.0037
5.134,0.0048
5.135,0.0077
5.136,0.0032
5.137,-0.0043
5.138,-0.0034
5.139,0.0105
5.14,0.0165
5.141,0.0074
5.142,0.0024
5.143,0.0068
5.144,0.0081
5.145,0.0092
5.146,-0.001
5.147,-0.0188
5.148,-0.0164
5.149,-0.0098
5.15,-0.0118
5.151,-0.0025
5.152,0.003
5.153,0.0013
5.154,0.0239
5.155,0.0532
5.156,0.0649
5.157,0.0543
5.158,0.0381
5.159,0.0114
5.16,-0.0064
5.161,-0.0225
5.162,-0.0313
5.163,-0.0234
5.164,-0.0258
5.165,-0.028
5.166,-0.0259
5.167,-0.0278
5.168,-0.0228
5.169,-0.0124
5.17,-0.0056
5.171,-0.0117
5.172,-0.0014
5.173,0.0026
5.174,0.0037
5.175,0.0048
5.176,0.0039
5.177,0.0012
5.178,-0.0045
5.179,-0.0023
5.18,-0.0126
5.181,-0.014
5.182,-0.0018
5.183,-0.0034
5.184,0.0041
5.185,-0.0027
5.186,0.0008
5.187,-0.0025
5.188,0.0087
5.189,0.0072
5.19,0.0085
5.191,0.0169
5.192,0.0112
5.193,0.0063
5.194,0.0147
5.195,0.0068
5.196,-0.0023
5.197,-0.0058
5.198,-0.0069
5.199,-0.006
5.2,-0.0106
5.201,-0.0014
5.202,0.0012
5.203,0.0001
5.204,0.0125
5.205,0.024
5.206,0.0315
5.207,0.0303
5.208,0.0142
5.209,0.012
5.21,0.0099
5.211,-0.0029
5.212,0.0021
5.213,0.0006
5.214,-0.0062
5.215,-0.0197
5.216,-0.0289
5.217,-0.0173
5.218,-0.0129
5.219,-0.0142
5.22,0.0019
5.221,-0.0003
5.222,0.0017
5.223,-0.0075
5.224,-0.0225
5.225,-0.0164
5.226,-0.0109
5.227,-0.006
5.228,-0.0016
5.229,0.0024
5.23,-0.006
5.231,0.0065
5.232,0.0114
5.233,0.0129
5.234,0.0169
5.235,0.0134
5.236,-0.0014
5.237,0.0006
5.238,-0.0049
5.239,-0.0164
5.24,-0.012
5.241,-0.0107
5.242,-0.0073
5.243,0.0098
5.244,0.0169
5.245,0.0147
5.246,0.0006
5.247,-0.0049
5.248,0.0066
5.249,0.0081
5.25,-0.0014
5.251,-0.0049
5.252,-0.0082
5.253,-0.0194
5.254,-0.0203
5.255,-0.0064
5.256,0.0239
5.257,0.0541
5.258,0.0579
5.259,0.0402
5.26,0.0176
5.261,0.0028
5.262,0.0002
5.263,-0.0069
5.264,-0.0135
5.265,-0.0236
5.266,-0.0291
5.267,-0.0208
5.268,-0.0164
5.269,-0.0042
5.27,-0.0058
5.271,-0.0162
5.272,-0.0012
5.273,0.0129
5.274,0.0074
5.275,-0.0009
5.276,0.0006
5.277,0.0019
5.278,-0.0117
5.279,-0.0098
5.28,-0.0049
5.281,-0.0064
5.282,0.0004
5.283,0.0015
5.284,0.0026
5.285,-0.0065
5.286,-0.015
5.287,0.0021
5.288,-0.0051
5.289,-0.0073
5.29,-0.0012
5.291,0.0043
5.292,0.0092
5.293,0.0048
5.294,0.0035
5.295,0.0001
5.296,0.0125
5.297,0.0076
5.298,0.009
5.299,0.0077
5.3,0.0088
5.301,-0.006
5.302,-0.0161
5.303,-0.0069
5.304,-0.0054
5.305,-0.0005
5.306,0.022
5.307,0.0446
5.308,0.0475
5.309,0.0449
5.31,0.0229
5.311,-0.0038
5.312,-0.0216
5.313,-0.0184
5.314,-0.0155
5.315,-0.0076
5.316,-0.0148
5.317,-0.0082
5.318,0.0059
5.319,-0.0032
5.32,-0.0049
5.321,-0.0005
5.322,-0.0045
5.323,-0.0034
5.324,-0.0023
5.325,-0.0093
5.326,-0.0047
5.327,-0.0071
5.328,-0.0124
5.329,-0.0129
5.33,-0.0161
5.331,-0.0098
5.332,-0.0075
5.333,-0.0036
5.334,-0.0003
5.335,-0.0009
5.336,-0.0025
5.337,0.0008
5.338,-0.0005
5.339,0.0057
5.34,0.0103
5.341,0.0063
5.342,-0.0038
5.343,-0.0106
5.344,-0.0095
5.345,0.003
5.346,0.0112
5.347,0.0068
5.348,0.0055
5.349,0.014
5.35,0.0107
5.351,0.0116
5.352,-0.0023
5.353,0.0037
5.354,0.0092
5.355,0.0019
5.356,-0.0031
5.357,0.0045
5.358,0.014
5.359,0.0224
5.36,0.0394
5.361,0.0323
5.362,0.0169
5.363,-0.0012
5.364,0.0012
5.365,-0.0054
5.366,-0.0195
5.367,-0.025
5.368,-0.0201
5.369,-0.0126
5.37,0.0024
5.371,0.0045
5.372,-0.0047
5.373,-0.0129
5.374,-0.0086
5.375,-0.0073
5.376,-0.0062
5.377,-0.0029
5.378,-0.0078
5.379,-0.0106
5.38,-0.0049
5.381,0.0004
5.382,-0.0042
5.383,0.0015
5.384,0.0037
5.385,0.0043
5.386,0.0048
5.387,0.001
5.388,0.0023
5.389,0.0045
5.39,-0.0001
5.391,-0.0084
5.392,-0.0095
5.393,-0.0045
5.394,-0.0018
5.395,-0.0025
5.396,-0.0018
5.397,-0.0012
5.398,-0.0007
5.399,-0.0023
5.4,-0.0036
5.401,0.0034
5.402,0.0103
5.403,0.0112
5.404,0.0072
5.405,0.005
5.406,0.0239
5.407,0.0301
5.408,0.0261
5.409,0.0191
5.41,0.0312
5.411,0.0229
5.412,0.0004
5.413,-0.0091
5.414,-0.0179
5.415,-0.0205
5.416,-0.0133
5.417,-0.0067
5.418,-0.0007
5.419,-0.0098
5.42,-0.0281
5.421,-0.0353
5.422,-0.0331
5.423,-0.0109
5.424,0.0039
5.425,0.0118
5.426,0.0094
5.427,0.0204
5.428,0.0264
5.429,0.0173
5.43,0.0023
5.431,-0.0078
5.432,-0.0096
5.433,-0.0179
5.434,-0.0194
5.435,-0.0126
5.436,-0.0091
5.437,0.0012
5.438,0.0134
5.439,0.0217
5.44,0.0231
5.441,0.0081
5.442,-0.002
5.443,-0.0001
5.444,0.0015
5.445,0.0001
5.446,0.0096
5.447,0.0085
5.448,0.0096
5.449,0.0087
5.45,0.0041
5.451,-0.0084
5.452,-0.0285
5.453,-0.0206
5.454,-0.0135
5.455,-0.0113
5.456,-0.0012
5.457,0.0114
5.458,0.0096
5.459,0.0211
5.46,0.0315
5.461,0.0303
5.462,0.0118
5.463,-0.0016
5.464,-0.0087
5.465,0.0023
5.466,0.0002
5.467,-0.0016
5.468,-0.0065
5.469,-0.0109
5.47,-0.0096
5.471,-0.0062
5.472,-0.0073
5.473,0.0019
5.474,-0.0016
5.475,-0.0073
5.476,0.0019
5.477,0.0103
5.478,0.0024
5.479,0.0015
5.48,0.0006
5.481,-0.0018
5.482,-0.004
5.483,-0.0102
5.484,-0.0078
5.485,0.0037
5.486,-0.0045
5.487,-0.0001
5.488,-0.0042
5.489,-0.0007
5.49,0.0026
5.491,0.0055
5.492,0.0195
5.493,0.0094
5.494,-0.0071
5.495,-0.0093
5.496,0.0088
5.497,-0.0032
5.498,-0.001
5.499,0.005
5.5,0.0032
5.501,0.0048
5.502,0.0092
5.503,0.0105
5.504,0.0021
5.505,0.0054
5.506,0.0024
5.507,-0.004
5.508,-0.004
5.509,-0.0047
5.51,-0.0025
5.511,0.0077
5.512,0.0063
5.513,0.024
5.514,0.0169
5.515,0.0191
5.516,0.0131
5.517,-0.0071
5.518,-0.015
5.519,0.0019
5.52,0.0129
5.521,-0.0012
5.522,-0.0104
5.523,-0.0087
5.524,-0.0162
5.525,-0.0258
5.526,-0.0197
5.527,-0.014
5.528,-0.015
5.529,-0.0104
5.53,-0.0128
5.531,-0.0089
5.532,0.0001
5.533,0.0061
5.534,0.0118
5.535,0.0109
5.536,0.0099
5.537,-0.0025
5.538,-0.0007
5.539,0.001
5.54,-0.0095
5.541,-0.019
5.542,-0.0225
5.543,-0.0281
5.544,-0.0311
5.545,-0.0338
5.546,-0.023
5.547,-0.0095
5.548,-0.004
5.549,0.0076
5.55,0.012
5.551,0.0132
5.552,0.0217
5.553,0.0319
5.554,0.0251
5.555,0.0286
5.556,0.0389
5.557,0.0321
5.558,0.0185
5.559,0.0107
5.56,0.0125
5.561,0.0374
5.562,0.0623
5.563,0.0784
5.564,0.0991
5.565,0.1341
5.566,0.1484
5.567,0.1442
5.568,0.1403
5.569,0.1368
5.57,0.1075
5.571,0.072
5.572,0.0195
5.573,0.0264
5.574,-0.0053
5.575,-0.0688
5.576,-0.1451
5.577,-0.1964
5.578,-0.1871
5.579,-0.1787
5.58,-0.1402
5.581,-0.1052
5.582,-0.099
5.583,-0.1047
5.584,-0.0996
5.585,-0.0948
5.586,-0.0906
5.587,-0.0944
5.588,-0.1193
5.589,-0.1032
5.59,-0.0765
5.591,-0.0516
5.592,-0.0485
5.593,-0.0633
5.594,-0.0712
5.595,-0.0543
5.596,-0.03
5.597,-0.0075
5.598,0.0132
5.599,0.0054
5.6,-0.0115
5.601,0.0129
5.602,0.016
5.603,0.0248
5.604,0.0543
5.605,0.0581
5.606,0.0475
5.607,0.0444
5.608,0.0651
5.609,0.0676
5.61,0.0685
5.611,0.0614
5.612,0.068
5.613,0.0982
5.614,0.111
5.615,0.0993
5.616,0.0744
5.617,0.0451
5.618,0.0334
5.619,0.0299
5.62,0.0204
5.621,0.0175
5.622,0.0149
5.623,0.0173
5.624,0.0195
5.625,0.0336
5.626,0.0171
5.627,0.0105
5.628,0.0045
5.629,-0.0084
5.63,-0.0067
5.631,0.0068
5.632,0.016
5.633,0.0077
5.634,0.0034
5.635,0.0021
5.636,-0.0014
5.637,-0.0003
5.638,-0.0073
5.639,-0.0027
5.64,-0.0034
5.641,0.0004
5.642,0.0066
5.643,0.0107
5.644,0.0085
5.645,0.001
5.646,-0.002
5.647,-0.0159
5.648,-0.0139
5.649,-0.0157
5.65,-0.0107
5.651,-0.0212
5.652,-0.0199
5.653,-0.0115
5.654,-0.0104
5.655,-0.0113
5.656,-0.0086
5.657,-0.001
5.658,0.0039
5.659,-0.0025
5.66,-0.0065
5.661,-0.0047
5.662,0.0006
5.663,-0.0056
5.664,0.0068
5.665,0.027
5.666,0.0136
5.667,0.0065
5.668,-0.0001
5.669,-0.0021
5.67,-0.0186
5.671,-0.0252
5.672,-0.0232
5.673,-0.0287
5.674,-0.0237
5.675,-0.0073
5.676,-0.0007
5.677,-0.0148
5.678,-0.0166
5.679,-0.0084
5.68,-0.004
5.681,0.0028
5.682,0.0063
5.683,0.0096
5.684,0.0004
5.685,0.0015
5.686,-0.0109
5.687,-0.0192
5.688,-0.0117
5.689,-0.0049
5.69,-0.0014
5.691,0.0019
5.692,0.0068
5.693,0.0153
5.694,0.0142
5.695,0.005
5.696,-0.0086
5.697,-0.0104
5.698,-0.0054
5.699,0.011
5.7,0.0088
5.701,0.0028
5.702,-0.0137
5.703,-0.0203
5.704,-0.0223
5.705,-0.0168
5.706,-0.0018
5.707,0.0043
5.708,-0.0049
5.709,0.0066
5.71,0.0202
5.711,0.0074
5.712,-0.001
5.713,-0.0027
5.714,0.0109
5.715,0.031
5.716,0.0444
5.717,0.0323
5.718,0.0301
5.719,0.012
5.72,0.0096
5.721,0.003
5.722,-0.0031
5.723,-0.0049
5.724,-0.0131
5.725,-0.0175
5.726,-0.0162
5.727,-0.0027
5.728,-0.0045
5.729,-0.0095
5.73,-0.002
5.731,0.0048
5.732,0.0013
5.733,-0.0089
5.734,-0.0076
5.735,-0.0161
5.736,-0.0285
5.737,-0.0236
5.738,-0.0311
5.739,-0.0243
5.74,-0.0058
5.741,0.0021
5.742,0.0045
5.743,0.0198
5.744,0.0138
5.745,0.001
5.746,-0.0007
5.747,0.0008
5.748,0.0021
5.749,0.0081
5.75,0.0048
5.751,0.0057
5.752,0.0066
5.753,0.0026
5.754,-0.0043
5.755,-0.0089
5.756,-0.0065
5.757,0.005
5.758,0.0132
5.759,0.0118
5.76,0.024
5.761,0.029
5.762,0.0154
5.763,0.0012
5.764,-0.008
5.765,-0.0064
5.766,-0.0049
5.767,0.0074
5.768,0.0224
5.769,0.0204
5.77,0.0112
5.771,0.0096
5.772,-0.004
5.773,0.0052
5.774,-0.0064
5.775,-0.0107
5.776,-0.0175
5.777,-0.0164
5.778,-0.0289
5.779,-0.0206
5.78,-0.0071
5.781,-0.0089
5.782,-0.004
5.783,0.0004
5.784,0.0072
5.785,0.0184
5.786,0.0048
5.787,0.0103
5.788,0.0021
5.789,-0.0023
5.79,-0.0036
5.791,0.0024
5.792,0.0035
5.793,0.0006
5.794,0.0034
5.795,0.0041
5.796,-0.0029
5.797,-0.0001
5.798,0.0039
5.799,0.0092
5.8,0.0074
5.801,0.0017
5.802,-0.0053
5.803,-0.0098
5.804,-0.0091
5.805,-0.0113
5.806,-0.001
5.807,0.0125
5.808,0.007
5.809,0.0087
5.81,0.0101
5.811,0.0061
5.812,0.0026
5.813,-0.0031
5.814,-0.0047
5.815,0.0002
5.816,0.0142
5.817,0.0242
5.818,0.0261
5.819,0.0211
5.82,0.0196
5.821,0.0019
5.822,-0.015
5.823,-0.0216
5.824,-0.0236
5.825,-0.0144
5.826,-0.0128
5.827,-0.0053
5.828,-0.0093
5.829,-0.0153
5.83,-0.0096
5.831,0.0035
5.832,0.0054
5.833,0.0037
5.834,-0.0007
5.835,-0.0102
5.836,-0.0186
5.837,-0.0153
5.838,-0.0104
5.839,0.0035
5.84,0.0055
5.841,0.0001
5.842,-0.0016
5.843,-0.0001
5.844,0.0066
5.845,0.0032
5.846,-0.0001
5.847,-0.001
5.848,0.0017
5.849,0.0125
5.85,0.011
5.851,0.0043
5.852,0.0008
5.853,-0.0049
5.854,-0.004
5.855,0.0099
5.856,0.016
5.857,0.0215
5.858,0.0198
5.859,0.0094
5.86,0.0026
5.861,0.0015
5.862,0.0072
5.863,-0.008
5.864,-0.0102
5.865,-0.0186
5.866,-0.0045
5.867,0.0083
5.868,0.0299
5.869,0.0328
5.87,0.025
5.871,0.003
5.872,0.0059
5.873,0.0138
5.874,0.0114
5.875,-0.004
5.876,-0.014
5.877,-0.0305
5.878,-0.0371
5.879,-0.0391
5.88,-0.0336
5.881,-0.0287
5.882,-0.0212
5.883,-0.0144
5.884,-0.0109
5.885,-0.012
5.886,-0.0091
5.887,-0.0082
5.888,-0.0106
5.889,0.001
5.89,-0.004
5.891,-0.0025
5.892,-0.0038
5.893,-0.0027
5.894,0.0006
5.895,0.0098
5.896,0.0109
5.897,0.0006
5.898,-0.0007
5.899,0.0028
5.9,0.0085
5.901,0.0076
5.902,0.003
5.903,-0.0045
5.904,0.0004
5.905,-0.0023
5.906,-0.0031
5.907,-0.0009
5.908,0.0054
5.909,-0.0003
5.91,0.0004
5.911,0.0023
5.912,-0.006
5.913,-0.0027
5.914,0.0043
5.915,0.0107
5.916,0.0173
5.917,0.0229
5.918,0.0314
5.919,0.0303
5.92,0.0233
5.921,0.0372
5.922,0.0272
5.923,0.0143
5.924,0.0028
5.925,-0.0107
5.926,-0.0236
5.927,-0.0318
5.928,-0.0274
5.929,-0.0179
5.93,0.0006
5.931,0.0032
5.932,0.0008
5.933,-0.0014
5.934,0.0046
5.935,-0.0009
5.936,-0.0091
5.937,-0.0166
5.938,-0.0179
5.939,-0.0095
5.94,-0.0038
5.941,0.0054
5.942,0.0019
5.943,0.0008
5.944,-0.0001
5.945,-0.001
5.946,-0.0102
5.947,-0.0237
5.948,-0.0183
5.949,-0.01
5.95,-0.0086
5.951,0.0037
5.952,0.0253
5.953,0.0283
5.954,0.0149
5.955,0.0077
5.956,-0.0032
5.957,-0.0053
5.958,0.0076
5.959,0.0226
5.96,0.0125
5.961,0.0107
5.962,0.0057
5.963,-0.0018
5.964,-0.0031
5.965,-0.0065
5.966,-0.0009
5.967,-0.0054
5.968,-0.0104
5.969,0.0035
5.97,0.0257
5.971,0.0286
5.972,0.0312
5.973,0.0143
5.974,0.0034
5.975,-0.0027
5.976,-0.0045
5.977,-0.0062
5.978,-0.0166
5.979,-0.0153
5.98,-0.0142
5.981,-0.0064
5.982,-0.0014
5.983,-0.0135
5.984,-0.0151
5.985,-0.0166
5.986,-0.0179
5.987,-0.0144
5.988,-0.0155
5.989,-0.0064
5.99,0.0021
5.991,0.001
5.992,0.0101
5.993,0.0136
5.994,0.0103
5.995,0.0012
5.996,0.0023
5.997,0.0079
5.998,0.0129
5.999,0.0138
6,0.0046
6.001,-0.0038
6.002,-0.0027
6.003,0.0002
6.004,-0.0062
6.005,0.0013
6.006,0.0145
6.007,0.031
6.008,0.02
6.009,0.0261
6.01,0.0059
6.011,-0.0075
6.012,-0.0051
6.013,-0.0073
6.014,-0.0133
6.015,-0.0078
6.016,-0.0095
6.017,-0.008
6.018,-0.0054
6.019,-0.0014
6.02,0.0171
6.021,0.0145
6.022,0.0266
6.023,0.0112
6.024,-0.0029
6.025,-0.012
6.026,-0.0038
6.027,-0.0023
6.028,-0.0173
6.029,-0.0153
6.03,-0.0172
6.031,-0.0155
6.032,-0.014
6.033,-0.0181
6.034,-0.0192
6.035,-0.0043
6.036,-0.0064
6.037,-0.0045
6.038,-0.0128
6.039,-0.0023
6.04,-0.0146
6.041,-0.0129
6.042,-0.0054
6.043,0.0123
6.044,0.0244
6.045,0.0222
6.046,0.0162
6.047,0.0143
6.048,0.0193
6.049,0.0328
6.05,0.02
6.051,0.005
6.052,0.003
6.053,-0.0025
6.054,0.0024
6.055,-0.008
6.056,-0.0093
6.057,-0.0058
6.058,-0.0161
6.059,-0.0173
6.06,-0.0089
6.061,0.0013
6.062,0.0001
6.063,-0.001
6.064,0.0001
6.065,-0.0049
6.066,-0.0113
6.067,-0.012
6.068,-0.0142
6.069,-0.0069
6.07,0.0034
6.071,0.0259
6.072,0.0484
6.073,0.0572
6.074,0.0493
6.075,0.0273
6.076,0.0066
6.077,-0.0067
6.078,-0.0139
6.079,-0.0161
6.08,-0.0221
6.081,-0.0203
6.082,-0.0252
6.083,-0.0267
6.084,-0.0199
6.085,-0.0115
6.086,-0.0082
6.087,-0.0173
6.088,-0.0208
6.089,-0.0151
6.09,-0.004
6.091,0.0035
6.092,-0.0005
6.093,-0.004
6.094,-0.0029
6.095,-0.0038
6.096,0.0101
6.097,0.0202
6.098,0.022
6.099,0.0171
6.1,0.0096
6.101,0.0083
6.102,-0.0102
6.103,-0.0128
6.104,-0.0151
6.105,-0.0086
6.106,-0.0065
6.107,-0.001
6.108,-0.0027
6.109,0.0017
6.11,0.0004
6.111,0.0039
6.112,0.0006
6.113,0.0035
6.114,0.0063
6.115,0.0103
6.116,0.005
6.117,-0.0012
6.118,-0.0036
6.119,-0.0043
6.12,0.0034
6.121,-0.0029
6.122,-0.0086
6.123,0.003
6.124,0.0246
6.125,0.0334
6.126,0.0521
6.127,0.0352
6.128,0.0065
6.129,0.0026
6.13,-0.008
6.131,-0.0175
6.132,-0.0205
6.133,-0.0126
6.134,-0.015
6.135,-0.0084
6.136,-0.0144
6.137,-0.0016
6.138,-0.0065
6.139,-0.0201
6.14,-0.0292
6.141,-0.0243
6.142,-0.0258
6.143,-0.0217
6.144,-0.0082
6.145,-0.0027
6.146,0.0088
6.147,0.0224
6.148,0.0206
6.149,0.0123
6.15,0.0048
6.151,0.0088
6.152,0.0099
6.153,0.0066
6.154,-0.0003
6.155,0.0061
6.156,0.0136
6.157,0.0145
6.158,0.0118
6.159,0.0043
6.16,-0.0069
6.161,-0.0054
6.162,-0.0042
6.163,0.0043
6.164,0.0054
6.165,-0.0058
6.166,-0.0043
6.167,-0.0031
6.168,0.003
6.169,0.0019
6.17,-0.0073
6.171,-0.0091
6.172,-0.0007
6.173,0.0118
6.174,0.0268
6.175,0.0248
6.176,0.0449
6.177,0.037
6.178,0.0151
6.179,-0.0236
6.18,-0.0287
6.181,-0.0144
6.182,-0.0186
6.183,-0.0148
6.184,-0.0254
6.185,-0.0159
6.186,-0.0188
6.187,-0.0162
6.188,-0.0186
6.189,-0.012
6.19,-0.002
6.191,0.0035
6.192,-0.0014
6.193,-0.0029
6.194,-0.0042
6.195,-0.0007
6.196,0.0072
6.197,0.0063
6.198,0.0147
6.199,0.0136
6.2,0.0107
6.201,-0.0014
6.202,-0.0096
6.203,-0.0082
6.204,-0.0042
6.205,-0.0031
6.206,0.0026
6.207,0.0076
6.208,0.0085
6.209,0.0045
6.21,0.016
6.211,0.0143
6.212,0.0158
6.213,0.0035
6.214,0.0019
6.215,-0.0025
6.216,-0.0012
6.217,0.0023
6.218,0.0079
6.219,-0.0053
6.22,-0.0107
6.221,-0.0091
6.222,-0.012
6.223,-0.0106
6.224,0.0072
6.225,0.0292
6.226,0.044
6.227,0.0414
6.228,0.0438
6.229,0.0151
6.23,-0.0045
6.231,-0.0223
6.232,-0.0318
6.233,-0.0347
6.234,-0.0269
6.235,-0.0197
6.236,-0.0131
6.237,-0.0071
6.238,-0.0126
6.239,-0.0142
6.24,-0.0098
6.241,-0.0058
6.242,0.0026
6.243,0.0083
6.244,0.0034
6.245,-0.0106
6.246,-0.0086
6.247,-0.0031
6.248,0.0085
6.249,0.016
6.25,0.0147
6.251,0.0182
6.252,0.0171
6.253,0.0059
6.254,0.0015
6.255,-0.0053
6.256,-0.0042
6.257,-0.0053
6.258,-0.0082
6.259,-0.0054
6.26,-0.0014
6.261,-0.0067
6.262,-0.0049
6.263,0.0008
6.264,0.0077
6.265,0.005
6.266,0.0026
6.267,0.0004
6.268,-0.0014
6.269,-0.0109
6.27,-0.015
6.271,-0.0234
6.272,-0.0201
6.273,-0.0062
6.274,0.0008
6.275,0.0147
6.276,0.0449
6.277,0.0577
6.278,0.0539
6.279,0.0074
6.28,0.0012
6.281,-0.0045
6.282,-0.0201
6.283,-0.0248
6.284,-0.0206
6.285,-0.0245
6.286,-0.028
6.287,-0.0248
6.288,-0.0161
6.289,-0.0082
6.29,0.0087
6.291,0.0109
6.292,0.0088
6.293,0.0034
6.294,0.0083
6.295,-0.0053
6.296,-0.0144
6.297,-0.0161
6.298,0.0065
6.299,0.016
6.3,0.0072
6.301,-0.0115
6.302,-0.0043
6.303,0.0023
6.304,0.0043
6.305,0.0061
6.306,0.0077
6.307,0.0002
6.308,-0.0038
6.309,0.0023
6.31,0.0125
6.311,0.0057
6.312,0.0023
6.313,0.0147
6.314,0.0098
6.315,0.0083
6.316,-0.0095
6.317,-0.0166
6.318,-0.0144
6.319,-0.0084
6.32,0.0118
6.321,0.0143
6.322,0.0072
6.323,0.0094
6.324,0.0099
6.325,-0.0001
6.326,0.0017
6.327,0.0132
6.328,0.0328
6.329,0.025
6.33,0.0129
6.331,-0.0025
6.332,-0.0126
6.333,-0.0181
6.334,-0.0098
6.335,-0.0113
6.336,-0.0181
6.337,-0.0241
6.338,-0.0208
6.339,-0.0237
6.34,-0.021
6.341,-0.0203
6.342,-0.0087
6.343,0.0028
6.344,0.0103
6.345,0.0198
6.346,0.0138
6.347,0.0059
6.348,0.0151
6.349,0.0162
6.35,0.0129
6.351,-0.0003
6.352,0.0015
6.353,-0.0034
6.354,0.001
6.355,-0.0003
6.356,0.0057
6.357,-0.0021
6.358,0.0028
6.359,-0.0036
6.36,-0.0076
6.361,-0.0115
6.362,-0.0082
6.363,0.0001
6.364,-0.0032
6.365,-0.0023
6.366,-0.0087
6.367,-0.0212
6.368,-0.0267
6.369,-0.0316
6.37,-0.0272
6.371,-0.0285
6.372,-0.0274
6.373,-0.0263
6.374,-0.0292
6.375,-0.0245
6.376,-0.0106
6.377,0.0156
6.378,0.0478
6.379,0.0607
6.38,0.0489
6.381,0.0312
6.382,0.0281
6.383,0.0251
6.384,0.0226
6.385,0.0347
6.386,0.0325
6.387,0.0345
6.388,0.0253
6.389,0.0103
6.39,-0.0078
6.391,-0.0007
6.392,-0.0117
6.393,0.0105
6.394,0.0253
6.395,0.044
6.396,0.0608
6.397,0.094
6.398,0.137
6.399,0.1542
6.4,0.1491
6.401,0.1253
6.402,0.0863
6.403,0.0812
6.404,0.0574
6.405,0.0184
6.406,-0.0604
6.407,-0.162
6.408,-0.2028
6.409,-0.1904
6.41,-0.1567
6.411,-0.1259
6.412,-0.1166
6.413,-0.0913
6.414,-0.0682
6.415,-0.0474
6.416,-0.0285
6.417,-0.0342
6.418,-0.0393
6.419,-0.0441
6.42,-0.0483
6.421,-0.0521
6.422,-0.0699
6.423,-0.0794
6.424,-0.0882
6.425,-0.1124
6.426,-0.0904
6.427,-0.0611
6.428,-0.0336
6.429,-0.0087
6.43,0.0008
6.431,0.0275
6.432,0.0381
6.433,0.022
6.434,0.0308
6.435,0.0283
6.436,0.0403
6.437,0.0425
6.438,0.0405
6.439,0.0277
6.44,0.0228
6.441,0.0242
6.442,0.0365
6.443,0.0381
6.444,0.0486
6.445,0.0473
6.446,0.0508
6.447,0.0541
6.448,0.055
6.449,0.0577
6.45,0.057
6.451,0.0563
6.452,0.05
6.453,0.0409
6.454,0.0273
6.455,0.0182
6.456,0.0132
6.457,0.0176
6.458,0.0189
6.459,0.0129
6.46,0.014
6.461,0.0189
6.462,0.0235
6.463,0.0228
6.464,0.0266
6.465,0.0204
6.466,0.0079
6.467,-0.0049
6.468,-0.0164
6.469,-0.0208
6.47,-0.0086
6.471,-0.0102
6.472,-0.0177
6.473,-0.019
6.474,-0.0155
6.475,-0.0031
6.476,-0.0047
6.477,-0.0054
6.478,0.0021
6.479,0.0171
6.48,0.0272
6.481,0.04
6.482,0.0317
6.483,0.0092
6.484,-0.0133
6.485,-0.0162
6.486,-0.0188
6.487,-0.0309
6.488,-0.0375
6.489,-0.0314
6.49,-0.0223
6.491,-0.014
6.492,-0.0096
6.493,-0.0109
6.494,-0.0075
6.495,-0.0107
6.496,-0.0038
6.497,-0.001
6.498,0.0114
6.499,0.0206
6.5,0.0023
6.501,-0.0049
6.502,0.0061
6.503,0.0001
6.504,-0.0054
6.505,-0.0205
6.506,-0.0265
6.507,-0.0137
6.508,-0.012
6.509,-0.0076
6.51,-0.0009
6.511,0.0002
6.512,0.0013
6.513,0.0083
6.514,0.0129
6.515,0.0021
6.516,0.0035
6.517,-0.0087
6.518,-0.017
6.519,-0.0126
6.52,-0.0139
6.521,-0.0128
6.522,-0.0025
6.523,0.0015
6.524,0.0026
6.525,0.0083
6.526,0.0074
6.527,0.0083
6.528,0.0085
6.529,0.0077
6.53,0.0131
6.531,0.0233
6.532,0.0398
6.533,0.0288
6.534,-0.0014
6.535,-0.0056
6.536,-0.0173
6.537,-0.0208
6.538,-0.0239
6.539,-0.021
6.54,-0.0184
6.541,-0.0064
6.542,0.0002
6.543,0.0103
6.544,-0.0025
6.545,-0.0042
6.546,-0.0086
6.547,-0.0018
6.548,0.0094
6.549,0.0138
6.55,0.0125
6.551,0.0136
6.552,0.0125
6.553,0.0013
6.554,-0.0062
6.555,-0.0157
6.556,-0.0217
6.557,-0.0093
6.558,0.0023
6.559,-0.0053
6.56,-0.0012
6.561,-0.0047
6.562,-0.0195
6.563,-0.0135
6.564,0.003
6.565,0.014
6.566,0.012
6.567,0.0101
6.568,0.0085
6.569,0.0099
6.57,0.0087
6.571,0.0052
6.572,0.0019
6.573,-0.001
6.574,-0.0056
6.575,0.0001
6.576,0.0085
6.577,0.0096
6.578,0.0066
6.579,0.0129
6.58,0.0083
6.581,0.0207
6.582,0.0226
6.583,0.0209
6.584,0.0134
6.585,0.0012
6.586,-0.0071
6.587,-0.0146
6.588,-0.0269
6.589,-0.0252
6.59,-0.0237
6.591,-0.0115
6.592,-0.0131
6.593,-0.0056
6.594,0.0039
6.595,-0.0021
6.596,-0.001
6.597,-0.0001
6.598,0.0026
6.599,0.0019
6.6,-0.0003
6.601,-0.0106
6.602,-0.012
6.603,-0.0025
6.604,0.001
6.605,-0.0023
6.606,-0.0053
6.607,0.0032
6.608,-0.0025
6.609,-0.0137
6.61,-0.0062
6.611,0.0006
6.612,-0.0005
6.613,0.0006
6.614,-0.0023
6.615,0.0004
6.616,0.0061
6.617,0.0099
6.618,0.0202
6.619,0.0158
6.62,0.0118
6.621,0.0083
6.622,0.0072
6.623,0.0081
6.624,0.009
6.625,0.0066
6.626,0.0013
6.627,0.0059
6.628,-0.0036
6.629,-0.0104
6.63,-0.0164
6.631,-0.008
6.632,0.009
6.633,0.0162
6.634,0.0361
6.635,0.0336
6.636,0.0019
6.637,-0.0109
6.638,-0.0148
6.639,-0.0113
6.64,-0.0144
6.641,-0.0115
6.642,0.0072
6.643,0.0048
6.644,0.0026
6.645,0.0046
6.646,0.0028
6.647,0.0045
6.648,0.0088
6.649,0.0076
6.65,0.0041
6.651,-0.0062
6.652,-0.0184
6.653,-0.0201
6.654,-0.0186
6.655,-0.0199
6.656,-0.0115
6.657,-0.0036
6.658,0.0096
6.659,0.0114
6.66,0.0196
6.661,0.0121
6.662,-0.0001
6.663,-0.0117
6.664,-0.0073
6.665,0.0023
6.666,-0.0038
6.667,-0.0095
6.668,-0.0104
6.669,-0.0001
6.67,0.0121
6.671,0.0105
6.672,0.003
6.673,0.0235
6.674,0.0087
6.675,-0.0047
6.676,-0.0071
6.677,-0.0093
6.678,-0.0153
6.679,-0.0135
6.68,0.0048
6.681,0.0268
6.682,0.0339
6.683,0.0317
6.684,0.0297
6.685,0.0279
6.686,0.0229
6.687,0.0215
6.688,0.001
6.689,-0.0139
6.69,-0.0164
6.691,-0.0236
6.692,-0.0214
6.693,-0.0234
6.694,-0.0179
6.695,-0.0096
6.696,-0.0082
6.697,-0.0042
6.698,-0.0102
6.699,-0.0159
6.7,-0.0188
6.701,-0.0161
6.702,-0.0069
6.703,0.0015
6.704,-0.0042
6.705,-0.0012
6.706,-0.004
6.707,-0.0016
6.708,0.0085
6.709,0.018
6.71,0.0145
6.711,0.0021
6.712,-0.0029
6.713,-0.0073
6.714,-0.0032
6.715,0.0002
6.716,0.0013
6.717,-0.0016
6.718,-0.01
6.719,-0.0089
6.72,0.0023
6.721,-0.0021
6.722,-0.0089
6.723,-0.0124
6.724,-0.0045
6.725,0.0046
6.726,-0.0014
6.727,-0.0003
6.728,0.0046
6.729,0.0055
6.73,0.0032
6.731,0.0147
6.732,0.0195
6.733,0.0178
6.734,0.0222
6.735,0.0262
6.736,0.0297
6.737,0.0422
6.738,0.0239
6.739,-0.0078
6.74,-0.0206
6.741,-0.0245
6.742,-0.028
6.743,-0.0054
6.744,0.0094
6.745,0.0228
6.746,0.0059
6.747,-0.0007
6.748,-0.0027
6.749,-0.0082
6.75,-0.0232
6.751,-0.0292
6.752,-0.0164
6.753,-0.0082
6.754,-0.0007
6.755,0.0006
6.756,0.0017
6.757,-0.0131
6.758,-0.0192
6.759,-0.01
6.76,-0.0051
6.761,-0.0065
6.762,-0.0078
6.763,-0.0043
6.764,-0.0032
6.765,0.0017
6.766,0.0026
6.767,0.0101
6.768,0.0171
6.769,0.018
6.77,0.022
6.771,0.0167
6.772,0.0105
6.773,0.0098
6.774,0.0136
6.775,0.0046
6.776,0.0012
6.777,0.0001
6.778,0.001
6.779,-0.0075
6.78,-0.0064
6.781,-0.0014
6.782,0.007
6.783,0.0085
6.784,0.0028
6.785,0.014
6.786,0.0275
6.787,0.033
6.788,0.0281
6.789,0.0085
6.79,-0.0157
6.791,-0.0126
6.792,-0.0096
6.793,-0.0071
6.794,0.0001
6.795,-0.0021
6.796,-0.0122
6.797,-0.0177
6.798,-0.0194
6.799,-0.015
6.8,-0.0109
6.801,-0.0098
6.802,-0.0065
6.803,0.0004
6.804,0.0013
6.805,-0.0027
6.806,-0.0065
6.807,-0.0071
6.808,-0.0102
6.809,-0.0018
6.81,0.0043
6.811,0.0099
6.812,0.009
6.813,-0.0012
6.814,0.0055
6.815,0.0116
6.816,0.0037
6.817,-0.0054
6.818,-0.002
6.819,-0.0144
6.82,-0.0095
6.821,-0.002
6.822,0.0021
6.823,0.0055
6.824,0.0088
6.825,0.018
6.826,0.0191
6.827,0.027
6.828,0.0261
6.829,0.0121
6.83,0.0021
6.831,0.0039
6.832,-0.001
6.833,-0.0115
6.834,-0.0106
6.835,-0.0065
6.836,-0.0005
6.837,0.0074
6.838,0.0206
6.839,0.0261
6.84,0.0244
6.841,0.0079
6.842,-0.0075
6.843,-0.0175
6.844,-0.012
6.845,-0.0137
6.846,-0.0122
6.847,-0.0135
6.848,-0.0075
6.849,-0.0086
6.85,-0.0076
6.851,-0.014
6.852,-0.0117
6.853,-0.0095
6.854,-0.0049
6.855,-0.0067
6.856,-0.0051
6.857,0.0024
6.858,0.0081
6.859,0.0072
6.86,0.0063
6.861,0.0023
6.862,0.0045
6.863,-0.0001
6.864,-0.0007
6.865,-0.008
6.866,-0.0109
6.867,-0.0137
6.868,-0.0096
6.869,-0.0212
6.87,-0.0228
6.871,-0.0064
6.872,0.018
6.873,0.0275
6.874,0.0246
6.875,0.0167
6.876,0.0143
6.877,0.0165
6.878,0.0145
6.879,0.009
6.88,0.0074
6.881,0.0149
6.882,0.0109
6.883,0.0048
6.884,-0.0054
6.885,-0.0054
6.886,-0.0095
6.887,-0.0034
6.888,0.0045
6.889,0.0156
6.89,0.0231
6.891,0.0381
6.892,0.0321
6.893,0.0193
6.894,-0.0056
6.895,-0.0234
6.896,-0.0265
6.897,-0.0177
6.898,-0.0151
6.899,-0.0223
6.9,-0.0377
6.901,-0.0195
6.902,-0.0172
6.903,-0.0106
6.904,-0.0166
6.905,-0.0148
6.906,-0.0065
6.907,-0.0021
6.908,-0.0009
6.909,0.0103
6.91,0.0028
6.911,-0.004
6.912,0.0096
6.913,0.0224
6.914,0.0175
6.915,0.016
6.916,0.0065
6.917,0.003
6.918,-0.0049
6.919,-0.0201
6.92,-0.0223
6.921,-0.0082
6.922,-0.0064
6.923,-0.0047
6.924,-0.0032
6.925,0.0008
6.926,0.0019
6.927,0.0008
6.928,0.0017
6.929,0.0045
6.93,-0.0064
6.931,0.0041
6.932,0.0081
6.933,-0.0003
6.934,-0.0036
6.935,0.0076
6.936,0.0063
6.937,0.0077
6.938,0.0283
6.939,0.0431
6.94,0.0405
6.941,0.0334
6.942,0.018
6.943,0.02
6.944,0.0035
6.945,-0.0031
6.946,-0.0172
6.947,-0.03
6.948,-0.0316
6.949,-0.0302
6.95,-0.0314
6.951,-0.0254
6.952,-0.0175
6.953,-0.0126
6.954,-0.0117
6.955,-0.0042
6.956,0.005
6.957,0.0015
6.958,-0.0064
6.959,0.0006
6.96,0.0109
6.961,0.0096
6.962,0.0085
6.963,0.0028
6.964,0.0098
6.965,0.0107
6.966,0.005
6.967,0.0028
6.968,0.0046
6.969,0.0028
6.97,0.0045
6.971,-0.0031
6.972,-0.0109
6.973,-0.0159
6.974,-0.0113
6.975,-0.0073
6.976,0.0012
6.977,-0.0067
6.978,0.0002
6.979,-0.0062
6.98,-0.0069
6.981,0.0001
6.982,0.0085
6.983,0.0118
6.984,0.0127
6.985,0.0211
6.986,0.0087
6.987,0.0004
6.988,-0.0045
6.989,0.003
6.99,0.0235
6.991,0.0087
6.992,-0.0047
6.993,0.0121
6.994,0.0275
6.995,0.0295
6.996,0.0204
6.997,0.0021
6.998,-0.01
6.999,-0.0122
7,-0.0183
7.001,-0.0128
7.002,-0.0111
7.003,-0.0216
7.004,-0.0256
7.005,-0.0221
7.006,-0.0073
7.007,-0.0012
7.008,0.0006
7.009,0.0023
7.01,-0.0053
7.011,-0.0012
7.012,-0.0096
7.013,-0.0175
7.014,-0.0166
7.015,-0.0027
7.016,0.0074
7.017,0.0019
7.018,0.0035
7.019,-0.0009
7.02,-0.0076
7.021,-0.0137
7.022,-0.008
7.023,-0.001
7.024,0.0074
7.025,0.0131
7.026,0.02
7.027,0.0228
7.028,0.012
7.029,0.0076
7.03,0.0143
7.031,0.0109
7.032,0.003
7.033,-0.0062
7.034,-0.0197
7.035,-0.0142
7.036,-0.006
7.037,0.0136
7.038,0.007
7.039,0.0096
7.04,0.0167
7.041,0.0233
7.042,0.0374
7.043,0.0502
7.044,0.042
7.045,0.0195
7.046,-0.0098
7.047,-0.0216
7.048,-0.025
7.049,-0.0346
7.05,-0.0375
7.051,-0.0296
7.052,-0.0272
7.053,-0.025
7.054,-0.023
7.055,-0.0175
7.056,-0.0093
7.057,0.0012
7.058,0.0024
7.059,0.0059
7.06,0.0002
7.061,-0.0027
7.062,-0.0054
7.063,-0.0014
7.064,0.0087
7.065,0.0154
7.066,0.012
7.067,0.0109
7.068,0.0099
7.069,0.0109
7.07,0.0052
7.071,0.0045
7.072,0.0012
7.073,-0.0045
7.074,-0.0098
7.075,-0.0131
7.076,-0.01
7.077,-0.0049
7.078,0.0041
7.079,0.0101
7.08,0.0068
7.081,0.0098
7.082,0.0013
7.083,0.0002
7.084,-0.0027
7.085,-0.0054
7.086,-0.0031
7.087,0.0008
7.088,0.0083
7.089,0.0077
7.09,0.0127
7.091,0.0266
7.092,0.0286
7.093,0.0305
7.094,0.0154
7.095,0.0134
7.096,0.0189
7.097,0.0107
7.098,0.0092
7.099,0.016
7.1,0.0149
7.101,-0.0021
7.102,-0.0241
7.103,-0.0389
7.104,-0.0311
7.105,-0.0239
7.106,-0.0173
7.107,-0.0153
7.108,-0.0245
7.109,-0.0228
7.11,-0.0153
7.111,-0.014
7.112,-0.0029
7.113,0.0046
7.114,0.0006
7.115,0.0017
7.116,-0.004
7.117,-0.0049
7.118,0.0015
7.119,0.0023
7.12,-0.0031
7.121,-0.0049
7.122,0.0008
7.123,0.0061
7.124,0.0079
7.125,0.0074
7.126,0.0001
7.127,-0.0009
7.128,0.0019
7.129,-0.0005
7.13,0.0002
7.131,0.0008
7.132,0.009
7.133,0.0123
7.134,0.0173
7.135,0.007
7.136,-0.008
7.137,-0.0221
7.138,-0.0276
7.139,-0.0161
7.14,-0.0106
7.141,0.003
7.142,0.0158
7.143,0.0374
7.144,0.0462
7.145,0.0328
7.146,0.0352
7.147,0.0286
7.148,0.0024
7.149,-0.0153
7.15,-0.0248
7.151,-0.0278
7.152,-0.0199
7.153,-0.0175
7.154,-0.0241
7.155,-0.0302
7.156,-0.032
7.157,-0.0237
7.158,-0.0281
7.159,-0.0269
7.16,-0.0208
7.161,-0.0084
7.162,-0.0166
7.163,-0.0091
7.164,0.0114
7.165,0.0262
7.166,0.0237
7.167,0.0261
7.168,0.0414
7.169,0.0475
7.17,0.0456
7.171,0.0341
7.172,0.0416
7.173,0.0321
7.174,0.0286
7.175,0.0456
7.176,0.0577
7.177,0.0599
7.178,0.0861
7.179,0.1183
7.18,0.1399
7.181,0.1438
7.182,0.1403
7.183,0.0916
7.184,0.0707
7.185,0.0519
7.186,0.0231
7.187,-0.0556
7.188,-0.1798
7.189,-0.1962
7.19,-0.2112
7.191,-0.1695
7.192,-0.1287
7.193,-0.0913
7.194,-0.0349
7.195,-0.0247
7.196,-0.0153
7.197,-0.0406
7.198,-0.0637
7.199,-0.0706
7.2,-0.0644
7.201,-0.0701
7.202,-0.0649
7.203,-0.0792
7.204,-0.1008
7.205,-0.1126
7.206,-0.116
7.207,-0.0999
7.208,-0.0732
7.209,-0.0483
7.21,-0.0322
7.211,-0.0173
7.212,-0.004
7.213,0.0129
7.214,0.0328
7.215,0.0407
7.216,0.0431
7.217,0.0497
7.218,0.0638
7.219,0.0619
7.22,0.0436
7.221,0.0413
7.222,0.0656
7.223,0.0687
7.224,0.0539
7.225,0.0513
7.226,0.0489
7.227,0.0467
7.228,0.0488
7.229,0.0433
7.23,0.0482
7.231,0.0378
7.232,0.0391
7.233,0.038
7.234,0.0369
7.235,0.0398
7.236,0.0295
7.237,0.0336
7.238,0.0151
7.239,0.0176
7.24,0.0248
7.241,0.0138
7.242,0.0107
7.243,0.0127
7.244,0.0328
7.245,0.0354
7.246,0.0621
7.247,0.0515
7.248,0.0158
7.249,-0.0175
7.25,-0.0303
7.251,-0.0265
7.252,-0.03
7.253,-0.0269
7.254,-0.0298
7.255,-0.0272
7.256,-0.0201
7.257,-0.0179
7.258,-0.0159
7.259,-0.0031
7.26,0.0085
7.261,0.001
7.262,-0.0086
7.263,-0.0096
7.264,-0.0107
7.265,-0.0117
7.266,-0.0201
7.267,-0.0234
7.268,-0.0225
7.269,-0.014
7.27,-0.0129
7.271,-0.01
7.272,-0.0164
7.273,-0.0073
7.274,-0.0062
7.275,-0.0095
7.276,-0.0144
7.277,-0.006
7.278,-0.0071
7.279,0.0021
7.28,0.0132
7.281,0.0118
7.282,0.0077
7.283,0.0088
7.284,0.0145
7.285,0.0116
7.286,0.007
7.287,0.0077
7.288,0.0162
7.289,0.0151
7.29,0.0081
7.291,-0.004
7.292,-0.0056
7.293,-0.001
7.294,-0.0025
7.295,0.0125
7.296,0.0145
7.297,0.042
7.298,0.0224
7.299,-0.0025
7.3,-0.025
7.301,-0.028
7.302,-0.0254
7.303,-0.0325
7.304,-0.0347
7.305,-0.0408
7.306,-0.0206
7.307,-0.0073
7.308,0.0048
7.309,0.007
7.31,0.0171
7.311,0.0189
7.312,0.0206
7.313,0.001
7.314,-0.0177
7.315,-0.0153
7.316,-0.0131
7.317,-0.0111
7.318,-0.002
7.319,-0.0102
7.32,-0.0177
7.321,-0.0109
7.322,-0.012
7.323,-0.0087
7.324,-0.0078
7.325,0.0024
7.326,0.0012
7.327,0.0072
7.328,-0.0007
7.329,-0.0016
7.33,0.0068
7.331,0.0101
7.332,0.0151
7.333,0.0196
7.334,0.0253
7.335,0.02
7.336,0.0098
7.337,-0.0067
7.338,-0.0133
7.339,-0.0032
7.34,-0.0014
7.341,0.0035
7.342,0.0079
7.343,0.0039
7.344,0.007
7.345,0.001
7.346,-0.0001
7.347,0.0131
7.348,0.0405
7.349,0.0522
7.35,0.0345
7.351,0.0184
7.352,-0.0084
7.353,-0.0261
7.354,-0.0292
7.355,-0.0263
7.356,-0.0289
7.357,-0.0265
7.358,-0.0111
7.359,-0.0091
7.36,-0.0073
7.361,0.001
7.362,0.0054
7.363,0.0094
7.364,0.0129
7.365,0.014
7.366,0.007
7.367,0.0024
7.368,-0.0032
7.369,-0.001
7.37,-0.0005
7.371,-0.0023
7.372,-0.0075
7.373,-0.0056
7.374,-0.0087
7.375,-0.0104
7.376,-0.0137
7.377,-0.0133
7.378,-0.0071
7.379,-0.0025
7.38,0.0015
7.381,0.0131
7.382,0.0081
7.383,-0.0023
7.384,-0.0091
7.385,-0.008
7.386,-0.0023
7.387,0.0068
7.388,0.0129
7.389,0.0185
7.39,0.0094
7.391,0.0105
7.392,0.0048
7.393,-0.0043
7.394,-0.0104
7.395,-0.0098
7.396,0.0004
7.397,0.0154
7.398,0.0336
7.399,0.0504
7.4,0.0658
7.401,0.0356
7.402,0.0054
7.403,0.0015
7.404,-0.0091
7.405,-0.0186
7.406,-0.0335
7.407,-0.0413
7.408,-0.0389
7.409,-0.028
7.41,-0.0259
7.411,-0.0131
7.412,-0.0082
7.413,0.0054
7.414,0.0145
7.415,0.0162
7.416,0.0118
7.417,0.0131
7.418,0.0019
7.419,-0.0025
7.42,-0.012
7.421,-0.0131
7.422,-0.0053
7.423,0.0017
7.424,-0.001
7.425,0.0046
7.426,0.0008
7.427,0.0054
7.428,0.0048
7.429,-0.0025
7.43,0.0004
7.431,0.0032
7.432,0.0055
7.433,0.0077
7.434,-0.0025
7.435,-0.004
7.436,-0.0027
7.437,0.0008
7.438,-0.0071
7.439,-0.0001
7.44,0.0045
7.441,0.0021
7.442,-0.0018
7.443,0.0085
7.444,0.0129
7.445,0.0006
7.446,-0.0106
7.447,-0.0089
7.448,-0.0045
7.449,0.016
7.45,0.0427
7.451,0.0392
7.452,0.0231
7.453,-0.0036
7.454,-0.0001
7.455,-0.0096
7.456,-0.0184
7.457,-0.021
7.458,-0.0281
7.459,-0.0347
7.46,-0.0206
7.461,-0.0115
7.462,-0.0032
7.463,0.0012
7.464,0.0107
7.465,0.0118
7.466,0.0107
7.467,0.0116
7.468,0.007
7.469,-0.0054
7.47,-0.0109
7.471,-0.0192
7.472,-0.0177
7.473,-0.0054
7.474,0.0061
7.475,0.0105
7.476,0.001
7.477,-0.0025
7.478,0.0099
7.479,0.0116
7.48,0.0072
7.481,0.0277
7.482,0.0189
7.483,0.0055
7.484,-0.0113
7.485,-0.0313
7.486,-0.0287
7.487,-0.0216
7.488,-0.0194
7.489,-0.0053
7.49,0.0039
7.491,0.0055
7.492,-0.002
7.493,0.0048
7.494,0.0013
7.495,-0.0111
7.496,-0.0194
7.497,-0.0179
7.498,-0.0104
7.499,0.0101
7.5,0.025
7.501,0.0328
7.502,0.04
7.503,0.051
7.504,0.0248
7.505,-0.0001
7.506,-0.0096
7.507,-0.0067
7.508,-0.0093
7.509,-0.0117
7.51,-0.0139
7.511,-0.0199
7.512,-0.0144
7.513,-0.0095
7.514,-0.0051
7.515,-0.001
7.516,-0.0122
7.517,-0.0137
7.518,-0.0124
7.519,-0.0064
7.52,0.0015
7.521,0.0024
7.522,0.0109
7.523,0.012
7.524,-0.0032
7.525,-0.0054
7.526,-0.0155
7.527,0.0083
7.528,0.0178
7.529,0.009
7.53,0.0065
7.531,0.0041
7.532,0.0019
7.533,0.0039
7.534,-0.0016
7.535,-0.0065
7.536,-0.0109
7.537,-0.0096
7.538,-0.0181
7.539,-0.0124
7.54,0.0028
7.541,0.0138
7.542,0.0077
7.543,0.0096
7.544,0.0178
7.545,0.0164
7.546,0.0123
7.547,0.0207
7.548,0.0231
7.549,0.0129
7.55,0.0279
7.551,0.0339
7.552,0.0358
7.553,0.0142
7.554,-0.0007
7.555,-0.014
7.556,-0.0212
7.557,-0.019
7.558,-0.0129
7.559,-0.0075
7.56,-0.0058
7.561,-0.0073
7.562,-0.014
7.563,-0.0106
7.564,-0.0117
7.565,-0.0166
7.566,-0.0212
7.567,-0.0155
7.568,-0.0086
7.569,-0.004
7.57,0.0085
7.571,0.003
7.572,-0.002
7.573,-0.0005
7.574,-0.0018
7.575,-0.0078
7.576,-0.0021
7.577,0.007
7.578,0.0105
7.579,0.0072
7.58,0.0043
7.581,-0.0003
7.582,-0.0027
7.583,-0.0049
7.584,-0.0082
7.585,-0.0038
7.586,-0.0032
7.587,-0.0029
7.588,0.0013
7.589,0.0098
7.59,0.0087
7.591,0.003
7.592,0.0079
7.593,0.0125
7.594,0.0132
7.595,0.0202
7.596,0.0081
7.597,-0.0001
7.598,0.0043
7.599,0.0151
7.6,0.0164
7.601,0.0052
7.602,0.0187
7.603,0.0206
7.604,0.0288
7.605,0.0363
7.606,0.0268
7.607,0.0083
7.608,-0.0051
7.609,-0.0122
7.61,-0.0144
7.611,-0.0205
7.612,-0.0223
7.613,-0.0206
7.614,-0.0221
7.615,-0.0289
7.616,-0.0278
7.617,-0.0311
7.618,-0.0199
7.619,-0.0243
7.62,-0.0148
7.621,-0.0036
7.622,0.0099
7.623,0.0191
7.624,0.0109
7.625,0.0004
7.626,0.0072
7.627,0.0156
7.628,0.0167
7.629,0.0138
7.63,-0.0001
7.631,-0.0102
7.632,-0.0084
7.633,-0.0034
7.634,-0.002
7.635,-0.0007
7.636,-0.0042
7.637,0.0015
7.638,-0.0054
7.639,0.0085
7.64,0.0024
7.641,0.0043
7.642,0.0059
7.643,0.0045
7.644,0.0057
7.645,0.0118
7.646,0.0061
7.647,0.0032
7.648,-0.0032
7.649,-0.0056
7.65,-0.001
7.651,0.0012
7.652,0.0114
7.653,0.025
7.654,0.0268
7.655,0.0185
7.656,0.029
7.657,0.0277
7.658,0.0092
7.659,-0.015
7.66,-0.0181
7.661,-0.021
7.662,-0.0289
7.663,-0.0217
7.664,-0.0151
7.665,-0.0131
7.666,-0.0076
7.667,-0.0093
7.668,-0.0137
7.669,-0.0177
7.67,-0.0237
7.671,-0.0181
7.672,-0.0089
7.673,-0.0005
7.674,0.0006
7.675,0.0076
7.676,0.0103
7.677,0.0079
7.678,-0.0036
7.679,-0.0118
7.68,-0.0075
7.681,0.0021
7.682,0.0105
7.683,0.0207
7.684,0.014
7.685,0.0079
7.686,0.0023
7.687,0.0032
7.688,0.0004
7.689,-0.0087
7.69,-0.0098
7.691,-0.0131
7.692,-0.0122
7.693,0.0017
7.694,0.0118
7.695,0.0136
7.696,0.0153
7.697,0.0167
7.698,0.0072
7.699,-0.0064
7.7,0.0101
7.701,0.0121
7.702,0.0143
7.703,0.0204
7.704,0.0295
7.705,0.0246
7.706,0.0321
7.707,0.0226
7.708,0.0041
7.709,-0.0254
7.71,-0.0371
7.711,-0.0336
7.712,-0.0175
7.713,-0.0027
7.714,0.0107
7.715,0.0131
7.716,0.0021
7.717,0.0001
7.718,-0.0091
7.719,-0.0173
7.72,-0.0159
7.721,-0.0199
7.722,-0.0164
7.723,-0.0107
7.724,-0.0038
7.725,-0.0065
7.726,0.0059
7.727,0.0151
7.728,0.0035
7.729,-0.0069
7.73,-0.0056
7.731,0.0079
7.732,0.0024
7.733,-0.0058
7.734,-0.0102
7.735,-0.0062
7.736,-0.0027
7.737,-0.0016
7.738,-0.0086
7.739,0.0035
7.74,0.0218
7.741,0.0195
7.742,0.0129
7.743,0.0149
7.744,0.0131
7.745,0.0081
7.746,-0.0084
7.747,-0.0018
7.748,0.0002
7.749,-0.0016
7.75,-0.0032
7.751,0.0072
7.752,0.0099
7.753,-0.0051
7.754,0.005
7.755,0.0325
7.756,0.0442
7.757,0.0477
7.758,0.0184
7.759,0.0066
7.76,-0.0111
7.761,-0.0336
7.762,-0.0366
7.763,-0.0232
7.764,-0.0111
7.765,-0.0089
7.766,-0.0069
7.767,-0.0161
7.768,-0.0111
7.769,-0.0155
7.77,-0.0142
7.771,-0.0107
7.772,-0.0051
7.773,-0.0042
7.774,-0.0032
7.775,0.0024
7.776,0.0032
7.777,-0.0014
7.778,0.0017
7.779,-0.0067
7.78,-0.0007
7.781,0.0072
7.782,0.0081
7.783,0.0035
7.784,0.011
7.785,0.0101
7.786,0.0017
7.787,0.0028
7.788,0.0019
7.789,0.0158
7.79,0.0178
7.791,0.0087
7.792,0.0004
7.793,0.0019
7.794,-0.0049
7.795,-0.0133
7.796,-0.0031
7.797,0.0065
7.798,0.0125
7.799,0.0136
7.8,-0.0016
7.801,0.005
7.802,-0.001
7.803,-0.0047
7.804,-0.0139
7.805,-0.0056
7.806,0.014
7.807,0.0326
7.808,0.0447
7.809,0.0425
7.81,0.0204
7.811,0.0116
7.812,-0.0126
7.813,-0.0287
7.814,-0.0199
7.815,-0.0173
7.816,-0.0197
7.817,-0.0263
7.818,-0.0324
7.819,-0.0305
7.82,-0.019
7.821,-0.0265
7.822,-0.0197
7.823,-0.0113
7.824,-0.0056
7.825,-0.0027
7.826,0.0019
7.827,0.0094
7.828,0.0024
7.829,0.0088
7.83,0.0096
7.831,0.018
7.832,0.0147
7.833,0.0077
7.834,0.005
7.835,0.001
7.836,0.0032
7.837,0.0013
7.838,-0.0018
7.839,-0.0045
7.84,-0.01
7.841,-0.0139
7.842,-0.0172
7.843,-0.0102
7.844,0.0037
7.845,0.0098
7.846,0.0153
7.847,0.007
7.848,0.0145
7.849,0.0158
7.85,0.0046
7.851,-0.0029
7.852,-0.0016
7.853,0.0045
7.854,0.0048
7.855,0.0151
7.856,0.0301
7.857,0.0402
7.858,0.042
7.859,0.0237
7.86,-0.0031
7.861,-0.0137
7.862,-0.0168
7.863,-0.0256
7.864,-0.0281
7.865,-0.0161
7.866,0.0039
7.867,0.0013
7.868,-0.001
7.869,-0.0076
7.87,0.0024
7.871,-0.0031
7.872,0.0019
7.873,-0.0025
7.874,-0.0175
7.875,-0.0236
7.876,-0.0034
7.877,0.0099
7.878,0.0123
7.879,0.0057
7.88,-0.0084
7.881,-0.0102
7.882,-0.0184
7.883,-0.0109
7.884,0.0041
7.885,0.0061
7.886,0.0043
7.887,0.0092
7.888,-0.0043
7.889,-0.0172
7.89,0.0012
7.891,0.0083
7.892,0.0105
7.893,0.0004
7.894,0.0059
7.895,0.0043
7.896,0.0087
7.897,0.0074
7.898,0.0013
7.899,-0.0089
7.9,-0.0157
7.901,-0.0241
7.902,-0.0252
7.903,-0.014
7.904,-0.0036
7.905,0.0026
7.906,0.0066
7.907,0.0178
7.908,0.0374
7.909,0.04
7.91,0.0376
7.911,0.0354
7.912,0.0092
7.913,-0.0086
7.914,-0.0247
7.915,-0.0159
7.916,-0.0133
7.917,-0.0062
7.918,-0.0128
7.919,-0.0067
7.92,-0.0012
7.921,-0.0095
7.922,-0.008
7.923,-0.0012
7.924,0.0048
7.925,0.0105
7.926,0.0035
7.927,-0.0049
7.928,-0.006
7.929,-0.0089
7.93,-0.0043
7.931,0.0013
7.932,0.0021
7.933,0.0066
7.934,0.0035
7.935,0.003
7.936,-0.0036
7.937,-0.0027
7.938,-0.0151
7.939,-0.0133
7.94,-0.0018
7.941,0.0057
7.942,0.007
7.943,0.0059
7.944,0.0116
7.945,0.0125
7.946,0.0079
7.947,0.0039
7.948,0.0017
7.949,-0.0016
7.95,-0.0021
7.951,0.0063
7.952,0.0028
7.953,-0.0051
7.954,-0.0042
7.955,-0.0087
7.956,-0.0084
7.957,0.0041
7.958,0.0096
7.959,0.0246
7.96,0.0306
7.961,0.0178
7.962,0.0394
7.963,0.0306
7.964,0.0012
7.965,-0.0106
7.966,-0.0212
7.967,-0.0243
7.968,-0.0214
7.969,-0.0292
7.97,-0.0269
7.971,-0.0247
7.972,-0.0065
7.973,0.0103
7.974,0.0081
7.975,0.0021
7.976,0.0002
7.977,-0.008
7.978,-0.0095
7.979,-0.0162
7.98,-0.0223
7.981,-0.0166
7.982,-0.0014
7.983,0.0229
7.984,0.0198
7.985,0.011
7.986,-0.0076
7.987,-0.0197
7.988,-0.0307
7.989,-0.0247
7.99,-0.0192
7.991,-0.0241
7.992,-0.0197
7.993,-0.0129
7.994,-0.0164
7.995,-0.0107
7.996,-0.0058
7.997,0.0026
7.998,-0.0144
7.999,0.0123
8,0.0229
8.001,0.0325
8.002,0.0413
8.003,0.0491
8.004,0.0563
8.005,0.0541
8.006,0.0521
8.007,0.0363
8.008,0.0272
8.009,0.0321
8.01,0.0486
8.011,0.0773
8.012,0.0969
8.013,0.1218
8.014,0.1313
8.015,0.1343
8.016,0.1368
8.017,0.1052
8.018,0.0749
8.019,0.0315
8.02,0.0143
8.021,-0.0012
8.022,-0.025
8.023,-0.09
8.024,-0.1928
8.025,-0.1792
8.026,-0.1668
8.027,-0.1556
8.028,-0.1248
8.029,-0.0968
8.03,-0.0715
8.031,-0.0792
8.032,-0.0584
8.033,-0.0646
8.034,-0.0589
8.035,-0.0745
8.036,-0.0697
8.037,-0.0569
8.038,-0.0686
8.039,-0.0721
8.04,-0.0816
8.041,-0.0845
8.042,-0.0767
8.043,-0.0695
8.044,-0.0452
8.045,-0.0291
8.046,-0.0261
8.047,-0.002
8.048,0.0076
8.049,0.0164
8.05,0.0297
8.051,0.0517
8.052,0.0546
8.053,0.0572
8.054,0.0596
8.055,0.0486
8.056,0.0466
8.057,0.0594
8.058,0.0685
8.059,0.0735
8.06,0.09
8.061,0.0966
8.062,0.0825
8.063,0.0953
8.064,0.087
8.065,0.0645
8.066,0.042
8.067,0.0332
8.068,0.0198
8.069,0.0077
8.07,0.0012
8.071,0.0072
8.072,0.0017
8.073,0.0099
8.074,0.0024
8.075,0.0147
8.076,0.0164
8.077,0.012
8.078,0.016
8.079,0.0099
8.08,0.0132
8.081,0.0123
8.082,0.0002
8.083,-0.0113
8.084,-0.0128
8.085,-0.014
8.086,-0.0225
8.087,-0.0281
8.088,-0.0129
8.089,-0.002
8.09,0.0041
8.091,0.0023
8.092,-0.0093
8.093,-0.0107
8.094,-0.0067
8.095,-0.0078
8.096,-0.0067
8.097,-0.0038
8.098,0.0065
8.099,0.0215
8.1,0.0154
8.101,0.0173
8.102,0.0123
8.103,0.0019
8.104,-0.0076
8.105,-0.0161
8.106,-0.0217
8.107,-0.0188
8.108,-0.0197
8.109,-0.0172
8.11,-0.0115
8.111,-0.0014
8.112,0.0081
8.113,0.0266
8.114,0.0345
8.115,0.0176
8.116,0.0023
8.117,0.0002
8.118,-0.0162
8.119,-0.0228
8.12,-0.0208
8.121,-0.019
8.122,-0.014
8.123,-0.0155
8.124,-0.0195
8.125,-0.0206
8.126,-0.0128
8.127,-0.0078
8.128,0.0024
8.129,0.0012
8.13,0.0001
8.131,0.0079
8.132,0.0171
8.133,0.0182
8.134,0.0057
8.135,-0.0159
8.136,-0.0188
8.137,-0.0214
8.138,-0.0237
8.139,-0.0128
8.14,0.0013
8.141,0.0105
8.142,0.0187
8.143,0.0202
8.144,0.0134
8.145,0.0023
8.146,0.0037
8.147,0.005
8.148,0.0134
8.149,0.0101
8.15,0.001
8.151,-0.0051
8.152,-0.0018
8.153,-0.017
8.154,-0.0192
8.155,-0.0172
8.156,-0.0226
8.157,-0.0144
8.158,-0.004
8.159,0.0001
8.16,0.0019
8.161,0.0154
8.162,0.0209
8.163,0.0359
8.164,0.038
8.165,0.0325
8.166,0.0076
8.167,0.0041
8.168,0.0072
8.169,-0.0016
8.17,0.001
8.171,-0.0111
8.172,-0.0133
8.173,0.0088
8.174,0.0237
8.175,0.0103
8.176,-0.0065
8.177,-0.0131
8.178,-0.0111
8.179,-0.0093
8.18,-0.0142
8.181,-0.0098
8.182,-0.0086
8.183,-0.0075
8.184,-0.0042
8.185,-0.0071
8.186,-0.021
8.187,-0.019
8.188,-0.0062
8.189,-0.0012
8.19,-0.0056
8.191,-0.0016
8.192,-0.0005
8.193,-0.0062
8.194,-0.0032
8.195,-0.0096
8.196,-0.0073
8.197,0.0012
8.198,0.0136
8.199,0.0185
8.2,0.02
8.201,0.0213
8.202,0.0153
8.203,0.005
8.204,-0.0045
8.205,-0.008
8.206,0.0023
8.207,-0.0045
8.208,-0.001
8.209,-0.0043
8.21,0.0026
8.211,-0.0003
8.212,0.0043
8.213,0.0019
8.214,0.0072
8.215,0.0162
8.216,0.0077
8.217,-0.0001
8.218,0.009
8.219,0.0202
8.22,0.0006
8.221,-0.0181
8.222,-0.0012
8.223,0.0142
8.224,0.0242
8.225,0.0407
8.226,0.0385
8.227,0.0083
8.228,-0.0133
8.229,-0.0095
8.23,-0.0201
8.231,-0.0106
8.232,-0.0194
8.233,-0.038
8.234,-0.0309
8.235,-0.0243
8.236,-0.0223
8.237,-0.0095
8.238,0.0021
8.239,0.0065
8.24,0.0077
8.241,0.0088
8.242,-0.006
8.243,-0.004
8.244,0.0088
8.245,0.0239
8.246,0.0218
8.247,0.0054
8.248,0.0076
8.249,0.0015
8.25,-0.0003
8.251,0.0013
8.252,-0.0031
8.253,-0.0126
8.254,-0.0091
8.255,-0.0012
8.256,0.014
8.257,0.0206
8.258,0.0105
8.259,-0.0023
8.26,-0.0106
8.261,-0.0091
8.262,-0.0216
8.263,-0.012
8.264,0.0065
8.265,0.0251
8.266,0.0471
8.267,0.0323
8.268,-0.0027
8.269,-0.0075
8.27,-0.0032
8.271,-0.0071
8.272,-0.0106
8.273,-0.0075
8.274,-0.0104
8.275,-0.0129
8.276,-0.0106
8.277,-0.004
8.278,-0.002
8.279,-0.0038
8.28,-0.0054
8.281,-0.0069
8.282,-0.0029
8.283,-0.0018
8.284,-0.0051
8.285,-0.0021
8.286,-0.0049
8.287,0.0059
8.288,0.0015
8.289,-0.0025
8.29,0.0059
8.291,0.0138
8.292,0.0129
8.293,0.0156
8.294,0.0099
8.295,0.0046
8.296,0.0028
8.297,-0.0067
8.298,-0.0054
8.299,-0.0089
8.3,-0.0056
8.301,-0.0106
8.302,-0.006
8.303,-0.002
8.304,0.0034
8.305,0.0001
8.306,0.0083
8.307,0.005
8.308,0.0021
8.309,0.003
8.31,0.0023
8.311,0.0045
8.312,0.0026
8.313,-0.004
8.314,-0.0096
8.315,0.0019
8.316,0.0169
8.317,0.027
8.318,0.0398
8.319,0.0283
8.32,0.0057
8.321,-0.0104
8.322,-0.0133
8.323,-0.0212
8.324,-0.014
8.325,-0.0118
8.326,-0.0098
8.327,-0.0153
8.328,-0.017
8.329,-0.0126
8.33,-0.0058
8.331,-0.0023
8.332,0.001
8.333,-0.0122
8.334,-0.025
8.335,-0.0234
8.336,-0.0278
8.337,-0.0128
8.338,-0.0107
8.339,0.0021
8.34,0.007
8.341,0.0085
8.342,0.0045
8.343,-0.0016
8.344,0.0017
8.345,0.0066
8.346,0.0187
8.347,0.0105
8.348,0.012
8.349,0.0024
8.35,-0.001
8.351,0.0023
8.352,0.0114
8.353,0.0103
8.354,0.0001
8.355,0.0041
8.356,0.0052
8.357,-0.0051
8.358,-0.0038
8.359,-0.0003
8.36,-0.0036
8.361,-0.0086
8.362,-0.0131
8.363,-0.0107
8.364,-0.0047
8.365,-0.0025
8.366,0.0077
8.367,0.0303
8.368,0.0334
8.369,0.0305
8.37,0.0279
8.371,0.0207
8.372,0.0142
8.373,0.0081
8.374,-0.0157
8.375,-0.0188
8.376,-0.0159
8.377,-0.0184
8.378,-0.0064
8.379,-0.0042
8.38,-0.0062
8.381,0.003
8.382,0.0079
8.383,0.0035
8.384,-0.0115
8.385,-0.0175
8.386,-0.0157
8.387,-0.0042
8.388,-0.0027
8.389,0.0041
8.39,-0.0043
8.391,-0.0054
8.392,-0.0005
8.393,-0.0089
8.394,-0.0032
8.395,-0.0023
8.396,-0.0032
8.397,-0.0009
8.398,0.0092
8.399,0.016
8.4,0.0149
8.401,0.0001
8.402,-0.014
8.403,-0.0122
8.404,-0.0073
8.405,-0.0029
8.406,-0.0016
8.407,-0.0027
8.408,0.003
8.409,0.0021
8.41,0.0105
8.411,0.0116
8.412,0.0046
8.413,0.0092
8.414,0.0068
8.415,0.0004
8.416,-0.0049
8.417,0.0013
8.418,0.0138
8.419,0.0413
8.42,0.0374
8.421,0.0125
8.422,0.003
8.423,0.0059
8.424,-0.0128
8.425,-0.0199
8.426,-0.0089
8.427,-0.0109
8.428,-0.0091
8.429,-0.0173
8.43,-0.0159
8.431,-0.0118
8.432,-0.0107
8.433,-0.0051
8.434,-0.0001
8.435,-0.001
8.436,-0.0086
8.437,-0.0076
8.438,-0.0031
8.439,-0.0023
8.44,0.003
8.441,0.0076
8.442,0.0006
8.443,0.0015
8.444,0.0008
8.445,0.0001
8.446,-0.0102
8.447,0.0002
8.448,0.018
8.449,0.0059
8.45,0.0037
8.451,-0.0023
8.452,-0.0078
8.453,-0.0128
8.454,-0.0084
8.455,0.0039
8.456,0.0088
8.457,0.0164
8.458,0.0096
8.459,-0.004
8.46,-0.0021
8.461,-0.0071
8.462,0.0034
8.463,0.0074
8.464,0.0259
8.465,0.0337
8.466,0.0129
8.467,0.0105
8.468,-0.0005
8.469,-0.0065
8.47,-0.0047
8.471,0.0068
8.472,0.0173
8.473,0.0105
8.474,-0.0056
8.475,-0.021
8.476,-0.023
8.477,-0.0212
8.478,-0.0129
8.479,-0.0144
8.48,-0.0076
8.481,-0.0016
8.482,-0.0005
8.483,-0.0075
8.484,-0.0084
8.485,-0.0107
8.486,-0.0115
8.487,-0.0082
8.488,0.0013
8.489,0.0001
8.49,-0.0084
8.491,-0.0117
8.492,-0.0047
8.493,-0.0093
8.494,-0.0133
8.495,-0.0018
8.496,0.0032
8.497,0.0136
8.498,0.0176
8.499,0.0116
8.5,0.0083
8.501,0.0054
8.502,-0.0049
8.503,-0.0117
8.504,-0.0056
8.505,0.0023
8.506,-0.0047
8.507,-0.0001
8.508,-0.0025
8.509,0.0045
8.51,0.0129
8.511,0.0162
8.512,0.003
8.513,0.0048
8.514,0.0065
8.515,0.0079
8.516,0.0066
8.517,0.0077
8.518,-0.0084
8.519,0.0026
8.52,0.0167
8.521,0.0295
8.522,0.0378
8.523,0.0334
8.524,0.0184
8.525,-0.0118
8.526,-0.0247
8.527,-0.0285
8.528,-0.025
8.529,-0.0346
8.53,-0.0316
8.531,-0.0291
8.532,-0.017
8.533,0.003
8.534,0.0164
8.535,0.014
8.536,0.0206
8.537,0.0226
8.538,0.0098
8.539,-0.0018
8.54,-0.0062
8.541,-0.0049
8.542,0.0012
8.543,-0.0021
8.544,-0.0031
8.545,0.0034
8.546,0.001
8.547,0.0032
8.548,-0.0043
8.549,-0.0195
8.55,-0.0217
8.551,-0.0197
8.552,-0.0032
8.553,0.0077
8.554,0.0057
8.555,0.0112
8.556,0.003
8.557,-0.0014
8.558,-0.0054
8.559,0.0107
8.56,-0.0003
8.561,0.0098
8.562,0.0189
8.563,0.014
8.564,0.0065
8.565,0.016
8.566,0.0125
8.567,0.0092
8.568,-0.0076
8.569,-0.0067
8.57,0.0017
8.571,0.0096
8.572,0.0187
8.573,0.0372
8.574,0.0294
8.575,0.0173
8.576,0.0019
8.577,-0.0243
8.578,-0.0278
8.579,-0.0247
8.58,-0.0217
8.581,-0.0243
8.582,-0.0172
8.583,-0.0106
8.584,-0.0045
8.585,-0.01
8.586,-0.0117
8.587,-0.0102
8.588,-0.0034
8.589,0.0001
8.59,-0.001
8.591,0.0059
8.592,0.0143
8.593,0.0065
8.594,0.0035
8.595,0.0026
8.596,-0.0082
8.597,-0.0038
8.598,0.003
8.599,0.0019
8.6,0.0052
8.601,0.0081
8.602,0.0035
8.603,0.0012
8.604,0.005
8.605,-0.0053
8.606,-0.0038
8.607,-0.0025
8.608,-0.0109
8.609,-0.0031
8.61,0.0061
8.611,0.0096
8.612,-0.0007
8.613,0.0034
8.614,0.0094
8.615,-0.0009
8.616,-0.0021
8.617,-0.0106
8.618,-0.0003
8.619,0.0048
8.62,0.0035
8.621,0.0096
8.622,0.0085
8.623,0.0237
8.624,0.0436
8.625,0.025
8.626,0.0081
8.627,-0.0073
8.628,-0.0173
8.629,-0.0118
8.63,-0.0102
8.631,-0.0177
8.632,-0.019
8.633,-0.0179
8.634,-0.01
8.635,-0.0071
8.636,-0.0117
8.637,-0.0208
8.638,-0.0096
8.639,-0.0082
8.64,-0.0042
8.641,0.0043
8.642,0.0076
8.643,0.0066
8.644,0.0039
8.645,0.0032
8.646,0.001
8.647,0.0072
8.648,0.0079
8.649,-0.0036
8.65,-0.002
8.651,0.0055
8.652,0.0015
8.653,-0.0045
8.654,-0.0102
8.655,-0.0032
8.656,0.007
8.657,0.0083
8.658,0.0195
8.659,0.003
8.66,0.0008
8.661,-0.0093
8.662,-0.0038
8.663,-0.0087
8.664,-0.0102
8.665,-0.0089
8.666,-0.0029
8.667,0.005
8.668,0.0001
8.669,0.0065
8.67,0.007
8.671,0.011
8.672,0.0103
8.673,0.0206
8.674,0.0402
8.675,0.0376
8.676,0.04
8.677,0.0246
8.678,0.0024
8.679,-0.0064
8.68,-0.0197
8.681,-0.0173
8.682,-0.0151
8.683,-0.0172
8.684,-0.03
8.685,-0.0382
8.686,-0.0338
8.687,-0.0243
8.688,-0.0159
8.689,-0.0102
8.69,-0.0032
8.691,0.0013
8.692,0.0138
8.693,0.0156
8.694,0.0107
8.695,0.0002
8.696,-0.012
8.697,-0.017
8.698,-0.0214
8.699,-0.0118
8.7,-0.0058
8.701,0.0045
8.702,0.0112
8.703,0.0101
8.704,0.0068
8.705,-0.0001
8.706,0.0026
8.707,0.0101
8.708,0.0151
8.709,0.0272
8.71,0.0255
8.711,0.009
8.712,-0.002
8.713,0.0081
8.714,0.0063
8.715,-0.002
8.716,-0.0005
8.717,-0.0018
8.718,-0.0102
8.719,-0.0135
8.72,-0.0126
8.721,-0.012
8.722,-0.0075
8.723,0.005
8.724,0.0178
8.725,0.0328
8.726,0.055
8.727,0.0521
8.728,0.0171
8.729,-0.0067
8.73,-0.0195
8.731,-0.0157
8.732,-0.0122
8.733,-0.0217
8.734,-0.0188
8.735,-0.0214
8.736,-0.0285
8.737,-0.0219
8.738,-0.0159
8.739,-0.0067
8.74,0.0048
8.741,0.0034
8.742,0.0021
8.743,0.001
8.744,-0.0069
8.745,-0.0118
8.746,-0.0073
8.747,-0.0113
8.748,-0.006
8.749,-0.0054
8.75,-0.0036
8.751,-0.0087
8.752,0.0015
8.753,0.003
8.754,0.0043
8.755,0.0127
8.756,0.016
8.757,0.0169
8.758,0.016
8.759,0.0085
8.76,0.0015
8.761,-0.0069
8.762,-0.0148
8.763,-0.0098
8.764,-0.0126
8.765,-0.0069
8.766,0.0032
8.767,0.0045
8.768,0.001
8.769,0.0088
8.77,0.0019
8.771,0.0065
8.772,0.0187
8.773,0.0112
8.774,0.0182
8.775,0.0284
8.776,0.0244
8.777,0.0429
8.778,0.035
8.779,0.0182
8.78,0.0028
8.781,-0.0073
8.782,-0.0164
8.783,-0.028
8.784,-0.0444
8.785,-0.0422
8.786,-0.0322
8.787,-0.023
8.788,-0.028
8.789,-0.0175
8.79,-0.0135
8.791,-0.0023
8.792,0.0081
8.793,0.0121
8.794,0.0037
8.795,0.0026
8.796,0.0055
8.797,0.0158
8.798,0.0145
8.799,-0.0016
8.8,0.0006
8.801,-0.0095
8.802,-0.0113
8.803,-0.0162
8.804,-0.0027
8.805,0.0101
8.806,0.0151
8.807,0.0076
8.808,0.0035
8.809,0.007
8.81,0.0149
8.811,0.0099
8.812,0.0072
8.813,0.0129
8.814,0.0198
8.815,0.0153
8.816,0.0045
8.817,-0.0091
8.818,-0.0073
8.819,-0.0223
8.82,-0.0122
8.821,-0.014
8.822,-0.0025
8.823,0.0092
8.824,0.0167
8.825,0.018
8.826,0.0191
8.827,0.027
8.828,0.0261
8.829,0.0158
8.83,-0.002
8.831,-0.0043
8.832,-0.0109
8.833,-0.025
8.834,-0.0269
8.835,-0.0285
8.836,-0.036
8.837,-0.0265
8.838,-0.0153
8.839,-0.0078
8.84,-0.0038
8.841,0.0046
8.842,0.0035
8.843,0.0026
8.844,0.0072
8.845,0.018
8.846,0.0165
8.847,0.007
8.848,0.0035
8.849,0.0002
8.85,0.0094
8.851,0.0059
8.852,0.0002
8.853,-0.0067
8.854,-0.017
8.855,-0.0102
8.856,-0.0113
8.857,-0.0192
8.858,-0.0241
8.859,-0.025
8.86,-0.0126
8.861,-0.0181
8.862,-0.0164
8.863,-0.006
8.864,-0.01
8.865,-0.0184
8.866,-0.0195
8.867,-0.0043
8.868,0.0288
8.869,0.0336
8.87,0.0464
8.871,0.0425
8.872,0.0391
8.873,0.0422
8.874,0.0246
8.875,0.0098
8.876,0.0284
8.877,0.0405
8.878,0.0693
8.879,0.081
8.88,0.1059
8.881,0.1284
8.882,0.1372
8.883,0.1346
8.884,0.1275
8.885,0.0944
8.886,0.0706
8.887,0.0403
8.888,0.0286
8.889,0.018
8.89,0.0019
8.891,-0.0426
8.892,-0.138
8.893,-0.2063
8.894,-0.2188
8.895,-0.1851
8.896,-0.1338
8.897,-0.1058
8.898,-0.0805
8.899,-0.0882
8.9,-0.0673
8.901,-0.0611
8.902,-0.0554
8.903,-0.071
8.904,-0.0662
8.905,-0.062
8.906,-0.0503
8.907,-0.0538
8.908,-0.0569
8.909,-0.0657
8.91,-0.0682
8.911,-0.0562
8.912,-0.0408
8.913,-0.0347
8.914,-0.0292
8.915,-0.0142
8.916,-0.0042
8.917,0.016
8.918,0.0347
8.919,0.0418
8.92,0.0264
8.921,0.0365
8.922,0.0493
8.923,0.051
8.924,0.0614
8.925,0.0656
8.926,0.0696
8.927,0.0781
8.928,0.0859
8.929,0.081
8.93,0.0949
8.931,0.0969
8.932,0.0731
8.933,0.0438
8.934,0.0321
8.935,0.0143
8.936,0.0239
8.937,0.0268
8.938,0.0189
8.939,0.0165
8.94,0.0099
8.941,0.0039
8.942,0.0094
8.943,0.0143
8.944,0.0129
8.945,0.0034
8.946,0.0045
8.947,0.0034
8.948,0.0024
8.949,-0.004
8.95,-0.0032
8.951,-0.0025
8.952,-0.0058
8.953,-0.0102
8.954,-0.0018
8.955,0.0043
8.956,0.001
8.957,0.0059
8.958,0.0013
8.959,0.0037
8.96,0.0045
8.961,0.0026
8.962,-0.0069
8.963,-0.0109
8.964,-0.0144
8.965,-0.0177
8.966,-0.0186
8.967,-0.0214
8.968,-0.0254
8.969,-0.0216
8.97,-0.0113
8.971,0.0052
8.972,0.0074
8.973,0.0094
8.974,0.0002
8.975,-0.0014
8.976,-0.0025
8.977,-0.001
8.978,0.014
8.979,0.0321
8.98,0.0297
8.981,0.0319
8.982,0.0178
8.983,-0.0023
8.984,-0.021
8.985,-0.0234
8.986,-0.0256
8.987,-0.0356
8.988,-0.0338
8.989,-0.0322
8.99,-0.0186
8.991,-0.0095
8.992,-0.0144
8.993,-0.01
8.994,-0.0087
8.995,-0.0003
8.996,0.003
8.997,0.0079
8.998,0.007
8.999,0.011
9,0.0118
9.001,0.0085
9.002,0.009
9.003,0.0118
9.004,0.0052
9.005,0.0024
9.006,-0.0032
9.007,0.0006
9.008,-0.0027
9.009,-0.0032
9.01,-0.006
9.011,-0.0064
9.012,-0.0021
9.013,-0.0084
9.014,-0.0027
9.015,-0.0005
9.016,-0.0107
9.017,-0.0122
9.018,-0.0217
9.019,-0.0206
9.02,-0.015
9.021,-0.008
9.022,0.0004
9.023,-0.0029
9.024,0.0123
9.025,0.0233
9.026,0.0213
9.027,0.0165
9.028,0.0184
9.029,0.0266
9.03,0.0431
9.031,0.0453
