0,-0.0942
0.001,-0.0886
0.002,-0.073
0.003,-0.0587
0.004,-0.0545
0.005,-0.0506
0.006,-0.0541
0.007,-0.0834
0.008,-0.0951
0.009,-0.0917
0.01,-0.1012
0.011,-0.0924
0.012,-0.0898
0.013,-0.1019
0.014,-0.0953
0.015,-0.0893
0.016,-0.0801
0.017,-0.0884
0.018,-0.0928
0.019,-0.094
0.02,-0.088
0.021,-0.0891
0.022,-0.0799
0.023,-0.0765
0.024,-0.0843
0.025,-0.0752
0.026,-0.0763
0.027,-0.082
0.028,-0.081
0.029,-0.0765
0.03,-0.0741
0.031,-0.081
0.032,-0.0838
0.033,-0.0946
0.034,-0.0842
0.035,-0.0774
0.036,-0.0809
0.037,-0.082
0.038,-0.079
0.039,-0.0669
0.04,-0.082
0.041,-0.0799
0.042,-0.0854
0.043,-0.0838
0.044,-0.0882
0.045,-0.0869
0.046,-0.0757
0.047,-0.0622
0.048,-0.0787
0.049,-0.0809
0.05,-0.0506
0.051,-0.0378
0.052,-0.0336
0.053,-0.014
0.054,-0.0105
0.055,-0.0201
0.056,-0.0289
0.057,-0.0691
0.058,-0.0748
0.059,-0.1221
0.06,-0.1158
0.061,-0.1215
0.062,-0.1371
0.063,-0.1704
0.064,-0.1832
0.065,-0.2028
0.066,-0.2134
0.067,-0.2295
0.068,-0.2089
0.069,-0.2114
0.07,-0.2479
0.071,-0.274
0.072,-0.2788
0.073,-0.2916
0.074,-0.2641
0.075,-0.2248
0.076,-0.1565
0.077,-0.1285
0.078,-0.1032
0.079,-0.0801
0.08,-0.0452
0.081,0.0376
0.082,0.094
0.083,0.0838
0.084,0.0931
0.085,0.1184
0.086,0.1722
0.087,0.2211
0.088,0.2399
0.089,0.2112
0.09,0.2268
0.091,0.2125
0.092,0.1561
0.093,0.1176
0.094,0.0968
0.095,0.0905
0.096,0.0848
0.097,0.0482
0.098,0.0244
0.099,-0.0146
0.1,-0.0197
0.101,-0.034
0.102,-0.0986
0.103,-0.1288
0.104,-0.1484
0.105,-0.1449
0.106,-0.1807
0.107,-0.1664
0.108,-0.214
0.109,-0.2457
0.11,-0.2859
0.111,-0.2808
0.112,-0.257
0.113,-0.2872
0.114,-0.2989
0.115,-0.2883
0.116,-0.2788
0.117,-0.27
0.118,-0.2458
0.119,-0.2554
0.12,-0.2347
0.121,-0.216
0.122,-0.1843
0.123,-0.1801
0.124,-0.1605
0.125,-0.1283
0.126,-0.1155
0.127,-0.0959
0.128,-0.0994
0.129,-0.0832
0.13,-0.0862
0.131,-0.0512
0.132,-0.0179
0.133,-0.0221
0.134,-0.0025
0.135,-0.0131
0.136,-0.0356
0.137,-0.0386
0.138,-0.036
0.139,-0.0239
0.14,-0.0305
0.141,-0.0365
0.142,-0.042
0.143,-0.047
0.144,-0.0426
0.145,-0.0521
0.146,-0.0556
0.147,-0.0658
0.148,-0.0671
0.149,-0.056
0.15,-0.0604
0.151,-0.0754
0.152,-0.0814
0.153,-0.0825
0.154,-0.0843
0.155,-0.0594
0.156,-0.0488
0.157,-0.0519
0.158,-0.0312
0.159,-0.0338
0.16,-0.0702
0.161,-0.0754
0.162,-0.0801
0.163,-0.0843
0.164,-0.0882
0.165,-0.0988
0.166,-0.0893
0.167,-0.0864
0.168,-0.0889
0.169,-0.0865
0.17,-0.0843
0.171,-0.0823
0.172,-0.0915
0.173,-0.0964
0.174,-0.0889
0.175,-0.0821
0.176,-0.0737
0.177,-0.0726
0.178,-0.0776
0.179,-0.0821
0.18,-0.0781
0.181,-0.0834
0.182,-0.0896
0.183,-0.0904
0.184,-0.0788
0.185,-0.0772
0.186,-0.0847
0.187,-0.0779
0.188,-0.0814
0.189,-0.0781
0.19,-0.0851
0.191,-0.0766
0.192,-0.0823
0.193,-0.0832
0.194,-0.0878
0.195,-0.0854
0.196,-0.0739
0.197,-0.0821
0.198,-0.0717
0.199,-0.073
0.2,-0.0842
0.201,-0.0856
0.202,-0.0843
0.203,-0.0783
0.204,-0.0869
0.205,-0.0766
0.206,-0.0807
0.207,-0.0646
0.208,-0.0536
0.209,-0.0475
0.21,-0.053
0.211,-0.0746
0.212,-0.0776
0.213,-0.0909
0.214,-0.0788
0.215,-0.0942
0.216,-0.1124
0.217,-0.0955
0.218,-0.1109
0.219,-0.0968
0.22,-0.0986
0.221,-0.1003
0.222,-0.1138
0.223,-0.0864
0.224,-0.0825
0.225,-0.079
0.226,-0.0951
0.227,-0.0922
0.228,-0.0896
0.229,-0.0873
0.23,-0.0719
0.231,-0.0779
0.232,-0.0688
0.233,-0.0704
0.234,-0.0779
0.235,-0.0847
0.236,-0.0882
0.237,-0.0915
0.238,-0.0803
0.239,-0.0759
0.24,-0.0772
0.241,-0.0832
0.242,-0.0911
0.243,-0.094
0.244,-0.0913
0.245,-0.0788
0.246,-0.0697
0.247,-0.0779
0.248,-0.0735
0.249,-0.0723
0.25,-0.0757
0.251,-0.0836
0.252,-0.0988
0.253,-0.0788
0.254,-0.0763
0.255,-0.0752
0.256,-0.0631
0.257,-0.0831
0.258,-0.0856
0.259,-0.0589
0.26,-0.0483
0.261,-0.0776
0.262,-0.0737
0.263,-0.0915
0.264,-0.101
0.265,-0.1098
0.266,-0.1019
0.267,-0.0898
0.268,-0.1008
0.269,-0.0867
0.27,-0.0959
0.271,-0.0809
0.272,-0.0829
0.273,-0.0884
0.274,-0.0768
0.275,-0.0783
0.276,-0.0851
0.277,-0.084
0.278,-0.0807
0.279,-0.0876
0.28,-0.0812
0.281,-0.0788
0.282,-0.0873
0.283,-0.0862
0.284,-0.0832
0.285,-0.0878
0.286,-0.0787
0.287,-0.0821
0.288,-0.0788
0.289,-0.0779
0.29,-0.0825
0.291,-0.09
0.292,-0.0891
0.293,-0.0864
0.294,-0.0756
0.295,-0.0712
0.296,-0.0779
0.297,-0.079
0.298,-0.0869
0.299,-0.086
0.3,-0.0869
0.301,-0.0845
0.302,-0.0823
0.303,-0.0805
0.304,-0.09
0.305,-0.0777
0.306,-0.0825
0.307,-0.0875
0.308,-0.0831
0.309,-0.0653
0.31,-0.0532
0.311,-0.0598
0.312,-0.0739
0.313,-0.0794
0.314,-0.0876
0.315,-0.092
0.316,-0.0961
0.317,-0.09
0.318,-0.0843
0.319,-0.0995
0.32,-0.0842
0.321,-0.0902
0.322,-0.0994
0.323,-0.0977
0.324,-0.0842
0.325,-0.0933
0.326,-0.0884
0.327,-0.084
0.328,-0.0935
0.329,-0.0995
0.33,-0.0917
0.331,-0.0825
0.332,-0.0836
0.333,-0.0825
0.334,-0.0796
0.335,-0.0842
0.336,-0.0818
0.337,-0.081
0.338,-0.0792
0.339,-0.0862
0.34,-0.0759
0.341,-0.0854
0.342,-0.0743
0.343,-0.0847
0.344,-0.0779
0.345,-0.0864
0.346,-0.0715
0.347,-0.0816
0.348,-0.0761
0.349,-0.0843
0.35,-0.0829
0.351,-0.0761
0.352,-0.0796
0.353,-0.0853
0.354,-0.0862
0.355,-0.0816
0.356,-0.0809
0.357,-0.0832
0.358,-0.0917
0.359,-0.0746
0.36,-0.0527
0.361,-0.0497
0.362,-0.0419
0.363,-0.0686
0.364,-0.0792
0.365,-0.0823
0.366,-0.0853
0.367,-0.0986
0.368,-0.1058
0.369,-0.0992
0.37,-0.0891
0.371,-0.0909
0.372,-0.086
0.373,-0.0875
0.374,-0.0834
0.375,-0.0799
0.376,-0.081
0.377,-0.0801
0.378,-0.081
0.379,-0.0754
0.38,-0.0761
0.381,-0.0743
0.382,-0.066
0.383,-0.0649
0.384,-0.0801
0.385,-0.0779
0.386,-0.084
0.387,-0.0895
0.388,-0.0878
0.389,-0.0834
0.39,-0.0794
0.391,-0.0829
0.392,-0.0886
0.393,-0.0794
0.394,-0.0759
0.395,-0.0702
0.396,-0.0794
0.397,-0.0878
0.398,-0.0957
0.399,-0.0907
0.4,-0.0862
0.401,-0.0787
0.402,-0.0856
0.403,-0.0865
0.404,-0.0957
0.405,-0.0873
0.406,-0.0862
0.407,-0.071
0.408,-0.0708
0.409,-0.0818
0.41,-0.0798
0.411,-0.0706
0.412,-0.0591
0.413,-0.0516
0.414,-0.0611
0.415,-0.0796
0.416,-0.0929
0.417,-0.105
0.418,-0.1028
0.419,-0.0968
0.42,-0.095
0.421,-0.0933
0.422,-0.0918
0.423,-0.0959
0.424,-0.0898
0.425,-0.0865
0.426,-0.0875
0.427,-0.0884
0.428,-0.0827
0.429,-0.0928
0.43,-0.0887
0.431,-0.0922
0.432,-0.0865
0.433,-0.0713
0.434,-0.0779
0.435,-0.0799
0.436,-0.0854
0.437,-0.0838
0.438,-0.0942
0.439,-0.0875
0.44,-0.084
0.441,-0.0783
0.442,-0.0774
0.443,-0.0765
0.444,-0.0757
0.445,-0.0765
0.446,-0.077
0.447,-0.0713
0.448,-0.0752
0.449,-0.0854
0.45,-0.1019
0.451,-0.0865
0.452,-0.0966
0.453,-0.0838
0.454,-0.0788
0.455,-0.0774
0.456,-0.0787
0.457,-0.0847
0.458,-0.0768
0.459,-0.0723
0.46,-0.0752
0.461,-0.0631
0.462,-0.0481
0.463,-0.0541
0.464,-0.0669
0.465,-0.0853
0.466,-0.0924
0.467,-0.0902
0.468,-0.0801
0.469,-0.0856
0.47,-0.0906
0.471,-0.092
0.472,-0.088
0.473,-0.0915
0.474,-0.0948
0.475,-0.0878
0.476,-0.0794
0.477,-0.0851
0.478,-0.0962
0.479,-0.0887
0.48,-0.0875
0.481,-0.0763
0.482,-0.0898
0.483,-0.0917
0.484,-0.09
0.485,-0.0915
0.486,-0.082
0.487,-0.0809
0.488,-0.082
0.489,-0.081
0.49,-0.082
0.491,-0.0827
0.492,-0.0757
0.493,-0.086
0.494,-0.0847
0.495,-0.0836
0.496,-0.0688
0.497,-0.0668
0.498,-0.0723
0.499,-0.0906
0.5,-0.0929
0.501,-0.0864
0.502,-0.0843
0.503,-0.0752
0.504,-0.0834
0.505,-0.0878
0.506,-0.0891
0.507,-0.0779
0.508,-0.0765
0.509,-0.0832
0.51,-0.0745
0.511,-0.071
0.512,-0.0539
0.513,-0.0611
0.514,-0.0677
0.515,-0.0576
0.516,-0.0777
0.517,-0.0856
0.518,-0.0977
0.519,-0.1043
0.52,-0.0983
0.521,-0.0818
0.522,-0.0972
0.523,-0.1032
0.524,-0.0977
0.525,-0.0961
0.526,-0.0946
0.527,-0.0823
0.528,-0.084
0.529,-0.0825
0.53,-0.0812
0.531,-0.0924
0.532,-0.0939
0.533,-0.0788
0.534,-0.0768
0.535,-0.064
0.536,-0.0657
0.537,-0.0821
0.538,-0.0887
0.539,-0.0907
0.54,-0.0926
0.541,-0.0876
0.542,-0.0862
0.543,-0.0821
0.544,-0.0787
0.545,-0.0684
0.546,-0.0724
0.547,-0.0785
0.548,-0.0818
0.549,-0.097
0.55,-0.0948
0.551,-0.0847
0.552,-0.0902
0.553,-0.0853
0.554,-0.0777
0.555,-0.0627
0.556,-0.0929
0.557,-0.0801
0.558,-0.0763
0.559,-0.0728
0.56,-0.0823
0.561,-0.0862
0.562,-0.0891
0.563,-0.0917
0.564,-0.0649
0.565,-0.0615
0.566,-0.0453
0.567,-0.0483
0.568,-0.0724
0.569,-0.082
0.57,-0.0968
0.571,-0.0994
0.572,-0.1017
0.573,-0.0995
0.574,-0.0935
0.575,-0.0843
0.576,-0.086
0.577,-0.0935
0.578,-0.0895
0.579,-0.0834
0.58,-0.0959
0.581,-0.0942
0.582,-0.0898
0.583,-0.0939
0.584,-0.0854
0.585,-0.0798
0.586,-0.0788
0.587,-0.0891
0.588,-0.0823
0.589,-0.0858
0.59,-0.0869
0.591,-0.082
0.592,-0.0865
0.593,-0.0809
0.594,-0.0787
0.595,-0.0792
0.596,-0.0735
0.597,-0.0805
0.598,-0.0759
0.599,-0.0851
0.6,-0.0739
0.601,-0.0814
0.602,-0.0854
0.603,-0.0915
0.604,-0.0812
0.605,-0.0772
0.606,-0.0856
0.607,-0.0754
0.608,-0.0766
0.609,-0.0801
0.61,-0.0834
0.611,-0.0843
0.612,-0.0832
0.613,-0.0823
0.614,-0.0699
0.615,-0.0607
0.616,-0.0457
0.617,-0.0598
0.618,-0.0799
0.619,-0.0878
0.62,-0.095
0.621,-0.0884
0.622,-0.0864
0.623,-0.0882
0.624,-0.0997
0.625,-0.0953
0.626,-0.094
0.627,-0.0951
0.628,-0.0781
0.629,-0.0805
0.63,-0.0871
0.631,-0.0891
0.632,-0.0909
0.633,-0.0893
0.634,-0.0878
0.635,-0.0918
0.636,-0.0907
0.637,-0.0986
0.638,-0.0895
0.639,-0.081
0.64,-0.0867
0.641,-0.0756
0.642,-0.068
0.643,-0.0831
0.644,-0.081
0.645,-0.0756
0.646,-0.0838
0.647,-0.0763
0.648,-0.0776
0.649,-0.086
0.65,-0.0803
0.651,-0.0832
0.652,-0.0823
0.653,-0.0816
0.654,-0.0746
0.655,-0.081
0.656,-0.0803
0.657,-0.0918
0.658,-0.0836
0.659,-0.0792
0.66,-0.0832
0.661,-0.0772
0.662,-0.0761
0.663,-0.081
0.664,-0.0781
0.665,-0.0642
0.666,-0.0582
0.667,-0.0673
0.668,-0.0523
0.669,-0.0583
0.67,-0.0821
0.671,-0.0917
0.672,-0.0946
0.673,-0.0867
0.674,-0.0939
0.675,-0.1005
0.676,-0.0984
0.677,-0.0966
0.678,-0.0983
0.679,-0.0968
0.68,-0.0873
0.681,-0.0907
0.682,-0.0918
0.683,-0.0849
0.684,-0.084
0.685,-0.0847
0.686,-0.0869
0.687,-0.0902
0.688,-0.0832
0.689,-0.0787
0.69,-0.0779
0.691,-0.0801
0.692,-0.0834
0.693,-0.0777
0.694,-0.0831
0.695,-0.0812
0.696,-0.0831
0.697,-0.0814
0.698,-0.0838
0.699,-0.0807
0.7,-0.0827
0.701,-0.0777
0.702,-0.0759
0.703,-0.0765
0.704,-0.0849
0.705,-0.0814
0.706,-0.0803
0.707,-0.0873
0.708,-0.0864
0.709,-0.084
0.71,-0.0862
0.711,-0.0856
0.712,-0.0887
0.713,-0.0825
0.714,-0.0803
0.715,-0.081
0.716,-0.0695
0.717,-0.0646
0.718,-0.0541
0.719,-0.0582
0.72,-0.0717
0.721,-0.0735
0.722,-0.0686
0.723,-0.073
0.724,-0.077
0.725,-0.0759
0.726,-0.0884
0.727,-0.0867
0.728,-0.1003
0.729,-0.1021
0.73,-0.1037
0.731,-0.1081
0.732,-0.1122
0.733,-0.1133
0.734,-0.0962
0.735,-0.1083
0.736,-0.0973
0.737,-0.0792
0.738,-0.0816
0.739,-0.097
0.74,-0.099
0.741,-0.0972
0.742,-0.0988
0.743,-0.0792
0.744,-0.0766
0.745,-0.0838
0.746,-0.0816
0.747,-0.0715
0.748,-0.0697
0.749,-0.0779
0.75,-0.0854
0.751,-0.0867
0.752,-0.0756
0.753,-0.0712
0.754,-0.0699
0.755,-0.0688
0.756,-0.0745
0.757,-0.0794
0.758,-0.0915
0.759,-0.0898
0.76,-0.0794
0.761,-0.0807
0.762,-0.0796
0.763,-0.0763
0.764,-0.0812
0.765,-0.0884
0.766,-0.0856
0.767,-0.0732
0.768,-0.0457
0.769,-0.0574
0.77,-0.0609
0.771,-0.077
0.772,-0.0741
0.773,-0.082
0.774,-0.0843
0.775,-0.0953
0.776,-0.1014
0.777,-0.0922
0.778,-0.0772
0.779,-0.0832
0.78,-0.0961
0.781,-0.0911
0.782,-0.0776
0.783,-0.0867
0.784,-0.0917
0.785,-0.0961
0.786,-0.0893
0.787,-0.0832
0.788,-0.1003
0.789,-0.1074
0.79,-0.1008
0.791,-0.0867
0.792,-0.0812
0.793,-0.0829
0.794,-0.0724
0.795,-0.0737
0.796,-0.0748
0.797,-0.0781
0.798,-0.0752
0.799,-0.0706
0.8,-0.0798
0.801,-0.0809
0.802,-0.0887
0.803,-0.0838
0.804,-0.0754
0.805,-0.0629
0.806,-0.0712
0.807,-0.0787
0.808,-0.0799
0.809,-0.081
0.81,-0.0843
0.811,-0.0774
0.812,-0.0671
0.813,-0.0712
0.814,-0.0677
0.815,-0.0825
0.816,-0.0774
0.817,-0.0673
0.818,-0.0618
0.819,-0.0569
0.82,-0.0704
0.821,-0.0759
0.822,-0.0909
0.823,-0.0809
0.824,-0.0827
0.825,-0.0942
0.826,-0.1047
0.827,-0.1087
0.828,-0.1076
0.829,-0.1019
0.83,-0.101
0.831,-0.0964
0.832,-0.0988
0.833,-0.0918
0.834,-0.0873
0.835,-0.0929
0.836,-0.0876
0.837,-0.0814
0.838,-0.0821
0.839,-0.086
0.84,-0.0865
0.841,-0.086
0.842,-0.0832
0.843,-0.0799
0.844,-0.0869
0.845,-0.0757
0.846,-0.0743
0.847,-0.073
0.848,-0.079
0.849,-0.0869
0.85,-0.0939
0.851,-0.0929
0.852,-0.0922
0.853,-0.09
0.854,-0.0798
0.855,-0.0842
0.856,-0.0801
0.857,-0.0836
0.858,-0.0961
0.859,-0.0977
0.86,-0.0781
0.861,-0.0647
0.862,-0.0816
0.863,-0.0794
0.864,-0.0774
0.865,-0.0865
0.866,-0.0849
0.867,-0.0774
0.868,-0.0699
0.869,-0.0739
0.87,-0.0774
0.871,-0.0898
0.872,-0.0882
0.873,-0.0746
0.874,-0.0691
0.875,-0.0708
0.876,-0.0723
0.877,-0.0845
0.878,-0.0596
0.879,-0.049
0.88,-0.0651
0.881,-0.0739
0.882,-0.0926
0.883,-0.0997
0.884,-0.0975
0.885,-0.0875
0.886,-0.1039
0.887,-0.0929
0.888,-0.095
0.889,-0.0931
0.89,-0.0981
0.891,-0.0876
0.892,-0.0889
0.893,-0.09
0.894,-0.0911
0.895,-0.0882
0.896,-0.0891
0.897,-0.0867
0.898,-0.0845
0.899,-0.0812
0.9,-0.0869
0.901,-0.0831
0.902,-0.0798
0.903,-0.0702
0.904,-0.0662
0.905,-0.0602
0.906,-0.0453
0.907,-0.0232
0.908,-0.0144
0.909,-0.0223
0.91,-0.0344
0.911,-0.0365
0.912,-0.0426
0.913,-0.0591
0.914,-0.0745
0.915,-0.0926
0.916,-0.1094
0.917,-0.116
0.918,-0.136
0.919,-0.1662
0.92,-0.1704
0.921,-0.19
0.922,-0.1865
0.923,-0.196
0.924,-0.1931
0.925,-0.2118
0.926,-0.2482
0.927,-0.2848
0.928,-0.2896
0.929,-0.3024
0.93,-0.3063
0.931,-0.2598
0.932,-0.1898
0.933,-0.1431
0.934,-0.1178
0.935,-0.0948
0.936,-0.0459
0.937,0.0369
0.938,0.0933
0.939,0.083
0.94,0.0737
0.941,0.116
0.942,0.1698
0.943,0.233
0.944,0.2414
0.945,0.2337
0.946,0.2268
0.947,0.2205
0.948,0.1685
0.949,0.1336
0.95,0.1273
0.951,0.1217
0.952,0.1061
0.953,0.0631
0.954,0.0458
0.955,0.0197
0.956,0.0054
0.957,-0.0162
0.958,-0.0675
0.959,-0.1164
0.96,-0.1352
0.961,-0.1755
0.962,-0.1911
0.963,-0.2149
0.964,-0.2625
0.965,-0.2814
0.966,-0.2641
0.967,-0.2693
0.968,-0.2645
0.969,-0.2766
0.97,-0.2894
0.971,-0.2777
0.972,-0.2742
0.973,-0.2647
0.974,-0.238
0.975,-0.2345
0.976,-0.2184
0.977,-0.1977
0.978,-0.2002
0.979,-0.1686
0.98,-0.1558
0.981,-0.1362
0.982,-0.1327
0.983,-0.1166
0.984,-0.1017
0.985,-0.0884
0.986,-0.0664
0.987,-0.0516
0.988,-0.0541
0.989,-0.0322
0.99,-0.0351
0.991,-0.0376
0.992,-0.04
0.993,-0.0378
0.994,-0.0318
0.995,-0.0336
0.996,-0.0386
0.997,-0.043
0.998,-0.0442
0.999,-0.0408
1,-0.0464
1.001,-0.0494
1.002,-0.0633
1.003,-0.0653
1.004,-0.0635
1.005,-0.0651
1.006,-0.0607
1.007,-0.062
1.008,-0.068
1.009,-0.0647
1.01,-0.0638
1.011,-0.0702
1.012,-0.071
1.013,-0.0717
1.014,-0.0723
1.015,-0.0691
1.016,-0.0719
1.017,-0.0743
1.018,-0.0756
1.019,-0.0759
1.02,-0.0766
1.021,-0.071
1.022,-0.0585
1.023,-0.0494
1.024,-0.0543
1.025,-0.0528
1.026,-0.0651
1.027,-0.0867
1.028,-0.0838
1.029,-0.0917
1.03,-0.094
1.031,-0.0962
1.032,-0.0983
1.033,-0.0854
1.034,-0.0904
1.035,-0.086
1.036,-0.0873
1.037,-0.0933
1.038,-0.0876
1.039,-0.0886
1.04,-0.0858
1.041,-0.0882
1.042,-0.0781
1.043,-0.0821
1.044,-0.0856
1.045,-0.0823
1.046,-0.0794
1.047,-0.0858
1.048,-0.0865
1.049,-0.0827
1.05,-0.0821
1.051,-0.0853
1.052,-0.0858
1.053,-0.0845
1.054,-0.0858
1.055,-0.0812
1.056,-0.0768
1.057,-0.0831
1.058,-0.0774
1.059,-0.0827
1.06,-0.0781
1.061,-0.0787
1.062,-0.0781
1.063,-0.0777
1.064,-0.0735
1.065,-0.0798
1.066,-0.0805
1.067,-0.0827
1.068,-0.0821
1.069,-0.0853
1.07,-0.0858
1.071,-0.0825
1.072,-0.088
1.073,-0.0765
1.074,-0.0649
1.075,-0.0754
1.076,-0.0549
1.077,-0.0636
1.078,-0.077
1.079,-0.0891
1.08,-0.0957
1.081,-0.0937
1.082,-0.0955
1.083,-0.0906
1.084,-0.101
1.085,-0.105
1.086,-0.0966
1.087,-0.0887
1.088,-0.0917
1.089,-0.0926
1.09,-0.0869
1.091,-0.0847
1.092,-0.0842
1.093,-0.0847
1.094,-0.0842
1.095,-0.0787
1.096,-0.084
1.097,-0.0845
1.098,-0.0851
1.099,-0.0812
1.1,-0.0779
1.101,-0.0748
1.102,-0.0702
1.103,-0.0798
1.104,-0.0893
1.105,-0.0904
1.106,-0.0756
1.107,-0.0937
1.108,-0.0816
1.109,-0.075
1.11,-0.073
1.111,-0.0675
1.112,-0.0691
1.113,-0.0796
1.114,-0.0891
1.115,-0.0926
1.116,-0.0937
1.117,-0.0966
1.118,-0.103
1.119,-0.0906
1.12,-0.0631
1.121,-0.0748
1.122,-0.0796
1.123,-0.0902
1.124,-0.0741
1.125,-0.0712
1.126,-0.0633
1.127,-0.0609
1.128,-0.0543
1.129,-0.0483
1.13,-0.0574
1.131,-0.0823
1.132,-0.0929
1.133,-0.1025
1.134,-0.0995
1.135,-0.0862
1.136,-0.0886
1.137,-0.0864
1.138,-0.0843
1.139,-0.0935
1.14,-0.105
1.141,-0.1125
1.142,-0.1085
1.143,-0.0973
1.144,-0.0869
1.145,-0.0856
1.146,-0.0867
1.147,-0.0878
1.148,-0.0809
1.149,-0.0818
1.15,-0.0842
1.151,-0.0788
1.152,-0.0783
1.153,-0.0765
1.154,-0.077
1.155,-0.0783
1.156,-0.0814
1.157,-0.0818
1.158,-0.0875
1.159,-0.0882
1.16,-0.0843
1.161,-0.0862
1.162,-0.0843
1.163,-0.0827
1.164,-0.0803
1.165,-0.0834
1.166,-0.0772
1.167,-0.0893
1.168,-0.081
1.169,-0.0796
1.17,-0.0809
1.171,-0.0774
1.172,-0.0807
1.173,-0.0818
1.174,-0.0768
1.175,-0.0629
1.176,-0.0649
1.177,-0.0594
1.178,-0.0479
1.179,-0.0704
1.18,-0.0929
1.181,-0.0842
1.182,-0.0867
1.183,-0.0988
1.184,-0.101
1.185,-0.1151
1.186,-0.1133
1.187,-0.1017
1.188,-0.0882
1.189,-0.09
1.19,-0.095
1.191,-0.0845
1.192,-0.0886
1.193,-0.0946
1.194,-0.0913
1.195,-0.0904
1.196,-0.0765
1.197,-0.0664
1.198,-0.0829
1.199,-0.0895
1.2,-0.0955
1.201,-0.0973
1.202,-0.0823
1.203,-0.0682
1.204,-0.0774
1.205,-0.0658
1.206,-0.0702
1.207,-0.0907
1.208,-0.0878
1.209,-0.0904
1.21,-0.0832
1.211,-0.0898
1.212,-0.0798
1.213,-0.0779
1.214,-0.0796
1.215,-0.066
1.216,-0.0679
1.217,-0.0829
1.218,-0.0728
1.219,-0.0636
1.22,-0.082
1.221,-0.0796
1.222,-0.073
1.223,-0.075
1.224,-0.0715
1.225,-0.077
1.226,-0.0688
1.227,-0.0644
1.228,-0.0494
1.229,-0.0514
1.23,-0.0715
1.231,-0.0741
1.232,-0.0862
1.233,-0.0884
1.234,-0.0864
1.235,-0.0918
1.236,-0.0968
1.237,-0.1043
1.238,-0.1003
1.239,-0.0992
1.24,-0.0913
1.241,-0.0922
1.242,-0.0895
1.243,-0.0871
1.244,-0.0787
1.245,-0.0843
1.246,-0.0873
1.247,-0.0752
1.248,-0.0935
1.249,-0.0911
1.25,-0.0757
1.251,-0.0737
1.252,-0.0902
1.253,-0.088
1.254,-0.086
1.255,-0.0842
1.256,-0.0858
1.257,-0.0902
1.258,-0.0779
1.259,-0.0697
1.26,-0.0862
1.261,-0.0752
1.262,-0.0933
1.263,-0.0957
1.264,-0.0891
1.265,-0.0911
1.266,-0.0893
1.267,-0.0743
1.268,-0.0682
1.269,-0.0737
1.27,-0.0887
1.271,-0.0867
1.272,-0.0812
1.273,-0.0862
1.274,-0.0787
1.275,-0.0803
1.276,-0.079
1.277,-0.0605
1.278,-0.0527
1.279,-0.0503
1.28,-0.0481
1.281,-0.0743
1.282,-0.092
1.283,-0.0889
1.284,-0.0918
1.285,-0.0997
1.286,-0.1069
1.287,-0.1003
1.288,-0.0983
1.289,-0.0891
1.29,-0.094
1.291,-0.0955
1.292,-0.086
1.293,-0.0944
1.294,-0.0955
1.295,-0.0864
1.296,-0.0779
1.297,-0.0723
1.298,-0.0814
1.299,-0.0849
1.3,-0.0906
1.301,-0.0935
1.302,-0.0889
1.303,-0.0865
1.304,-0.0812
1.305,-0.0807
1.306,-0.0776
1.307,-0.0792
1.308,-0.0805
1.309,-0.0818
1.31,-0.0807
1.311,-0.0832
1.312,-0.0777
1.313,-0.0785
1.314,-0.0803
1.315,-0.0746
1.316,-0.0799
1.317,-0.0845
1.318,-0.075
1.319,-0.0763
1.32,-0.0752
1.321,-0.0719
1.322,-0.0788
1.323,-0.0779
1.324,-0.0854
1.325,-0.0884
1.326,-0.0898
1.327,-0.0907
1.328,-0.0783
1.329,-0.0582
1.33,-0.0503
1.331,-0.0574
1.332,-0.0774
1.333,-0.0907
1.334,-0.0979
1.335,-0.0957
1.336,-0.0896
1.337,-0.0878
1.338,-0.0928
1.339,-0.0884
1.34,-0.0871
1.341,-0.0955
1.342,-0.0922
1.343,-0.0951
1.344,-0.0867
1.345,-0.0856
1.346,-0.0865
1.347,-0.0911
1.348,-0.0803
1.349,-0.0847
1.35,-0.0807
1.351,-0.0796
1.352,-0.0717
1.353,-0.0668
1.354,-0.077
1.355,-0.0783
1.356,-0.0748
1.357,-0.0918
1.358,-0.0798
1.359,-0.0907
1.36,-0.1008
1.361,-0.1027
1.362,-0.0876
1.363,-0.0856
1.364,-0.0838
1.365,-0.0688
1.366,-0.0506
1.367,-0.0726
1.368,-0.0756
1.369,-0.0834
1.37,-0.0858
1.371,-0.088
1.372,-0.09
1.373,-0.0809
1.374,-0.0792
1.375,-0.0777
1.376,-0.0818
1.377,-0.0854
1.378,-0.0865
1.379,-0.0809
1.38,-0.0657
1.381,-0.0679
1.382,-0.0578
1.383,-0.0633
1.384,-0.0748
1.385,-0.0853
1.386,-0.0975
1.387,-0.0893
1.388,-0.0937
1.389,-0.0924
1.39,-0.0812
1.391,-0.1037
1.392,-0.1006
1.393,-0.0918
1.394,-0.0893
1.395,-0.0869
1.396,-0.0891
1.397,-0.0992
1.398,-0.09
1.399,-0.095
1.4,-0.0814
1.401,-0.0759
1.402,-0.0776
1.403,-0.082
1.404,-0.0832
1.405,-0.0748
1.406,-0.0646
1.407,-0.0686
1.408,-0.0821
1.409,-0.095
1.41,-0.0933
1.411,-0.0798
1.412,-0.0779
1.413,-0.0763
1.414,-0.0748
1.415,-0.0788
1.416,-0.0777
1.417,-0.0834
1.418,-0.0864
1.419,-0.0928
1.42,-0.0887
1.421,-0.0849
1.422,-0.0816
1.423,-0.0821
1.424,-0.0838
1.425,-0.0772
1.426,-0.0799
1.427,-0.0759
1.428,-0.084
1.429,-0.0787
1.43,-0.0684
1.431,-0.0519
1.432,-0.0497
1.433,-0.0558
1.434,-0.0759
1.435,-0.0785
1.436,-0.1005
1.437,-0.0917
1.438,-0.0891
1.439,-0.0915
1.44,-0.0981
1.441,-0.0961
1.442,-0.0942
1.443,-0.0926
1.444,-0.0851
1.445,-0.0973
1.446,-0.0858
1.447,-0.0873
1.448,-0.0777
1.449,-0.0862
1.45,-0.0895
1.451,-0.0986
1.452,-0.0875
1.453,-0.086
1.454,-0.0792
1.455,-0.0708
1.456,-0.0697
1.457,-0.0706
1.458,-0.0845
1.459,-0.0865
1.46,-0.0884
1.461,-0.0933
1.462,-0.0858
1.463,-0.0871
1.464,-0.0759
1.465,-0.0803
1.466,-0.0898
1.467,-0.0737
1.468,-0.0715
1.469,-0.0816
1.47,-0.0871
1.471,-0.0721
1.472,-0.0902
1.473,-0.0926
1.474,-0.0816
1.475,-0.0675
1.476,-0.062
1.477,-0.0803
1.478,-0.0827
1.479,-0.0876
1.48,-0.0854
1.481,-0.0673
1.482,-0.0552
1.483,-0.0442
1.484,-0.0463
1.485,-0.0627
1.486,-0.0959
1.487,-0.1102
1.488,-0.1059
1.489,-0.1098
1.49,-0.0992
1.491,-0.0896
1.492,-0.0984
1.493,-0.0959
1.494,-0.0887
1.495,-0.0865
1.496,-0.0805
1.497,-0.0823
1.498,-0.0807
1.499,-0.0821
1.5,-0.0889
1.501,-0.09
1.502,-0.0911
1.503,-0.0882
1.504,-0.0798
1.505,-0.0809
1.506,-0.0799
1.507,-0.0902
1.508,-0.0862
1.509,-0.0701
1.51,-0.0766
1.511,-0.0787
1.512,-0.0915
1.513,-0.0832
1.514,-0.0788
1.515,-0.0801
1.516,-0.0741
1.517,-0.0638
1.518,-0.0788
1.519,-0.0889
1.52,-0.1017
1.521,-0.1001
1.522,-0.0836
1.523,-0.0814
1.524,-0.0875
1.525,-0.082
1.526,-0.0935
1.527,-0.077
1.528,-0.0792
1.529,-0.0853
1.53,-0.0825
1.531,-0.0807
1.532,-0.0691
1.533,-0.0616
1.534,-0.0494
1.535,-0.051
1.536,-0.0675
1.537,-0.0741
1.538,-0.0882
1.539,-0.09
1.54,-0.1016
1.541,-0.082
1.542,-0.0794
1.543,-0.0723
1.544,-0.0832
1.545,-0.1014
1.546,-0.1037
1.547,-0.1059
1.548,-0.0878
1.549,-0.0854
1.55,-0.092
1.551,-0.094
1.552,-0.0812
1.553,-0.0895
1.554,-0.0909
1.555,-0.0787
1.556,-0.0803
1.557,-0.0847
1.558,-0.0752
1.559,-0.0787
1.56,-0.0865
1.561,-0.0856
1.562,-0.081
1.563,-0.077
1.564,-0.0763
1.565,-0.0745
1.566,-0.0827
1.567,-0.0975
1.568,-0.0875
1.569,-0.0893
1.57,-0.0843
1.571,-0.0887
1.572,-0.0847
1.573,-0.0712
1.574,-0.073
1.575,-0.0779
1.576,-0.0823
1.577,-0.0756
1.578,-0.0766
1.579,-0.0823
1.58,-0.0814
1.581,-0.0832
1.582,-0.0805
1.583,-0.0781
1.584,-0.0666
1.585,-0.0649
1.586,-0.0545
1.587,-0.064
1.588,-0.0724
1.589,-0.0895
1.59,-0.0871
1.591,-0.0717
1.592,-0.0777
1.593,-0.0832
1.594,-0.1048
1.595,-0.1078
1.596,-0.1103
1.597,-0.0884
1.598,-0.0913
1.599,-0.0887
1.6,-0.0959
1.601,-0.0937
1.602,-0.0756
1.603,-0.0779
1.604,-0.0933
1.605,-0.0953
1.606,-0.0972
1.607,-0.0922
1.608,-0.0818
1.609,-0.0777
1.61,-0.0743
1.611,-0.0686
1.612,-0.0657
1.613,-0.0647
1.614,-0.0772
1.615,-0.0827
1.616,-0.0777
1.617,-0.0792
1.618,-0.0805
1.619,-0.0816
1.62,-0.0873
1.621,-0.0902
1.622,-0.0911
1.623,-0.0854
1.624,-0.0847
1.625,-0.0814
1.626,-0.0783
1.627,-0.0788
1.628,-0.0812
1.629,-0.0781
1.63,-0.0726
1.631,-0.0704
1.632,-0.0825
1.633,-0.0928
1.634,-0.0884
1.635,-0.0896
1.636,-0.0712
1.637,-0.0633
1.638,-0.0754
1.639,-0.0732
1.64,-0.0712
1.641,-0.084
1.642,-0.0955
1.643,-0.0999
1.644,-0.1067
1.645,-0.0955
1.646,-0.0911
1.647,-0.0979
1.648,-0.0867
1.649,-0.0823
1.65,-0.0918
1.651,-0.0884
1.652,-0.0873
1.653,-0.0942
1.654,-0.0878
1.655,-0.077
1.656,-0.0756
1.657,-0.0743
1.658,-0.0777
1.659,-0.0766
1.66,-0.0796
1.661,-0.075
1.662,-0.0842
1.663,-0.1027
1.664,-0.0948
1.665,-0.0876
1.666,-0.0898
1.667,-0.0959
1.668,-0.0867
1.669,-0.0818
1.67,-0.0653
1.671,-0.0587
1.672,-0.0647
1.673,-0.0886
1.674,-0.0917
1.675,-0.071
1.676,-0.0684
1.677,-0.0756
1.678,-0.0865
1.679,-0.0886
1.68,-0.0904
1.681,-0.0821
1.682,-0.0807
1.683,-0.0803
1.684,-0.0763
1.685,-0.0578
1.686,-0.0391
1.687,-0.0611
1.688,-0.0582
1.689,-0.0556
1.69,-0.0724
1.691,-0.0834
1.692,-0.0895
1.693,-0.0876
1.694,-0.086
1.695,-0.0875
1.696,-0.0942
1.697,-0.0953
1.698,-0.0829
1.699,-0.0878
1.7,-0.1043
1.701,-0.1109
1.702,-0.1008
1.703,-0.0843
1.704,-0.0777
1.705,-0.0878
1.706,-0.0933
1.707,-0.095
1.708,-0.0964
1.709,-0.0896
1.71,-0.0836
1.711,-0.0779
1.712,-0.075
1.713,-0.0741
1.714,-0.0781
1.715,-0.0896
1.716,-0.088
1.717,-0.0805
1.718,-0.0873
1.719,-0.0761
1.72,-0.0776
1.721,-0.0735
1.722,-0.0847
1.723,-0.0891
1.724,-0.0823
1.725,-0.0834
1.726,-0.0801
1.727,-0.0669
1.728,-0.0834
1.729,-0.0988
1.73,-0.0928
1.731,-0.0909
1.732,-0.0926
1.733,-0.0851
1.734,-0.0891
1.735,-0.0878
1.736,-0.0693
1.737,-0.0506
1.738,-0.053
1.739,-0.064
1.74,-0.0741
1.741,-0.0649
1.742,-0.0865
1.743,-0.0895
1.744,-0.1081
1.745,-0.1153
1.746,-0.1043
1.747,-0.0862
1.748,-0.0838
1.749,-0.0816
1.75,-0.0836
1.751,-0.1001
1.752,-0.0891
1.753,-0.079
1.754,-0.0809
1.755,-0.0726
1.756,-0.0891
1.757,-0.0913
1.758,-0.0853
1.759,-0.0798
1.76,-0.0847
1.761,-0.0803
1.762,-0.0735
1.763,-0.077
1.764,-0.0873
1.765,-0.0777
1.766,-0.0766
1.767,-0.0756
1.768,-0.0686
1.769,-0.0807
1.77,-0.0889
1.771,-0.0814
1.772,-0.0882
1.773,-0.0917
1.774,-0.0884
1.775,-0.0953
1.776,-0.0907
1.777,-0.0783
1.778,-0.0801
1.779,-0.0851
1.78,-0.0746
1.781,-0.0624
1.782,-0.0574
1.783,-0.0649
1.784,-0.069
1.785,-0.0627
1.786,-0.0492
1.787,-0.0217
1.788,-0.0179
1.789,-0.0001
1.79,0.003
1.791,-0.0058
1.792,-0.0461
1.793,-0.0633
1.794,-0.0788
1.795,-0.0836
1.796,-0.0964
1.797,-0.1477
1.798,-0.1827
1.799,-0.2015
1.8,-0.2303
1.801,-0.2565
1.802,-0.2707
1.803,-0.2317
1.804,-0.2369
1.805,-0.2702
1.806,-0.3004
1.807,-0.3042
1.808,-0.3149
1.809,-0.2792
1.81,-0.2458
1.811,-0.1894
1.812,-0.1664
1.813,-0.1594
1.814,-0.1021
1.815,-0.0327
1.816,0.0513
1.817,0.085
1.818,0.0543
1.819,0.1196
1.82,0.1619
1.821,0.2313
1.822,0.278
1.823,0.2528
1.824,0.2297
1.825,0.2366
1.826,0.1923
1.827,0.1867
1.828,0.1711
1.829,0.1568
1.83,0.144
1.831,0.0927
1.832,0.0718
1.833,0.0656
1.834,0.0484
1.835,0.0118
1.836,-0.0232
1.837,-0.0757
1.838,-0.1107
1.839,-0.1169
1.84,-0.1457
1.841,-0.1719
1.842,-0.2435
1.843,-0.2742
1.844,-0.2836
1.845,-0.292
1.846,-0.2689
1.847,-0.2898
1.848,-0.3086
1.849,-0.2914
1.85,-0.2966
1.851,-0.2823
1.852,-0.2865
1.853,-0.2669
1.854,-0.2347
1.855,-0.2219
1.856,-0.1944
1.857,-0.1622
1.858,-0.1664
1.859,-0.1468
1.86,-0.1219
1.861,-0.1188
1.862,-0.1039
1.863,-0.0906
1.864,-0.0834
1.865,-0.0768
1.866,-0.0547
1.867,-0.0459
1.868,-0.0485
1.869,-0.0508
1.87,-0.0486
1.871,-0.0386
1.872,-0.0404
1.873,-0.042
1.874,-0.0406
1.875,-0.0393
1.876,-0.0505
1.877,-0.0461
1.878,-0.0583
1.879,-0.0567
1.88,-0.0523
1.881,-0.0536
1.882,-0.0596
1.883,-0.0629
1.884,-0.0658
1.885,-0.0668
1.886,-0.0675
1.887,-0.0635
1.888,-0.0582
1.889,-0.0479
1.89,-0.0583
1.891,-0.0461
1.892,-0.0477
1.893,-0.0521
1.894,-0.0726
1.895,-0.0697
1.896,-0.0776
1.897,-0.0847
1.898,-0.1047
1.899,-0.0913
1.9,-0.0792
1.901,-0.0858
1.902,-0.0798
1.903,-0.0926
1.904,-0.081
1.905,-0.0766
1.906,-0.0807
1.907,-0.0891
1.908,-0.0948
1.909,-0.0878
1.91,-0.0776
1.911,-0.0816
1.912,-0.0851
1.913,-0.0818
1.914,-0.0788
1.915,-0.0743
1.916,-0.0766
1.917,-0.0682
1.918,-0.0715
1.919,-0.0765
1.92,-0.0829
1.921,-0.0836
1.922,-0.0783
1.923,-0.075
1.924,-0.0706
1.925,-0.0768
1.926,-0.086
1.927,-0.0944
1.928,-0.0955
1.929,-0.0823
1.93,-0.0695
1.931,-0.0845
1.932,-0.0745
1.933,-0.0836
1.934,-0.0918
1.935,-0.0875
1.936,-0.0807
1.937,-0.0867
1.938,-0.0913
1.939,-0.0856
1.94,-0.0704
1.941,-0.0682
1.942,-0.0622
1.943,-0.0457
1.944,-0.0391
1.945,-0.0693
1.946,-0.0821
1.947,-0.0939
1.948,-0.0973
1.949,-0.1005
1.95,-0.0975
1.951,-0.1001
1.952,-0.1072
1.953,-0.0829
1.954,-0.099
1.955,-0.0902
1.956,-0.0928
1.957,-0.0856
1.958,-0.079
1.959,-0.081
1.96,-0.0865
1.961,-0.0915
1.962,-0.0871
1.963,-0.0911
1.964,-0.0876
1.965,-0.0798
1.966,-0.0847
1.967,-0.0856
1.968,-0.0832
1.969,-0.0732
1.97,-0.0937
1.971,-0.0849
1.972,-0.0662
1.973,-0.0831
1.974,-0.0765
1.975,-0.0624
1.976,-0.0898
1.977,-0.0937
1.978,-0.0972
1.979,-0.1067
1.98,-0.0918
1.981,-0.0732
1.982,-0.066
1.983,-0.077
1.984,-0.075
1.985,-0.0951
1.986,-0.0765
1.987,-0.0693
1.988,-0.0627
1.989,-0.0796
1.99,-0.0856
1.991,-0.0728
1.992,-0.0712
1.993,-0.0547
1.994,-0.0746
1.995,-0.088
1.996,-0.0809
1.997,-0.0962
1.998,-0.0821
1.999,-0.095
2,-0.0933
2.001,-0.0918
2.002,-0.0851
2.003,-0.0862
2.004,-0.1032
2.005,-0.1008
2.006,-0.0898
2.007,-0.0838
2.008,-0.0783
2.009,-0.0898
2.01,-0.0854
2.011,-0.0732
2.012,-0.0781
2.013,-0.0856
2.014,-0.0843
2.015,-0.0878
2.016,-0.0845
2.017,-0.0754
2.018,-0.0788
2.019,-0.0913
2.02,-0.0798
2.021,-0.0812
2.022,-0.088
2.023,-0.0869
2.024,-0.0836
2.025,-0.0787
2.026,-0.0723
2.027,-0.0847
2.028,-0.0829
2.029,-0.0878
2.03,-0.0922
2.031,-0.0882
2.032,-0.0871
2.033,-0.086
2.034,-0.0748
2.035,-0.0763
2.036,-0.0803
2.037,-0.0838
2.038,-0.0713
2.039,-0.0896
2.04,-0.0818
2.041,-0.0794
2.042,-0.0594
2.043,-0.062
2.044,-0.0644
2.045,-0.0578
2.046,-0.0638
2.047,-0.073
2.048,-0.0979
2.049,-0.1014
2.05,-0.0983
2.051,-0.1012
2.052,-0.0986
2.053,-0.0962
2.054,-0.1072
2.055,-0.1052
2.056,-0.0777
2.057,-0.0816
2.058,-0.0851
2.059,-0.0882
2.06,-0.0911
2.061,-0.0937
2.062,-0.0865
2.063,-0.0931
2.064,-0.0911
2.065,-0.0893
2.066,-0.0942
2.067,-0.0898
2.068,-0.0831
2.069,-0.082
2.07,-0.0831
2.071,-0.0781
2.072,-0.0865
2.073,-0.0695
2.074,-0.0719
2.075,-0.0785
2.076,-0.0805
2.077,-0.1006
2.078,-0.0928
2.079,-0.0856
2.08,-0.0878
2.081,-0.0818
2.082,-0.0763
2.083,-0.0713
2.084,-0.0878
2.085,-0.0856
2.086,-0.0756
2.087,-0.0701
2.088,-0.075
2.089,-0.0735
2.09,-0.0831
2.091,-0.0818
2.092,-0.0853
2.093,-0.0728
2.094,-0.0578
2.095,-0.0598
2.096,-0.047
2.097,-0.0486
2.098,-0.0712
2.099,-0.0937
2.1,-0.0788
2.101,-0.0922
2.102,-0.0898
2.103,-0.0655
2.104,-0.088
2.105,-0.0968
2.106,-0.0834
2.107,-0.0906
2.108,-0.0972
2.109,-0.0871
2.11,-0.0853
2.111,-0.0869
2.112,-0.0734
2.113,-0.0715
2.114,-0.0931
2.115,-0.0843
2.116,-0.0818
2.117,-0.0842
2.118,-0.0864
2.119,-0.0924
2.12,-0.0869
2.121,-0.0787
2.122,-0.0801
2.123,-0.0734
2.124,-0.0895
2.125,-0.0829
2.126,-0.0768
2.127,-0.0677
2.128,-0.066
2.129,-0.0675
2.13,-0.088
2.131,-0.0792
2.132,-0.0818
2.133,-0.0889
2.134,-0.0823
2.135,-0.0843
2.136,-0.0788
2.137,-0.0706
2.138,-0.0662
2.139,-0.0785
2.14,-0.0968
2.141,-0.0896
2.142,-0.0891
2.143,-0.0913
2.144,-0.0691
2.145,-0.0543
2.146,-0.0517
2.147,-0.0494
2.148,-0.0781
2.149,-0.0898
2.15,-0.0864
2.151,-0.0895
2.152,-0.0807
2.153,-0.0886
2.154,-0.0814
2.155,-0.1014
2.156,-0.1039
2.157,-0.1016
2.158,-0.1037
2.159,-0.1017
2.16,-0.1036
2.161,-0.0986
2.162,-0.0911
2.163,-0.0843
2.164,-0.0682
2.165,-0.0704
2.166,-0.0805
2.167,-0.1006
2.168,-0.0981
2.169,-0.0909
2.17,-0.0756
2.171,-0.0816
2.172,-0.0761
2.173,-0.0777
2.174,-0.0792
2.175,-0.0805
2.176,-0.0721
2.177,-0.071
2.178,-0.0739
2.179,-0.0878
2.18,-0.0939
2.181,-0.0957
2.182,-0.0973
2.183,-0.0988
2.184,-0.0783
2.185,-0.0754
2.186,-0.0728
2.187,-0.0657
2.188,-0.0766
2.189,-0.0867
2.19,-0.0849
2.191,-0.0931
2.192,-0.0856
2.193,-0.0664
2.194,-0.0869
2.195,-0.0781
2.196,-0.0647
2.197,-0.0479
2.198,-0.0545
2.199,-0.0646
2.2,-0.0591
2.201,-0.0706
2.202,-0.0721
2.203,-0.0843
2.204,-0.0959
2.205,-0.0915
2.206,-0.0955
2.207,-0.114
2.208,-0.0953
2.209,-0.0977
2.21,-0.1087
2.211,-0.0946
2.212,-0.0854
2.213,-0.0871
2.214,-0.0975
2.215,-0.0988
2.216,-0.0928
2.217,-0.0961
2.218,-0.0869
2.219,-0.0734
2.22,-0.0788
2.221,-0.0772
2.222,-0.0728
2.223,-0.0741
2.224,-0.0752
2.225,-0.0922
2.226,-0.0994
2.227,-0.0884
2.228,-0.0783
2.229,-0.0618
2.23,-0.064
2.231,-0.0781
2.232,-0.0799
2.233,-0.1048
2.234,-0.0942
2.235,-0.0973
2.236,-0.0825
2.237,-0.0638
2.238,-0.071
2.239,-0.082
2.24,-0.084
2.241,-0.0895
2.242,-0.0712
2.243,-0.0783
2.244,-0.0788
2.245,-0.0854
2.246,-0.0633
2.247,-0.0604
2.248,-0.0525
2.249,-0.0453
2.25,-0.0653
2.251,-0.0787
2.252,-0.0763
2.253,-0.0873
2.254,-0.1014
2.255,-0.0812
2.256,-0.0946
2.257,-0.0875
2.258,-0.0984
2.259,-0.0964
2.26,-0.0983
2.261,-0.0766
2.262,-0.0854
2.263,-0.1096
2.264,-0.0935
2.265,-0.0906
2.266,-0.088
2.267,-0.0856
2.268,-0.0834
2.269,-0.0774
2.27,-0.0719
2.271,-0.0735
2.272,-0.0779
2.273,-0.0984
2.274,-0.0896
2.275,-0.0922
2.276,-0.0898
2.277,-0.0876
2.278,-0.0776
2.279,-0.0831
2.28,-0.0781
2.281,-0.0796
2.282,-0.0809
2.283,-0.0748
2.284,-0.0759
2.285,-0.069
2.286,-0.0774
2.287,-0.0922
2.288,-0.1023
2.289,-0.0931
2.29,-0.0682
2.291,-0.0647
2.292,-0.0743
2.293,-0.0772
2.294,-0.0959
2.295,-0.0942
2.296,-0.0821
2.297,-0.0756
2.298,-0.0776
2.299,-0.0501
2.3,-0.0618
2.301,-0.0724
2.302,-0.082
2.303,-0.079
2.304,-0.0869
2.305,-0.0893
2.306,-0.0783
2.307,-0.0803
2.308,-0.0821
2.309,-0.0972
2.31,-0.1072
2.311,-0.0981
2.312,-0.0831
2.313,-0.077
2.314,-0.0715
2.315,-0.0565
2.316,-0.0867
2.317,-0.0995
2.318,-0.1191
2.319,-0.1085
2.32,-0.099
2.321,-0.0902
2.322,-0.0981
2.323,-0.0812
2.324,-0.079
2.325,-0.073
2.326,-0.0748
2.327,-0.0798
2.328,-0.0873
2.329,-0.0832
2.33,-0.0748
2.331,-0.0781
2.332,-0.081
2.333,-0.0746
2.334,-0.069
2.335,-0.0682
2.336,-0.0677
2.337,-0.0772
2.338,-0.0895
2.339,-0.0911
2.34,-0.0867
2.341,-0.0745
2.342,-0.0827
2.343,-0.0752
2.344,-0.0902
2.345,-0.0882
2.346,-0.0781
2.347,-0.0836
2.348,-0.0686
2.349,-0.0545
2.35,-0.0673
2.351,-0.0624
2.352,-0.0638
2.353,-0.0626
2.354,-0.071
2.355,-0.0743
2.356,-0.0651
2.357,-0.0567
2.358,-0.0737
2.359,-0.0906
2.36,-0.0928
2.361,-0.0948
2.362,-0.0893
2.363,-0.0876
2.364,-0.092
2.365,-0.088
2.366,-0.1065
2.367,-0.1307
2.368,-0.1211
2.369,-0.1005
2.37,-0.0926
2.371,-0.0997
2.372,-0.0843
2.373,-0.0823
2.374,-0.0842
2.375,-0.0858
2.376,-0.0633
2.377,-0.0664
2.378,-0.0812
2.379,-0.0787
2.38,-0.081
2.381,-0.0876
2.382,-0.0735
2.383,-0.079
2.384,-0.0873
2.385,-0.0768
2.386,-0.0781
2.387,-0.0966
2.388,-0.0832
2.389,-0.0712
2.39,-0.0734
2.391,-0.0794
2.392,-0.0666
2.393,-0.0781
2.394,-0.0737
2.395,-0.0777
2.396,-0.0812
2.397,-0.0686
2.398,-0.0653
2.399,-0.0805
2.4,-0.0605
2.401,-0.0527
2.402,-0.0695
2.403,-0.0761
2.404,-0.0942
2.405,-0.0918
2.406,-0.0896
2.407,-0.0876
2.408,-0.0821
2.409,-0.0838
2.41,-0.0942
2.411,-0.0955
2.412,-0.092
2.413,-0.0864
2.414,-0.0913
2.415,-0.0959
2.416,-0.0983
2.417,-0.099
2.418,-0.0887
2.419,-0.0931
2.42,-0.0999
2.421,-0.0864
2.422,-0.0662
2.423,-0.0741
2.424,-0.0812
2.425,-0.0702
2.426,-0.0803
2.427,-0.0785
2.428,-0.0834
2.429,-0.073
2.43,-0.0717
2.431,-0.0728
2.432,-0.0898
2.433,-0.0827
2.434,-0.0805
2.435,-0.0946
2.436,-0.0854
2.437,-0.097
2.438,-0.0984
2.439,-0.0779
2.44,-0.0631
2.441,-0.071
2.442,-0.0878
2.443,-0.0812
2.444,-0.0792
2.445,-0.0774
2.446,-0.0856
2.447,-0.0752
2.448,-0.081
2.449,-0.0878
2.45,-0.0766
2.451,-0.0631
2.452,-0.0613
2.453,-0.0497
2.454,-0.0723
2.455,-0.0754
2.456,-0.0783
2.457,-0.0809
2.458,-0.1028
2.459,-0.1116
2.46,-0.0983
2.461,-0.1054
2.462,-0.1032
2.463,-0.0931
2.464,-0.084
2.465,-0.0955
2.466,-0.073
2.467,-0.0825
2.468,-0.0854
2.469,-0.088
2.47,-0.0951
2.471,-0.0842
2.472,-0.0821
2.473,-0.0876
2.474,-0.086
2.475,-0.0695
2.476,-0.0717
2.477,-0.0818
2.478,-0.0946
2.479,-0.0929
2.48,-0.0854
2.481,-0.0842
2.482,-0.0807
2.483,-0.075
2.484,-0.0862
2.485,-0.0847
2.486,-0.0752
2.487,-0.0864
2.488,-0.0878
2.489,-0.0918
2.49,-0.0734
2.491,-0.0655
2.492,-0.0875
2.493,-0.0845
2.494,-0.082
2.495,-0.0699
2.496,-0.0853
2.497,-0.0873
2.498,-0.0928
2.499,-0.1023
2.5,-0.1006
2.501,-0.081
2.502,-0.0677
2.503,-0.0409
2.504,-0.0516
2.505,-0.0611
2.506,-0.0818
2.507,-0.0739
2.508,-0.086
2.509,-0.0926
2.51,-0.1027
2.511,-0.0898
2.512,-0.0981
2.513,-0.0816
2.514,-0.0706
2.515,-0.0928
2.516,-0.0957
2.517,-0.0823
2.518,-0.0799
2.519,-0.0777
2.52,-0.0717
2.521,-0.0735
2.522,-0.0951
2.523,-0.0864
2.524,-0.0785
2.525,-0.0761
2.526,-0.0827
2.527,-0.0847
2.528,-0.0865
2.529,-0.0849
2.53,-0.0713
2.531,-0.0732
2.532,-0.0781
2.533,-0.0796
2.534,-0.0783
2.535,-0.0918
2.536,-0.0937
2.537,-0.0986
2.538,-0.0882
2.539,-0.0787
2.54,-0.0798
2.541,-0.0876
2.542,-0.0906
2.543,-0.0896
2.544,-0.0788
2.545,-0.0832
2.546,-0.0845
2.547,-0.0834
2.548,-0.0823
2.549,-0.0832
2.55,-0.0854
2.551,-0.077
2.552,-0.0713
2.553,-0.0622
2.554,-0.0561
2.555,-0.0528
2.556,-0.068
2.557,-0.079
2.558,-0.0851
2.559,-0.0906
2.56,-0.1056
2.561,-0.0995
2.562,-0.1014
2.563,-0.0997
2.564,-0.0953
2.565,-0.0776
2.566,-0.0847
2.567,-0.0957
2.568,-0.0977
2.569,-0.0995
2.57,-0.0779
2.571,-0.0928
2.572,-0.0902
2.573,-0.0781
2.574,-0.0715
2.575,-0.0735
2.576,-0.0644
2.577,-0.0759
2.578,-0.0984
2.579,-0.108
2.58,-0.0931
2.581,-0.0745
2.582,-0.0768
2.583,-0.0702
2.584,-0.0884
2.585,-0.0763
2.586,-0.0741
2.587,-0.068
2.588,-0.0809
2.589,-0.0924
2.59,-0.088
2.591,-0.0812
2.592,-0.0677
2.593,-0.0805
2.594,-0.0655
2.595,-0.0635
2.596,-0.0763
2.597,-0.0878
2.598,-0.1014
2.599,-0.0959
2.6,-0.0942
2.601,-0.0869
2.602,-0.0913
2.603,-0.0873
2.604,-0.0688
2.605,-0.0662
2.606,-0.0442
2.607,-0.0472
2.608,-0.0766
2.609,-0.1041
2.61,-0.0935
2.611,-0.0904
2.612,-0.0816
2.613,-0.0895
2.614,-0.0823
2.615,-0.0713
2.616,-0.0492
2.617,-0.058
2.618,-0.0554
2.619,-0.0433
2.62,-0.0455
2.621,-0.0475
2.622,-0.0494
2.623,-0.0543
2.624,-0.0708
2.625,-0.0995
2.626,-0.1191
2.627,-0.1157
2.628,-0.1318
2.629,-0.1585
2.63,-0.162
2.631,-0.1781
2.632,-0.1929
2.633,-0.2008
2.634,-0.2129
2.635,-0.2107
2.636,-0.2409
2.637,-0.2711
2.638,-0.2673
2.639,-0.2638
2.64,-0.2477
2.641,-0.2328
2.642,-0.1926
2.643,-0.1523
2.644,-0.1471
2.645,-0.1138
2.646,-0.0748
2.647,-0.0065
2.648,0.0588
2.649,0.0841
2.65,0.0918
2.651,0.1407
2.652,0.1782
2.653,0.2355
2.654,0.2586
2.655,0.2656
2.656,0.2718
2.657,0.2546
2.658,0.1759
2.659,0.1195
2.66,0.0887
2.661,0.0607
2.662,0.0691
2.663,0.0307
2.664,0.0098
2.665,0.0036
2.666,-0.0367
2.667,-0.0523
2.668,-0.0953
2.669,-0.1356
2.67,-0.1512
2.671,-0.1559
2.672,-0.1861
2.673,-0.2057
2.674,-0.238
2.675,-0.2596
2.676,-0.2557
2.677,-0.2522
2.678,-0.2297
2.679,-0.2565
2.68,-0.253
2.681,-0.2691
2.682,-0.2484
2.683,-0.2405
2.684,-0.2526
2.685,-0.246
2.686,-0.244
2.687,-0.2165
2.688,-0.2048
2.689,-0.2013
2.69,-0.1788
2.691,-0.1462
2.692,-0.1334
2.693,-0.1138
2.694,-0.1103
2.695,-0.0746
2.696,-0.0604
2.697,-0.0561
2.698,-0.0444
2.699,-0.055
2.7,-0.0455
2.701,-0.0367
2.702,-0.0234
2.703,-0.0173
2.704,-0.0149
2.705,-0.0084
2.706,0.0057
2.707,0.0076
2.708,-0.0173
2.709,-0.0422
2.71,-0.0453
2.711,-0.0541
2.712,-0.062
2.713,-0.0741
2.714,-0.0851
2.715,-0.0871
2.716,-0.0633
2.717,-0.0728
2.718,-0.0816
2.719,-0.0737
2.72,-0.0809
2.721,-0.0787
2.722,-0.0726
2.723,-0.0671
2.724,-0.0655
2.725,-0.064
2.726,-0.0708
2.727,-0.0768
2.728,-0.0801
2.729,-0.0792
2.73,-0.082
2.731,-0.086
2.732,-0.0745
2.733,-0.0728
2.734,-0.0653
2.735,-0.0666
2.736,-0.0851
2.737,-0.0876
2.738,-0.0853
2.739,-0.0831
2.74,-0.077
2.741,-0.0788
2.742,-0.0739
2.743,-0.0843
2.744,-0.0994
2.745,-0.0853
2.746,-0.0798
2.747,-0.0781
2.748,-0.0766
2.749,-0.0779
2.75,-0.084
2.751,-0.0807
2.752,-0.0757
2.753,-0.0842
2.754,-0.0869
2.755,-0.0858
2.756,-0.0706
2.757,-0.064
2.758,-0.058
2.759,-0.0488
2.76,-0.0638
2.761,-0.086
2.762,-0.0948
2.763,-0.0869
2.764,-0.094
2.765,-0.0918
2.766,-0.0898
2.767,-0.1027
2.768,-0.0876
2.769,-0.0856
2.77,-0.0875
2.771,-0.099
2.772,-0.0946
2.773,-0.0878
2.774,-0.0843
2.775,-0.0876
2.776,-0.0785
2.777,-0.082
2.778,-0.0898
2.779,-0.0889
2.78,-0.088
2.781,-0.092
2.782,-0.0898
2.783,-0.0931
2.784,-0.0836
2.785,-0.0849
2.786,-0.086
2.787,-0.069
2.788,-0.0713
2.789,-0.0691
2.79,-0.0832
2.791,-0.0887
2.792,-0.0904
2.793,-0.0918
2.794,-0.0796
2.795,-0.0713
2.796,-0.0788
2.797,-0.0856
2.798,-0.0891
2.799,-0.097
2.8,-0.092
2.801,-0.0875
2.802,-0.0818
2.803,-0.0796
2.804,-0.0829
2.805,-0.081
2.806,-0.0741
2.807,-0.0677
2.808,-0.0602
2.809,-0.047
2.81,-0.0415
2.811,-0.0598
2.812,-0.0818
2.813,-0.0788
2.814,-0.0922
2.815,-0.0994
2.816,-0.0972
2.817,-0.1072
2.818,-0.0981
2.819,-0.0798
2.82,-0.0726
2.821,-0.0792
2.822,-0.0853
2.823,-0.1054
2.824,-0.1028
2.825,-0.0957
2.826,-0.0891
2.827,-0.079
2.828,-0.0772
2.829,-0.0854
2.83,-0.081
2.831,-0.0933
2.832,-0.0851
2.833,-0.0865
2.834,-0.0878
2.835,-0.0818
2.836,-0.0739
2.837,-0.0768
2.838,-0.0759
2.839,-0.0799
2.84,-0.0684
2.841,-0.0799
2.842,-0.0843
2.843,-0.0748
2.844,-0.0783
2.845,-0.0886
2.846,-0.0898
2.847,-0.0814
2.848,-0.0803
2.849,-0.0832
2.85,-0.0878
2.851,-0.0854
2.852,-0.0832
2.853,-0.0814
2.854,-0.0809
2.855,-0.0814
2.856,-0.0854
2.857,-0.0821
2.858,-0.0818
2.859,-0.0772
2.86,-0.0677
2.861,-0.0554
2.862,-0.0669
2.863,-0.0834
2.864,-0.0768
2.865,-0.0909
2.866,-0.0928
2.867,-0.0944
2.868,-0.1048
2.869,-0.1061
2.87,-0.105
2.871,-0.0902
2.872,-0.0882
2.873,-0.09
2.874,-0.0785
2.875,-0.0829
2.876,-0.0788
2.877,-0.0873
2.878,-0.0997
2.879,-0.0948
2.88,-0.0962
2.881,-0.084
2.882,-0.0757
2.883,-0.0713
2.884,-0.0726
2.885,-0.0887
2.886,-0.0865
2.887,-0.0886
2.888,-0.0831
2.889,-0.0913
2.89,-0.0928
2.891,-0.075
2.892,-0.0726
2.893,-0.0836
2.894,-0.0816
2.895,-0.0724
2.896,-0.084
2.897,-0.0825
2.898,-0.0785
2.899,-0.0796
2.9,-0.0763
2.901,-0.0792
2.902,-0.0876
2.903,-0.0865
2.904,-0.0957
2.905,-0.0946
2.906,-0.0821
2.907,-0.0766
2.908,-0.0651
2.909,-0.0666
2.91,-0.0679
2.911,-0.0739
2.912,-0.0682
2.913,-0.0571
2.914,-0.0796
2.915,-0.0891
2.916,-0.0862
2.917,-0.094
2.918,-0.0869
2.919,-0.0935
2.92,-0.0875
2.921,-0.0893
2.922,-0.0909
2.923,-0.0924
2.924,-0.0856
2.925,-0.0845
2.926,-0.0834
2.927,-0.0825
2.928,-0.0761
2.929,-0.0818
2.93,-0.081
2.931,-0.0873
2.932,-0.088
2.933,-0.0796
2.934,-0.0763
2.935,-0.0792
2.936,-0.0856
2.937,-0.0816
2.938,-0.0746
2.939,-0.0719
2.94,-0.0712
2.941,-0.0719
2.942,-0.0781
2.943,-0.0805
2.944,-0.0906
2.945,-0.0893
2.946,-0.0757
2.947,-0.0739
2.948,-0.0821
2.949,-0.0865
2.95,-0.0798
2.951,-0.0787
2.952,-0.0754
2.953,-0.0745
2.954,-0.0754
2.955,-0.0662
2.956,-0.0774
2.957,-0.0818
2.958,-0.0803
2.959,-0.0843
2.96,-0.0783
2.961,-0.068
2.962,-0.0748
2.963,-0.0563
2.964,-0.0538
2.965,-0.0609
2.966,-0.0896
2.967,-0.1014
2.968,-0.0979
2.969,-0.0948
2.97,-0.0918
2.971,-0.0997
2.972,-0.1021
2.973,-0.0955
2.974,-0.0854
2.975,-0.0909
2.976,-0.0827
2.977,-0.0812
2.978,-0.0825
2.979,-0.0765
2.98,-0.0843
2.981,-0.0935
2.982,-0.0875
2.983,-0.0796
2.984,-0.0865
2.985,-0.095
2.986,-0.0961
2.987,-0.097
2.988,-0.0979
2.989,-0.1003
2.99,-0.0887
2.991,-0.0772
2.992,-0.0876
2.993,-0.0836
2.994,-0.0724
2.995,-0.068
2.996,-0.0831
2.997,-0.073
2.998,-0.0858
2.999,-0.0809
3,-0.0913
3.001,-0.09
3.002,-0.0816
3.003,-0.0873
3.004,-0.0761
3.005,-0.0746
3.006,-0.0679
3.007,-0.0739
3.008,-0.0772
3.009,-0.0898
3.01,-0.0968
3.011,-0.0847
3.012,-0.0664
3.013,-0.0593
3.014,-0.0615
3.015,-0.0675
3.016,-0.0474
3.017,-0.0499
3.018,-0.0571
3.019,-0.0724
3.02,-0.0865
3.021,-0.092
3.022,-0.107
3.023,-0.1091
3.024,-0.1182
3.025,-0.11
3.026,-0.0964
3.027,-0.0946
3.028,-0.0929
3.029,-0.0825
3.03,-0.0757
3.031,-0.0818
3.032,-0.0942
3.033,-0.1058
3.034,-0.0953
3.035,-0.0966
3.036,-0.0831
3.037,-0.0776
3.038,-0.0792
3.039,-0.0867
3.04,-0.0907
3.041,-0.0823
3.042,-0.079
3.043,-0.082
3.044,-0.0792
3.045,-0.0799
3.046,-0.0792
3.047,-0.069
3.048,-0.0704
3.049,-0.0745
3.05,-0.0734
3.051,-0.0812
3.052,-0.0862
3.053,-0.0853
3.054,-0.0845
3.055,-0.0776
3.056,-0.0785
3.057,-0.0825
3.058,-0.0818
3.059,-0.0812
3.06,-0.084
3.061,-0.0809
3.062,-0.0724
3.063,-0.0589
3.064,-0.0387
3.065,-0.0521
3.066,-0.069
3.067,-0.0799
3.068,-0.0981
3.069,-0.1005
3.07,-0.1027
3.071,-0.0966
3.072,-0.0948
3.073,-0.0931
3.074,-0.0887
3.075,-0.0847
3.076,-0.0836
3.077,-0.0825
3.078,-0.0875
3.079,-0.092
3.08,-0.0928
3.081,-0.0827
3.082,-0.084
3.083,-0.0851
3.084,-0.0884
3.085,-0.0772
3.086,-0.0668
3.087,-0.0735
3.088,-0.077
3.089,-0.0849
3.09,-0.0757
3.091,-0.0792
3.092,-0.0849
3.093,-0.0898
3.094,-0.0907
3.095,-0.0931
3.096,-0.0862
3.097,-0.0798
3.098,-0.0838
3.099,-0.0754
3.1,-0.0787
3.101,-0.0878
3.102,-0.0962
3.103,-0.0884
3.104,-0.0792
3.105,-0.0757
3.106,-0.086
3.107,-0.09
3.108,-0.0715
3.109,-0.0794
3.11,-0.0723
3.111,-0.0664
3.112,-0.0774
3.113,-0.0754
3.114,-0.0552
3.115,-0.0631
3.116,-0.0702
3.117,-0.0902
3.118,-0.0981
3.119,-0.1005
3.12,-0.0939
3.121,-0.0878
3.122,-0.086
3.123,-0.0876
3.124,-0.0862
3.125,-0.0929
3.126,-0.099
3.127,-0.0911
3.128,-0.0842
3.129,-0.0906
3.13,-0.0814
3.131,-0.0754
3.132,-0.0765
3.133,-0.0756
3.134,-0.0783
3.135,-0.0858
3.136,-0.0867
3.137,-0.084
3.138,-0.0765
3.139,-0.0814
3.14,-0.0953
3.141,-0.0853
3.142,-0.0907
3.143,-0.0891
3.144,-0.0906
3.145,-0.0865
3.146,-0.0781
3.147,-0.0748
3.148,-0.084
3.149,-0.0704
3.15,-0.0796
3.151,-0.0946
3.152,-0.0926
3.153,-0.0871
3.154,-0.0788
3.155,-0.0832
3.156,-0.0737
3.157,-0.0726
3.158,-0.0715
3.159,-0.0847
3.16,-0.0865
3.161,-0.0882
3.162,-0.0818
3.163,-0.0774
3.164,-0.0679
3.165,-0.0567
3.166,-0.0552
3.167,-0.0457
3.168,-0.0569
3.169,-0.0794
3.17,-0.1019
3.171,-0.099
3.172,-0.0964
3.173,-0.0988
3.174,-0.0922
3.175,-0.0902
3.176,-0.0884
3.177,-0.0834
3.178,-0.0759
3.179,-0.0882
3.18,-0.0898
3.181,-0.0973
3.182,-0.0933
3.183,-0.0922
3.184,-0.0933
3.185,-0.0962
3.186,-0.0898
3.187,-0.0891
3.188,-0.0821
3.189,-0.0867
3.19,-0.0875
3.191,-0.0836
3.192,-0.0854
3.193,-0.0823
3.194,-0.0886
3.195,-0.0761
3.196,-0.0669
3.197,-0.0686
3.198,-0.0701
3.199,-0.0713
3.2,-0.0898
3.201,-0.0977
3.202,-0.0953
3.203,-0.0887
3.204,-0.0787
3.205,-0.0805
3.206,-0.0756
3.207,-0.077
3.208,-0.0865
3.209,-0.0831
3.21,-0.0752
3.211,-0.0781
3.212,-0.0865
3.213,-0.0906
3.214,-0.0781
3.215,-0.0765
3.216,-0.066
3.217,-0.062
3.218,-0.0631
3.219,-0.0688
3.22,-0.0536
3.221,-0.0602
3.222,-0.0783
3.223,-0.0807
3.224,-0.1006
3.225,-0.1193
3.226,-0.1025
3.227,-0.1003
3.228,-0.1023
3.229,-0.0931
3.23,-0.0981
3.231,-0.0966
3.232,-0.0926
3.233,-0.0814
3.234,-0.0858
3.235,-0.0818
3.236,-0.0757
3.237,-0.086
3.238,-0.09
3.239,-0.0889
3.24,-0.1037
3.241,-0.0977
3.242,-0.0922
3.243,-0.0873
3.244,-0.0798
3.245,-0.0675
3.246,-0.0626
3.247,-0.0611
3.248,-0.0788
3.249,-0.1008
3.25,-0.0979
3.251,-0.09
3.252,-0.0732
3.253,-0.0842
3.254,-0.0781
3.255,-0.0726
3.256,-0.0776
3.257,-0.0761
3.258,-0.0748
3.259,-0.0737
3.26,-0.0816
3.261,-0.0724
3.262,-0.0735
3.263,-0.0814
3.264,-0.0928
3.265,-0.0816
3.266,-0.062
3.267,-0.0699
3.268,-0.0627
3.269,-0.0649
3.27,-0.0669
3.271,-0.0615
3.272,-0.0664
3.273,-0.0799
3.274,-0.0928
3.275,-0.0911
3.276,-0.1076
3.277,-0.101
3.278,-0.099
3.279,-0.1045
3.28,-0.0995
3.281,-0.086
3.282,-0.0842
3.283,-0.0891
3.284,-0.0935
3.285,-0.1003
3.286,-0.1087
3.287,-0.0984
3.288,-0.0997
3.289,-0.0836
3.29,-0.0726
3.291,-0.0827
3.292,-0.0772
3.293,-0.0788
3.294,-0.0803
3.295,-0.0898
3.296,-0.0814
3.297,-0.0781
3.298,-0.0772
3.299,-0.0745
3.3,-0.0653
3.301,-0.0688
3.302,-0.0745
3.303,-0.0876
3.304,-0.1005
3.305,-0.1021
3.306,-0.0796
3.307,-0.0765
3.308,-0.0794
3.309,-0.0928
3.31,-0.0904
3.311,-0.0926
3.312,-0.0865
3.313,-0.0774
3.314,-0.0658
3.315,-0.0796
3.316,-0.081
3.317,-0.0688
3.318,-0.0472
3.319,-0.0442
3.32,-0.0576
3.321,-0.0796
3.322,-0.0825
3.323,-0.0904
3.324,-0.0928
3.325,-0.095
3.326,-0.0929
3.327,-0.0875
3.328,-0.0924
3.329,-0.0909
3.33,-0.0922
3.331,-0.0887
3.332,-0.0898
3.333,-0.0766
3.334,-0.0712
3.335,-0.0794
3.336,-0.0959
3.337,-0.0981
3.338,-0.092
3.339,-0.0829
3.34,-0.0878
3.341,-0.0834
3.342,-0.0875
3.343,-0.0886
3.344,-0.0853
3.345,-0.0803
3.346,-0.0812
3.347,-0.0772
3.348,-0.075
3.349,-0.0768
3.35,-0.0724
3.351,-0.0719
3.352,-0.0752
3.353,-0.0765
3.354,-0.0776
3.355,-0.0832
3.356,-0.0809
3.357,-0.0801
3.358,-0.0712
3.359,-0.0701
3.36,-0.0757
3.361,-0.0807
3.362,-0.0779
3.363,-0.0756
3.364,-0.0777
3.365,-0.0796
3.366,-0.0862
3.367,-0.0931
3.368,-0.0792
3.369,-0.0772
3.37,-0.0717
3.371,-0.0534
3.372,-0.0655
3.373,-0.0809
3.374,-0.095
3.375,-0.1041
3.376,-0.1058
3.377,-0.0922
3.378,-0.0831
3.379,-0.0781
3.38,-0.0825
3.381,-0.0865
3.382,-0.1027
3.383,-0.1005
3.384,-0.0944
3.385,-0.0889
3.386,-0.0873
3.387,-0.0829
3.388,-0.0842
3.389,-0.0831
3.39,-0.0842
3.391,-0.0891
3.392,-0.0937
3.393,-0.0913
3.394,-0.0891
3.395,-0.0909
3.396,-0.0878
3.397,-0.0851
3.398,-0.0776
3.399,-0.0697
3.4,-0.0746
3.401,-0.0831
3.402,-0.0864
3.403,-0.0933
3.404,-0.0906
3.405,-0.0798
3.406,-0.0902
3.407,-0.0862
3.408,-0.0777
3.409,-0.081
3.41,-0.0801
3.411,-0.0792
3.412,-0.0832
3.413,-0.081
3.414,-0.0805
3.415,-0.0836
3.416,-0.0798
3.417,-0.0774
3.418,-0.0741
3.419,-0.0671
3.42,-0.0701
3.421,-0.0561
3.422,-0.0541
3.423,-0.0669
3.424,-0.0752
3.425,-0.0796
3.426,-0.0836
3.427,-0.092
3.428,-0.1091
3.429,-0.1067
3.43,-0.1001
3.431,-0.1061
3.432,-0.086
3.433,-0.0781
3.434,-0.0902
3.435,-0.0924
3.436,-0.0904
3.437,-0.0849
3.438,-0.0865
3.439,-0.088
3.44,-0.084
3.441,-0.0924
3.442,-0.0891
3.443,-0.0779
3.444,-0.0704
3.445,-0.0745
3.446,-0.071
3.447,-0.0677
3.448,-0.0706
3.449,-0.0622
3.45,-0.0543
3.451,-0.0391
3.452,-0.0325
3.453,-0.0386
3.454,-0.0294
3.455,-0.0344
3.456,-0.0387
3.457,-0.0565
3.458,-0.0734
3.459,-0.0933
3.46,-0.1067
3.461,-0.0995
3.462,-0.1239
3.463,-0.1532
3.464,-0.1728
3.465,-0.1977
3.466,-0.2072
3.467,-0.2279
3.468,-0.21
3.469,-0.2125
3.47,-0.2294
3.471,-0.2625
3.472,-0.2482
3.473,-0.261
3.474,-0.2493
3.475,-0.2387
3.476,-0.19
3.477,-0.1411
3.478,-0.1349
3.479,-0.1177
3.48,-0.0704
3.481,-0.0005
3.482,0.0462
3.483,0.0546
3.484,0.0777
3.485,0.1266
3.486,0.1709
3.487,0.2229
3.488,0.2438
3.489,0.2376
3.49,0.2203
3.491,0.2048
3.492,0.1618
3.493,0.1445
3.494,0.1497
3.495,0.1354
3.496,0.0878
3.497,0.0435
3.498,0.0263
3.499,0.0001
3.5,-0.0047
3.501,-0.0089
3.502,-0.0444
3.503,-0.0875
3.504,-0.1277
3.505,-0.1854
3.506,-0.1931
3.507,-0.2281
3.508,-0.2724
3.509,-0.2896
3.51,-0.2845
3.511,-0.2607
3.512,-0.2649
3.513,-0.2766
3.514,-0.2872
3.515,-0.2711
3.516,-0.2563
3.517,-0.2484
3.518,-0.246
3.519,-0.24
3.52,-0.2246
3.521,-0.2186
3.522,-0.1984
3.523,-0.1581
3.524,-0.1178
3.525,-0.1023
3.526,-0.107
3.527,-0.1028
3.528,-0.0911
3.529,-0.0805
3.53,-0.058
3.531,-0.055
3.532,-0.0576
3.533,-0.0505
3.534,-0.0395
3.535,-0.0375
3.536,-0.0393
3.537,-0.0278
3.538,-0.0292
3.539,-0.0387
3.54,-0.0499
3.541,-0.0574
3.542,-0.0534
3.543,-0.0569
3.544,-0.0558
3.545,-0.0567
3.546,-0.0558
3.547,-0.0598
3.548,-0.0651
3.549,-0.0657
3.55,-0.0587
3.551,-0.0578
3.552,-0.0686
3.553,-0.0671
3.554,-0.0684
3.555,-0.0649
3.556,-0.0616
3.557,-0.0686
3.558,-0.0732
3.559,-0.0739
3.56,-0.0761
3.561,-0.0715
3.562,-0.0646
3.563,-0.0748
3.564,-0.0788
3.565,-0.0799
3.566,-0.0743
3.567,-0.0734
3.568,-0.0669
3.569,-0.0745
3.57,-0.0788
3.571,-0.088
3.572,-0.0891
3.573,-0.0812
3.574,-0.0821
3.575,-0.0867
3.576,-0.0924
3.577,-0.0809
3.578,-0.0693
3.579,-0.0649
3.58,-0.0745
3.581,-0.0779
3.582,-0.0768
3.583,-0.0616
3.584,-0.0682
3.585,-0.0823
3.586,-0.0915
3.587,-0.0931
3.588,-0.0975
3.589,-0.0907
3.59,-0.0918
3.591,-0.0929
3.592,-0.092
3.593,-0.0781
3.594,-0.0842
3.595,-0.0896
3.596,-0.0946
3.597,-0.1021
3.598,-0.0981
3.599,-0.0992
3.6,-0.0959
3.601,-0.0827
3.602,-0.0772
3.603,-0.0788
3.604,-0.0832
3.605,-0.0873
3.606,-0.0737
3.607,-0.0646
3.608,-0.0728
3.609,-0.0803
3.61,-0.1008
3.611,-0.0979
3.612,-0.0845
3.613,-0.0821
3.614,-0.0799
3.615,-0.0739
3.616,-0.0684
3.617,-0.0734
3.618,-0.0719
3.619,-0.0787
3.62,-0.0922
3.621,-0.0832
3.622,-0.0851
3.623,-0.0701
3.624,-0.068
3.625,-0.0552
3.626,-0.0569
3.627,-0.0734
3.628,-0.0799
3.629,-0.082
3.63,-0.0875
3.631,-0.0891
3.632,-0.0935
3.633,-0.0895
3.634,-0.0834
3.635,-0.0867
3.636,-0.0917
3.637,-0.0926
3.638,-0.0886
3.639,-0.0847
3.64,-0.0893
3.641,-0.0937
3.642,-0.0886
3.643,-0.081
3.644,-0.082
3.645,-0.0792
3.646,-0.09
3.647,-0.0944
3.648,-0.0876
3.649,-0.0865
3.65,-0.0876
3.651,-0.0867
3.652,-0.0803
3.653,-0.0779
3.654,-0.0818
3.655,-0.0836
3.656,-0.0792
3.657,-0.0719
3.658,-0.0788
3.659,-0.0779
3.66,-0.0739
3.661,-0.0792
3.662,-0.0787
3.663,-0.0768
3.664,-0.0741
3.665,-0.0774
3.666,-0.0843
3.667,-0.0893
3.668,-0.0847
3.669,-0.0807
3.67,-0.086
3.671,-0.0842
3.672,-0.0796
3.673,-0.0814
3.674,-0.073
3.675,-0.0646
3.676,-0.0679
3.677,-0.0649
3.678,-0.0622
3.679,-0.0746
3.68,-0.0875
3.681,-0.0924
3.682,-0.0939
3.683,-0.0898
3.684,-0.0887
3.685,-0.0944
3.686,-0.0935
3.687,-0.0926
3.688,-0.0933
3.689,-0.0895
3.69,-0.0913
3.691,-0.0995
3.692,-0.0984
3.693,-0.0975
3.694,-0.1003
3.695,-0.0878
3.696,-0.086
3.697,-0.0745
3.698,-0.082
3.699,-0.0752
3.7,-0.0717
3.701,-0.0796
3.702,-0.0845
3.703,-0.0929
3.704,-0.0986
3.705,-0.0834
3.706,-0.0768
3.707,-0.0748
3.708,-0.0693
3.709,-0.0776
3.71,-0.088
3.711,-0.0867
3.712,-0.0756
3.713,-0.0741
3.714,-0.0781
3.715,-0.077
3.716,-0.0873
3.717,-0.0805
3.718,-0.0816
3.719,-0.0873
3.72,-0.0882
3.721,-0.0909
3.722,-0.1001
3.723,-0.0957
3.724,-0.0772
3.725,-0.053
3.726,-0.0561
3.727,-0.0649
3.728,-0.0571
3.729,-0.0594
3.73,-0.0748
3.731,-0.0849
3.732,-0.0867
3.733,-0.0917
3.734,-0.1021
3.735,-0.1144
3.736,-0.0994
3.737,-0.0893
3.738,-0.0875
3.739,-0.0891
3.74,-0.0876
3.741,-0.0889
3.742,-0.09
3.743,-0.0911
3.744,-0.0862
3.745,-0.0798
3.746,-0.0838
3.747,-0.086
3.748,-0.0842
3.749,-0.0836
3.75,-0.0853
3.751,-0.0829
3.752,-0.0777
3.753,-0.0772
3.754,-0.0777
3.755,-0.0794
3.756,-0.0761
3.757,-0.0748
3.758,-0.0745
3.759,-0.0787
3.76,-0.077
3.761,-0.0783
3.762,-0.0814
3.763,-0.0787
3.764,-0.0843
3.765,-0.082
3.766,-0.0766
3.767,-0.0829
3.768,-0.0853
3.769,-0.0737
3.77,-0.0721
3.771,-0.0677
3.772,-0.0745
3.773,-0.0779
3.774,-0.0818
3.775,-0.0851
3.776,-0.0801
3.777,-0.0662
3.778,-0.0602
3.779,-0.051
3.78,-0.0527
3.781,-0.0723
3.782,-0.0801
3.783,-0.0922
3.784,-0.0988
3.785,-0.0847
3.786,-0.0865
3.787,-0.0849
3.788,-0.0953
3.789,-0.1048
3.79,-0.0988
3.791,-0.0909
3.792,-0.086
3.793,-0.0796
3.794,-0.0788
3.795,-0.0842
3.796,-0.0836
3.797,-0.0893
3.798,-0.0915
3.799,-0.0853
3.8,-0.0829
3.801,-0.0807
3.802,-0.0801
3.803,-0.0807
3.804,-0.0723
3.805,-0.0638
3.806,-0.0741
3.807,-0.0836
3.808,-0.1021
3.809,-0.0942
3.81,-0.0918
3.811,-0.0896
3.812,-0.0836
3.813,-0.0818
3.814,-0.0768
3.815,-0.0754
3.816,-0.0766
3.817,-0.0801
3.818,-0.088
3.819,-0.0909
3.82,-0.0918
3.821,-0.0827
3.822,-0.0743
3.823,-0.064
3.824,-0.0627
3.825,-0.0876
3.826,-0.0887
3.827,-0.0854
3.828,-0.0845
3.829,-0.0706
3.83,-0.0646
3.831,-0.0481
3.832,-0.0635
3.833,-0.0816
3.834,-0.0984
3.835,-0.0918
3.836,-0.0898
3.837,-0.0953
3.838,-0.1036
3.839,-0.108
3.84,-0.1092
3.841,-0.1032
3.842,-0.0907
3.843,-0.0924
3.844,-0.0968
3.845,-0.0873
3.846,-0.0884
3.847,-0.0851
3.848,-0.0821
3.849,-0.0776
3.85,-0.0701
3.851,-0.0812
3.852,-0.0887
3.853,-0.0875
3.854,-0.0864
3.855,-0.0785
3.856,-0.0776
3.857,-0.0821
3.858,-0.0829
3.859,-0.0867
3.86,-0.0765
3.861,-0.0779
3.862,-0.0792
3.863,-0.0803
3.864,-0.0836
3.865,-0.0827
3.866,-0.0763
3.867,-0.0723
3.868,-0.0838
3.869,-0.0887
3.87,-0.0843
3.871,-0.0776
3.872,-0.0836
3.873,-0.0847
3.874,-0.0876
3.875,-0.0979
3.876,-0.0979
3.877,-0.0884
3.878,-0.0699
3.879,-0.062
3.88,-0.0549
3.881,-0.0395
3.882,-0.0495
3.883,-0.0697
3.884,-0.0884
3.885,-0.0955
3.886,-0.1065
3.887,-0.0964
3.888,-0.0946
3.889,-0.0864
3.89,-0.0759
3.891,-0.0909
3.892,-0.097
3.893,-0.1061
3.894,-0.1012
3.895,-0.0907
3.896,-0.0785
3.897,-0.0801
3.898,-0.0757
3.899,-0.0717
3.9,-0.0853
3.901,-0.0834
3.902,-0.0917
3.903,-0.0902
3.904,-0.097
3.905,-0.0858
3.906,-0.0843
3.907,-0.0911
3.908,-0.09
3.909,-0.0776
3.91,-0.0693
3.911,-0.0798
3.912,-0.0785
3.913,-0.082
3.914,-0.0898
3.915,-0.0907
3.916,-0.0805
3.917,-0.0765
3.918,-0.073
3.919,-0.0809
3.92,-0.0858
3.921,-0.0831
3.922,-0.0807
3.923,-0.0785
3.924,-0.0752
3.925,-0.077
3.926,-0.0787
3.927,-0.0774
3.928,-0.0807
3.929,-0.0737
3.93,-0.0708
3.931,-0.081
3.932,-0.0605
3.933,-0.0576
3.934,-0.0763
3.935,-0.0884
3.936,-0.0818
3.937,-0.0798
3.938,-0.0853
3.939,-0.0902
3.94,-0.1098
3.941,-0.1124
3.942,-0.1147
3.943,-0.0948
3.944,-0.0922
3.945,-0.0801
3.946,-0.0735
3.947,-0.0756
3.948,-0.092
3.949,-0.103
3.95,-0.0929
3.951,-0.0765
3.952,-0.0787
3.953,-0.0847
3.954,-0.0902
3.955,-0.0886
3.956,-0.09
3.957,-0.0777
3.958,-0.0728
3.959,-0.0743
3.96,-0.0838
3.961,-0.0873
3.962,-0.0816
3.963,-0.0787
3.964,-0.0814
3.965,-0.0906
3.966,-0.0895
3.967,-0.0792
3.968,-0.0805
3.969,-0.0745
3.97,-0.0756
3.971,-0.0765
3.972,-0.081
3.973,-0.0935
3.974,-0.088
3.975,-0.0765
3.976,-0.0721
3.977,-0.0734
3.978,-0.0723
3.979,-0.0834
3.98,-0.0669
3.981,-0.0516
3.982,-0.0616
3.983,-0.0561
3.984,-0.0745
3.985,-0.0816
3.986,-0.0882
3.987,-0.0862
3.988,-0.0917
3.989,-0.09
3.99,-0.1036
3.991,-0.1054
3.992,-0.1103
3.993,-0.1059
3.994,-0.0909
3.995,-0.0889
3.996,-0.0871
3.997,-0.0887
3.998,-0.0902
3.999,-0.0834
4,-0.0845
4.001,-0.0743
4.002,-0.073
4.003,-0.0814
4.004,-0.0984
4.005,-0.0864
4.006,-0.0754
4.007,-0.0774
4.008,-0.0829
4.009,-0.0746
4.01,-0.0761
4.011,-0.0774
4.012,-0.0858
4.013,-0.0869
4.014,-0.0898
4.015,-0.0853
4.016,-0.0796
4.017,-0.0803
4.018,-0.0809
4.019,-0.079
4.02,-0.0807
4.021,-0.082
4.022,-0.0788
4.023,-0.0777
4.024,-0.0752
4.025,-0.0763
4.026,-0.079
4.027,-0.0756
4.028,-0.0816
4.029,-0.0803
4.03,-0.0796
4.031,-0.0774
4.032,-0.0728
4.033,-0.0671
4.034,-0.0556
4.035,-0.034
4.036,-0.0666
4.037,-0.0882
4.038,-0.0999
4.039,-0.1105
4.04,-0.1074
4.041,-0.0986
4.042,-0.1012
4.043,-0.1036
4.044,-0.1146
4.045,-0.1166
4.046,-0.1001
4.047,-0.0891
4.048,-0.0831
4.049,-0.0849
4.05,-0.0799
4.051,-0.0785
4.052,-0.0825
4.053,-0.0814
4.054,-0.0781
4.055,-0.0712
4.056,-0.0684
4.057,-0.0724
4.058,-0.0746
4.059,-0.0792
4.06,-0.0787
4.061,-0.0781
4.062,-0.0735
4.063,-0.0766
4.064,-0.0805
4.065,-0.0792
4.066,-0.0761
4.067,-0.0699
4.068,-0.0783
4.069,-0.0862
4.07,-0.0891
4.071,-0.0882
4.072,-0.0842
4.073,-0.0911
4.074,-0.0827
4.075,-0.0724
4.076,-0.0765
4.077,-0.0754
4.078,-0.0902
4.079,-0.0962
4.08,-0.0979
4.081,-0.0997
4.082,-0.0847
4.083,-0.0706
4.084,-0.0505
4.085,-0.0426
4.086,-0.0497
4.087,-0.0785
4.088,-0.0823
4.089,-0.0858
4.09,-0.1019
4.091,-0.1048
4.092,-0.1023
4.093,-0.0999
4.094,-0.0977
4.095,-0.0876
4.096,-0.0858
4.097,-0.0875
4.098,-0.086
4.099,-0.0847
4.1,-0.0907
4.101,-0.0851
4.102,-0.086
4.103,-0.0776
4.104,-0.0832
4.105,-0.0823
4.106,-0.0832
4.107,-0.0776
4.108,-0.0829
4.109,-0.0823
4.11,-0.0754
4.111,-0.0763
4.112,-0.0803
4.113,-0.0796
4.114,-0.0777
4.115,-0.0873
4.116,-0.086
4.117,-0.0972
4.118,-0.0867
4.119,-0.0827
4.12,-0.0862
4.121,-0.0829
4.122,-0.0779
4.123,-0.0807
4.124,-0.0831
4.125,-0.0761
4.126,-0.0752
4.127,-0.0745
4.128,-0.0706
4.129,-0.0712
4.13,-0.0768
4.131,-0.0818
4.132,-0.0918
4.133,-0.0851
4.134,-0.0766
4.135,-0.0596
4.136,-0.062
4.137,-0.073
4.138,-0.075
4.139,-0.0878
4.14,-0.0928
4.141,-0.1032
4.142,-0.0937
4.143,-0.0825
4.144,-0.0869
4.145,-0.0856
4.146,-0.0917
4.147,-0.0995
4.148,-0.1045
4.149,-0.0906
4.15,-0.0845
4.151,-0.0827
4.152,-0.0843
4.153,-0.0887
4.154,-0.082
4.155,-0.0831
4.156,-0.0842
4.157,-0.0812
4.158,-0.0785
4.159,-0.071
4.16,-0.064
4.161,-0.0649
4.162,-0.0774
4.163,-0.0939
4.164,-0.1005
4.165,-0.0944
4.166,-0.0889
4.167,-0.0873
4.168,-0.0858
4.169,-0.0871
4.17,-0.0836
4.171,-0.0779
4.172,-0.073
4.173,-0.0776
4.174,-0.0832
4.175,-0.0779
4.176,-0.0812
4.177,-0.0743
4.178,-0.0752
4.179,-0.0792
4.18,-0.0845
4.181,-0.0783
4.182,-0.073
4.183,-0.0854
4.184,-0.0763
4.185,-0.0713
4.186,-0.0517
4.187,-0.0439
4.188,-0.0658
4.189,-0.0807
4.19,-0.0886
4.191,-0.1006
4.192,-0.1028
4.193,-0.0887
4.194,-0.0906
4.195,-0.0856
4.196,-0.0931
4.197,-0.0918
4.198,-0.0979
4.199,-0.099
4.2,-0.092
4.201,-0.0911
4.202,-0.0871
4.203,-0.0818
4.204,-0.0812
4.205,-0.0831
4.206,-0.0893
4.207,-0.0818
4.208,-0.0748
4.209,-0.0757
4.21,-0.0849
4.211,-0.0884
4.212,-0.0917
4.213,-0.0847
4.214,-0.082
4.215,-0.0745
4.216,-0.0774
4.217,-0.0765
4.218,-0.0788
4.219,-0.0781
4.22,-0.0884
4.221,-0.0869
4.222,-0.0882
4.223,-0.0871
4.224,-0.0792
4.225,-0.0743
4.226,-0.0734
4.227,-0.079
4.228,-0.0891
4.229,-0.0904
4.23,-0.082
4.231,-0.0809
4.232,-0.0878
4.233,-0.0884
4.234,-0.0929
4.235,-0.0805
4.236,-0.0787
4.237,-0.0538
4.238,-0.0572
4.239,-0.0734
4.24,-0.0882
4.241,-0.0907
4.242,-0.0787
4.243,-0.0721
4.244,-0.0741
4.245,-0.0759
4.246,-0.0842
4.247,-0.0856
4.248,-0.0951
4.249,-0.1012
4.25,-0.1001
4.251,-0.0889
4.252,-0.0814
4.253,-0.0854
4.254,-0.082
4.255,-0.0898
4.256,-0.0948
4.257,-0.0845
4.258,-0.0805
4.259,-0.084
4.26,-0.0669
4.261,-0.0598
4.262,-0.0708
4.263,-0.0809
4.264,-0.09
4.265,-0.0818
4.266,-0.0774
4.267,-0.0814
4.268,-0.0779
4.269,-0.079
4.27,-0.084
4.271,-0.0849
4.272,-0.0889
4.273,-0.0851
4.274,-0.0832
4.275,-0.0851
4.276,-0.0878
4.277,-0.0865
4.278,-0.0823
4.279,-0.0829
4.28,-0.0805
4.281,-0.0836
4.282,-0.0774
4.283,-0.0746
4.284,-0.0766
4.285,-0.079
4.286,-0.0706
4.287,-0.0695
4.288,-0.0626
4.289,-0.071
4.29,-0.0743
4.291,-0.0673
4.292,-0.0571
4.293,-0.0638
4.294,-0.0823
4.295,-0.0957
4.296,-0.0981
4.297,-0.1047
4.298,-0.1027
4.299,-0.1045
4.3,-0.1061
4.301,-0.1076
4.302,-0.1063
4.303,-0.1003
4.304,-0.0946
4.305,-0.0975
4.306,-0.0891
4.307,-0.088
4.308,-0.0871
4.309,-0.0935
4.31,-0.0895
4.311,-0.081
4.312,-0.0754
4.313,-0.0622
4.314,-0.053
4.315,-0.0779
4.316,-0.0886
4.317,-0.0917
4.318,-0.0887
4.319,-0.0862
4.32,-0.079
4.321,-0.0724
4.322,-0.0785
4.323,-0.0766
4.324,-0.0849
4.325,-0.0805
4.326,-0.071
4.327,-0.077
4.328,-0.0803
4.329,-0.0832
4.33,-0.086
4.331,-0.0867
4.332,-0.0829
4.333,-0.0739
4.334,-0.0728
4.335,-0.0847
4.336,-0.0814
4.337,-0.0805
4.338,-0.0684
4.339,-0.0569
4.34,-0.0433
4.341,-0.0635
4.342,-0.0713
4.343,-0.0737
4.344,-0.0759
4.345,-0.086
4.346,-0.0915
4.347,-0.0997
4.348,-0.0983
4.349,-0.1078
4.35,-0.1138
4.351,-0.0968
4.352,-0.0651
4.353,-0.0609
4.354,-0.0492
4.355,-0.0386
4.356,-0.029
4.357,-0.0203
4.358,-0.0177
4.359,-0.0345
4.36,-0.0589
4.361,-0.0814
4.362,-0.0962
4.363,-0.0988
4.364,-0.1012
4.365,-0.1255
4.366,-0.1481
4.367,-0.1688
4.368,-0.2037
4.369,-0.2085
4.37,-0.2387
4.371,-0.2191
4.372,-0.2085
4.373,-0.2378
4.374,-0.2812
4.375,-0.2755
4.376,-0.3017
4.377,-0.2874
4.378,-0.2484
4.379,-0.2012
4.38,-0.1568
4.381,-0.1396
4.382,-0.1135
4.383,-0.0609
4.384,0.0162
4.385,0.0675
4.386,0.0757
4.387,0.085
4.388,0.1442
4.389,0.198
4.39,0.2751
4.391,0.2854
4.392,0.276
4.393,0.2676
4.394,0.2138
4.395,0.1649
4.396,0.146
4.397,0.1288
4.398,0.1132
4.399,0.0799
4.4,0.0497
4.401,0.0535
4.402,0.0286
4.403,0.0191
4.404,-0.0016
4.405,-0.0419
4.406,-0.0939
4.407,-0.1428
4.408,-0.1744
4.409,-0.2032
4.41,-0.2504
4.411,-0.2821
4.412,-0.2764
4.413,-0.2713
4.414,-0.2665
4.415,-0.2793
4.416,-0.3068
4.417,-0.3174
4.418,-0.2949
4.419,-0.2801
4.42,-0.2722
4.421,-0.2651
4.422,-0.2319
4.423,-0.2081
4.424,-0.2039
4.425,-0.1843
4.426,-0.1666
4.427,-0.1308
4.428,-0.107
4.429,-0.1113
4.43,-0.0995
4.431,-0.0889
4.432,-0.0664
4.433,-0.0338
4.434,-0.0466
4.435,-0.0662
4.436,-0.0627
4.437,-0.0569
4.438,-0.0474
4.439,-0.0267
4.44,-0.0241
4.441,-0.0217
4.442,-0.0151
4.443,-0.0091
4.444,-0.0256
4.445,-0.0543
4.446,-0.0582
4.447,-0.0616
4.448,-0.0585
4.449,-0.0615
4.45,-0.064
4.451,-0.0761
4.452,-0.0871
4.453,-0.0851
4.454,-0.0869
4.455,-0.0886
4.456,-0.081
4.457,-0.066
4.458,-0.064
4.459,-0.0585
4.46,-0.0668
4.461,-0.0772
4.462,-0.0867
4.463,-0.0856
4.464,-0.0889
4.465,-0.0757
4.466,-0.0702
4.467,-0.0719
4.468,-0.0704
4.469,-0.0717
4.47,-0.0801
4.471,-0.0745
4.472,-0.0695
4.473,-0.0686
4.474,-0.071
4.475,-0.0732
4.476,-0.0777
4.477,-0.0783
4.478,-0.0756
4.479,-0.0768
4.48,-0.0726
4.481,-0.081
4.482,-0.0821
4.483,-0.0673
4.484,-0.0734
4.485,-0.0788
4.486,-0.0772
4.487,-0.0968
4.488,-0.0935
4.489,-0.0909
4.49,-0.0741
4.491,-0.0719
4.492,-0.0699
4.493,-0.0644
4.494,-0.0594
4.495,-0.055
4.496,-0.0646
4.497,-0.0635
4.498,-0.0556
4.499,-0.0688
4.5,-0.056
4.501,-0.071
4.502,-0.0891
4.503,-0.1012
4.504,-0.1034
4.505,-0.1135
4.506,-0.1116
4.507,-0.1067
4.508,-0.1142
4.509,-0.1074
4.51,-0.099
4.511,-0.0933
4.512,-0.0904
4.513,-0.0988
4.514,-0.0955
4.515,-0.0946
4.516,-0.0918
4.517,-0.0794
4.518,-0.0776
4.519,-0.0759
4.52,-0.0745
4.521,-0.0785
4.522,-0.092
4.523,-0.0865
4.524,-0.0816
4.525,-0.062
4.526,-0.0646
4.527,-0.0766
4.528,-0.0832
4.529,-0.0933
4.53,-0.0805
4.531,-0.0723
4.532,-0.0737
4.533,-0.0724
4.534,-0.0836
4.535,-0.0761
4.536,-0.0721
4.537,-0.0781
4.538,-0.0884
4.539,-0.0891
4.54,-0.0878
4.541,-0.0743
4.542,-0.0541
4.543,-0.0463
4.544,-0.0583
4.545,-0.0827
4.546,-0.0858
4.547,-0.0829
4.548,-0.0803
4.549,-0.0875
4.55,-0.0896
4.551,-0.1037
4.552,-0.1019
4.553,-0.0904
4.554,-0.086
4.555,-0.082
4.556,-0.088
4.557,-0.0869
4.558,-0.0918
4.559,-0.0854
4.56,-0.073
4.561,-0.0858
4.562,-0.0776
4.563,-0.0761
4.564,-0.0856
4.565,-0.0821
4.566,-0.0832
4.567,-0.0823
4.568,-0.0796
4.569,-0.0836
4.57,-0.0906
4.571,-0.0933
4.572,-0.094
4.573,-0.0825
4.574,-0.071
4.575,-0.0785
4.576,-0.0825
4.577,-0.0886
4.578,-0.0896
4.579,-0.0867
4.58,-0.0803
4.581,-0.0779
4.582,-0.0772
4.583,-0.0754
4.584,-0.0697
4.585,-0.0704
4.586,-0.0807
4.587,-0.0851
4.588,-0.0891
4.589,-0.0951
4.59,-0.0788
4.591,-0.071
4.592,-0.0759
4.593,-0.0732
4.594,-0.0807
4.595,-0.0757
4.596,-0.0766
4.597,-0.0675
4.598,-0.0664
4.599,-0.0834
4.6,-0.0858
4.601,-0.0836
4.602,-0.0856
4.603,-0.0984
4.604,-0.0968
4.605,-0.0893
4.606,-0.088
4.607,-0.0768
4.608,-0.0904
4.609,-0.0995
4.61,-0.1078
4.611,-0.1092
4.612,-0.0942
4.613,-0.0842
4.614,-0.0823
4.615,-0.0807
4.616,-0.0792
4.617,-0.0805
4.618,-0.084
4.619,-0.0807
4.62,-0.0798
4.621,-0.0825
4.622,-0.0882
4.623,-0.092
4.624,-0.0887
4.625,-0.0792
4.626,-0.0752
4.627,-0.0836
4.628,-0.0803
4.629,-0.0812
4.63,-0.0803
4.631,-0.0878
4.632,-0.0829
4.633,-0.0783
4.634,-0.0858
4.635,-0.0867
4.636,-0.0803
4.637,-0.0779
4.638,-0.0741
4.639,-0.0735
4.64,-0.0831
4.641,-0.0906
4.642,-0.081
4.643,-0.0699
4.644,-0.0655
4.645,-0.0668
4.646,-0.0583
4.647,-0.0686
4.648,-0.0726
4.649,-0.0887
4.65,-0.0997
4.651,-0.1058
4.652,-0.1003
4.653,-0.1019
4.654,-0.0944
4.655,-0.0931
4.656,-0.0896
4.657,-0.084
4.658,-0.0831
4.659,-0.0858
4.66,-0.0834
4.661,-0.0734
4.662,-0.0693
4.663,-0.0728
4.664,-0.0831
4.665,-0.0981
4.666,-0.1041
4.667,-0.0913
4.668,-0.0831
4.669,-0.0726
4.67,-0.0658
4.671,-0.0669
4.672,-0.0748
4.673,-0.09
4.674,-0.0878
4.675,-0.0737
4.676,-0.0756
4.677,-0.0805
4.678,-0.0849
4.679,-0.0754
4.68,-0.0814
4.681,-0.0803
4.682,-0.0774
4.683,-0.0671
4.684,-0.0739
4.685,-0.075
4.686,-0.0739
4.687,-0.069
4.688,-0.0774
4.689,-0.0785
4.69,-0.0854
4.691,-0.0882
4.692,-0.0884
4.693,-0.086
4.694,-0.0745
4.695,-0.0561
4.696,-0.0441
4.697,-0.0594
4.698,-0.0896
4.699,-0.0939
4.7,-0.0821
4.701,-0.0856
4.702,-0.0887
4.703,-0.0917
4.704,-0.0995
4.705,-0.0972
4.706,-0.095
4.707,-0.0929
4.708,-0.0911
4.709,-0.0928
4.71,-0.0853
4.711,-0.084
4.712,-0.0779
4.713,-0.0768
4.714,-0.0798
4.715,-0.0752
4.716,-0.0876
4.717,-0.1005
4.718,-0.0922
4.719,-0.0787
4.72,-0.0842
4.721,-0.0891
4.722,-0.0876
4.723,-0.0809
4.724,-0.082
4.725,-0.0809
4.726,-0.0697
4.727,-0.0772
4.728,-0.0812
4.729,-0.0847
4.73,-0.0858
4.731,-0.0766
4.732,-0.0777
4.733,-0.088
4.734,-0.1003
4.735,-0.1019
4.736,-0.0944
4.737,-0.0821
4.738,-0.0805
4.739,-0.0761
4.74,-0.0721
4.741,-0.071
4.742,-0.0721
4.743,-0.0781
4.744,-0.0851
4.745,-0.0823
4.746,-0.0831
4.747,-0.0715
4.748,-0.0633
4.749,-0.0737
4.75,-0.0669
4.751,-0.0635
4.752,-0.0691
4.753,-0.0622
4.754,-0.0558
4.755,-0.0682
4.756,-0.0884
4.757,-0.0962
4.758,-0.1034
4.759,-0.1188
4.76,-0.1127
4.761,-0.1036
4.762,-0.1085
4.763,-0.101
4.764,-0.0942
4.765,-0.0858
4.766,-0.0891
4.767,-0.09
4.768,-0.0909
4.769,-0.1001
4.77,-0.084
4.771,-0.0818
4.772,-0.0757
4.773,-0.0739
4.774,-0.0756
4.775,-0.0799
4.776,-0.0895
4.777,-0.086
4.778,-0.0849
4.779,-0.0878
4.78,-0.0776
4.781,-0.0735
4.782,-0.082
4.783,-0.0809
4.784,-0.0858
4.785,-0.0831
4.786,-0.0739
4.787,-0.0704
4.788,-0.0737
4.789,-0.0766
4.79,-0.0664
4.791,-0.0814
4.792,-0.0875
4.793,-0.082
4.794,-0.0876
4.795,-0.086
4.796,-0.0756
4.797,-0.0796
4.798,-0.0831
4.799,-0.0909
4.8,-0.0918
4.801,-0.0928
4.802,-0.092
4.803,-0.082
4.804,-0.0752
4.805,-0.0591
4.806,-0.0613
4.807,-0.0713
4.808,-0.0805
4.809,-0.0655
4.81,-0.0554
4.811,-0.0463
4.812,-0.0679
4.813,-0.0886
4.814,-0.0964
4.815,-0.0988
4.816,-0.101
4.817,-0.103
4.818,-0.0975
4.819,-0.086
4.82,-0.0816
4.821,-0.0939
4.822,-0.0988
4.823,-0.0913
4.824,-0.09
4.825,-0.0911
4.826,-0.0922
4.827,-0.0893
4.828,-0.0829
4.829,-0.0737
4.83,-0.0653
4.831,-0.0756
4.832,-0.0768
4.833,-0.0829
4.834,-0.0953
4.835,-0.0904
4.836,-0.0979
4.837,-0.0911
4.838,-0.0851
4.839,-0.0726
4.84,-0.0776
4.841,-0.0761
4.842,-0.0801
4.843,-0.0836
4.844,-0.0869
4.845,-0.0854
4.846,-0.0825
4.847,-0.0686
4.848,-0.0626
4.849,-0.0497
4.85,-0.0448
4.851,-0.0613
4.852,-0.0812
4.853,-0.0891
4.854,-0.0962
4.855,-0.094
4.856,-0.088
4.857,-0.0972
4.858,-0.1054
4.859,-0.095
4.86,-0.0882
4.861,-0.0966
4.862,-0.0887
4.863,-0.0896
4.864,-0.0812
4.865,-0.0801
4.866,-0.0893
4.867,-0.0858
4.868,-0.0825
4.869,-0.0796
4.87,-0.075
4.871,-0.0726
4.872,-0.0779
4.873,-0.0882
4.874,-0.0867
4.875,-0.0745
4.876,-0.0794
4.877,-0.0959
4.878,-0.0981
4.879,-0.088
4.88,-0.0862
4.881,-0.0812
4.882,-0.0737
4.883,-0.0724
4.884,-0.0809
4.885,-0.0752
4.886,-0.0801
4.887,-0.094
4.888,-0.092
4.889,-0.0829
4.89,-0.0713
4.891,-0.0699
4.892,-0.0794
4.893,-0.0878
4.894,-0.0957
4.895,-0.0928
4.896,-0.0869
4.897,-0.0748
4.898,-0.0532
4.899,-0.0503
4.9,-0.0528
4.901,-0.06
4.902,-0.0622
4.903,-0.0884
4.904,-0.0918
4.905,-0.1014
4.906,-0.0984
4.907,-0.1063
4.908,-0.0992
4.909,-0.0882
4.91,-0.0862
4.911,-0.077
4.912,-0.0721
4.913,-0.0856
4.914,-0.0765
4.915,-0.088
4.916,-0.0984
4.917,-0.0917
4.918,-0.1001
4.919,-0.0922
4.92,-0.0913
4.921,-0.0867
4.922,-0.081
4.923,-0.0788
4.924,-0.0794
4.925,-0.0763
4.926,-0.0847
4.927,-0.0763
4.928,-0.0774
4.929,-0.0823
4.93,-0.0796
4.931,-0.082
4.932,-0.075
4.933,-0.0741
4.934,-0.0701
4.935,-0.0723
4.936,-0.0825
4.937,-0.09
4.938,-0.094
4.939,-0.0856
4.94,-0.0867
4.941,-0.0876
4.942,-0.0831
4.943,-0.0871
4.944,-0.0832
4.945,-0.0851
4.946,-0.0845
4.947,-0.0766
4.948,-0.075
4.949,-0.0675
4.95,-0.0732
4.951,-0.064
4.952,-0.0455
4.953,-0.0481
4.954,-0.0649
4.955,-0.0849
4.956,-0.0928
4.957,-0.0904
4.958,-0.097
4.959,-0.103
4.96,-0.0902
4.961,-0.0918
4.962,-0.0933
4.963,-0.0973
4.964,-0.0984
4.965,-0.1063
4.966,-0.1014
4.967,-0.0929
4.968,-0.0827
4.969,-0.0814
4.97,-0.0875
4.971,-0.0818
4.972,-0.0809
4.973,-0.0799
4.974,-0.0792
4.975,-0.0862
4.976,-0.0798
4.977,-0.0774
4.978,-0.0735
4.979,-0.0838
4.98,-0.0823
4.981,-0.0783
4.982,-0.0748
4.983,-0.0759
4.984,-0.0829
4.985,-0.0765
4.986,-0.0788
4.987,-0.0842
4.988,-0.0847
4.989,-0.0816
4.99,-0.0788
4.991,-0.0821
4.992,-0.0818
4.993,-0.0798
4.994,-0.0832
4.995,-0.0864
4.996,-0.0926
4.997,-0.0898
4.998,-0.0825
4.999,-0.0717
5,-0.0613
5.001,-0.0435
5.002,-0.0556
5.003,-0.0756
5.004,-0.0622
5.005,-0.079
5.006,-0.0944
5.007,-0.1005
5.008,-0.1059
5.009,-0.0977
5.01,-0.0902
5.011,-0.097
5.012,-0.0858
5.013,-0.0814
5.014,-0.0854
5.015,-0.0939
5.016,-0.0906
5.017,-0.0955
5.018,-0.0964
5.019,-0.0972
5.02,-0.0856
5.021,-0.0774
5.022,-0.0788
5.023,-0.0748
5.024,-0.0737
5.025,-0.084
5.026,-0.0799
5.027,-0.0834
5.028,-0.0867
5.029,-0.0798
5.03,-0.0788
5.031,-0.0781
5.032,-0.0896
5.033,-0.0979
5.034,-0.0843
5.035,-0.0898
5.036,-0.0816
5.037,-0.0801
5.038,-0.0734
5.039,-0.0745
5.04,-0.0712
5.041,-0.0803
5.042,-0.0838
5.043,-0.0871
5.044,-0.088
5.045,-0.0853
5.046,-0.0777
5.047,-0.0768
5.048,-0.0777
5.049,-0.0752
5.05,-0.066
5.051,-0.0576
5.052,-0.0724
5.053,-0.0946
5.054,-0.0917
5.055,-0.073
5.056,-0.051
5.057,-0.0481
5.058,-0.0776
5.059,-0.0893
5.06,-0.0787
5.061,-0.0882
5.062,-0.0911
5.063,-0.1045
5.064,-0.1069
5.065,-0.0959
5.066,-0.1019
5.067,-0.1001
5.068,-0.0984
5.069,-0.097
5.07,-0.0875
5.071,-0.0864
5.072,-0.0853
5.073,-0.0823
5.074,-0.0832
5.075,-0.0825
5.076,-0.0772
5.077,-0.079
5.078,-0.0746
5.079,-0.0785
5.08,-0.086
5.081,-0.0939
5.082,-0.0847
5.083,-0.0735
5.084,-0.06
5.085,-0.0655
5.086,-0.0737
5.087,-0.0933
5.088,-0.1067
5.089,-0.0995
5.09,-0.0842
5.091,-0.0741
5.092,-0.0723
5.093,-0.0805
5.094,-0.0849
5.095,-0.0889
5.096,-0.09
5.097,-0.0798
5.098,-0.0757
5.099,-0.0746
5.1,-0.0745
5.101,-0.0823
5.102,-0.0691
5.103,-0.0673
5.104,-0.0558
5.105,-0.0572
5.106,-0.056
5.107,-0.0695
5.108,-0.0787
5.109,-0.0836
5.11,-0.094
5.111,-0.0953
5.112,-0.0893
5.113,-0.0814
5.114,-0.0864
5.115,-0.0799
5.116,-0.084
5.117,-0.0955
5.118,-0.0939
5.119,-0.1074
5.12,-0.1166
5.121,-0.1083
5.122,-0.0858
5.123,-0.0827
5.124,-0.0856
5.125,-0.0831
5.126,-0.0807
5.127,-0.0829
5.128,-0.0768
5.129,-0.0896
5.13,-0.0913
5.131,-0.0809
5.132,-0.0768
5.133,-0.0853
5.134,-0.0842
5.135,-0.0772
5.136,-0.0781
5.137,-0.0724
5.138,-0.0794
5.139,-0.0858
5.14,-0.0865
5.141,-0.0796
5.142,-0.0732
5.143,-0.084
5.144,-0.0825
5.145,-0.0812
5.146,-0.0801
5.147,-0.0768
5.148,-0.0818
5.149,-0.079
5.15,-0.075
5.151,-0.0803
5.152,-0.0873
5.153,-0.0734
5.154,-0.0834
5.155,-0.0596
5.156,-0.0435
5.157,-0.0642
5.158,-0.0776
5.159,-0.0847
5.16,-0.0869
5.161,-0.0889
5.162,-0.0871
5.163,-0.0953
5.164,-0.0997
5.165,-0.0929
5.166,-0.0869
5.167,-0.0902
5.168,-0.0911
5.169,-0.0884
5.17,-0.0924
5.171,-0.0946
5.172,-0.0871
5.173,-0.0801
5.174,-0.0717
5.175,-0.0774
5.176,-0.0765
5.177,-0.0774
5.178,-0.0766
5.179,-0.0713
5.18,-0.0759
5.181,-0.0803
5.182,-0.0798
5.183,-0.0765
5.184,-0.0704
5.185,-0.0812
5.186,-0.0856
5.187,-0.0951
5.188,-0.0962
5.189,-0.086
5.19,-0.0873
5.191,-0.0788
5.192,-0.0664
5.193,-0.0847
5.194,-0.1067
5.195,-0.1037
5.196,-0.0959
5.197,-0.0935
5.198,-0.0825
5.199,-0.0845
5.2,-0.0864
5.201,-0.0748
5.202,-0.0781
5.203,-0.0706
5.204,-0.0556
5.205,-0.0576
5.206,-0.0521
5.207,-0.0571
5.208,-0.0796
5.209,-0.0891
5.21,-0.0803
5.211,-0.0937
5.212,-0.0961
5.213,-0.0895
5.214,-0.0875
5.215,-0.1003
5.216,-0.0986
5.217,-0.0882
5.218,-0.0842
5.219,-0.0876
5.22,-0.082
5.221,-0.0972
5.222,-0.1037
5.223,-0.0977
5.224,-0.0812
5.225,-0.0878
5.226,-0.0858
5.227,-0.0803
5.228,-0.0918
5.229,-0.0875
5.23,-0.0862
5.231,-0.0827
5.232,-0.0816
5.233,-0.0845
5.234,-0.0706
5.235,-0.0726
5.236,-0.0708
5.237,-0.0757
5.238,-0.0832
5.239,-0.0765
5.24,-0.0799
5.241,-0.0856
5.242,-0.0765
5.243,-0.073
5.244,-0.0787
5.245,-0.0856
5.246,-0.081
5.247,-0.0803
5.248,-0.0781
5.249,-0.0735
5.25,-0.0779
5.251,-0.0785
5.252,-0.0818
5.253,-0.0979
5.254,-0.0975
5.255,-0.0913
5.256,-0.0774
5.257,-0.0633
5.258,-0.0615
5.259,-0.0598
5.26,-0.0673
5.261,-0.066
5.262,-0.0499
5.263,-0.0609
5.264,-0.0911
5.265,-0.1039
5.266,-0.0922
5.267,-0.0887
5.268,-0.0918
5.269,-0.077
5.27,-0.0691
5.271,-0.062
5.272,-0.051
5.273,-0.0369
5.274,-0.0424
5.275,-0.0441
5.276,-0.0516
5.277,-0.0638
5.278,-0.0754
5.279,-0.0858
5.28,-0.1063
5.281,-0.1211
5.282,-0.1025
5.283,-0.1244
5.284,-0.1631
5.285,-0.1682
5.286,-0.2015
5.287,-0.2143
5.288,-0.2182
5.289,-0.1933
5.29,-0.2028
5.291,-0.2354
5.292,-0.283
5.293,-0.3019
5.294,-0.3191
5.295,-0.2929
5.296,-0.2308
5.297,-0.1717
5.298,-0.1332
5.299,-0.1263
5.3,-0.0946
5.301,-0.0426
5.302,0.0345
5.303,0.0858
5.304,0.061
5.305,0.0891
5.306,0.1314
5.307,0.2008
5.308,0.2661
5.309,0.2914
5.31,0.2529
5.311,0.246
5.312,0.2017
5.313,0.1729
5.314,0.1467
5.315,0.142
5.316,0.1292
5.317,0.0936
5.318,0.0603
5.319,0.0561
5.32,0.0206
5.321,0.0063
5.322,-0.0239
5.323,-0.0831
5.324,-0.1254
5.325,-0.1484
5.326,-0.1834
5.327,-0.2023
5.328,-0.2425
5.329,-0.2792
5.33,-0.2744
5.331,-0.2702
5.332,-0.2585
5.333,-0.262
5.334,-0.2912
5.335,-0.2951
5.336,-0.2845
5.337,-0.275
5.338,-0.272
5.339,-0.2587
5.34,-0.2319
5.341,-0.2142
5.342,-0.2046
5.343,-0.1839
5.344,-0.1598
5.345,-0.1373
5.346,-0.1166
5.347,-0.114
5.348,-0.0972
5.349,-0.0862
5.35,-0.064
5.351,-0.0669
5.352,-0.0591
5.353,-0.0615
5.354,-0.0549
5.355,-0.0517
5.356,-0.0417
5.357,-0.0215
5.358,-0.019
5.359,-0.0166
5.36,-0.0144
5.361,-0.0164
5.362,-0.0439
5.363,-0.0556
5.364,-0.0662
5.365,-0.0631
5.366,-0.066
5.367,-0.0635
5.368,-0.0756
5.369,-0.0734
5.37,-0.0713
5.371,-0.0768
5.372,-0.0719
5.373,-0.0823
5.374,-0.0646
5.375,-0.0525
5.376,-0.0856
5.377,-0.0999
5.378,-0.0957
5.379,-0.0918
5.38,-0.0884
5.381,-0.0723
5.382,-0.0635
5.383,-0.0713
5.384,-0.0642
5.385,-0.0708
5.386,-0.0728
5.387,-0.0673
5.388,-0.0624
5.389,-0.0668
5.39,-0.06
5.391,-0.0712
5.392,-0.0876
5.393,-0.0766
5.394,-0.0787
5.395,-0.0768
5.396,-0.0686
5.397,-0.079
5.398,-0.0886
5.399,-0.0946
5.4,-0.0935
5.401,-0.0823
5.402,-0.0779
5.403,-0.0902
5.404,-0.0752
5.405,-0.0732
5.406,-0.081
5.407,-0.0792
5.408,-0.0576
5.409,-0.0428
5.41,-0.0453
5.411,-0.0574
5.412,-0.0774
5.413,-0.0907
5.414,-0.0979
5.415,-0.0957
5.416,-0.0896
5.417,-0.0915
5.418,-0.0931
5.419,-0.0887
5.42,-0.0847
5.421,-0.0858
5.422,-0.0869
5.423,-0.0961
5.424,-0.095
5.425,-0.0893
5.426,-0.0801
5.427,-0.0812
5.428,-0.0801
5.429,-0.081
5.43,-0.095
5.431,-0.0889
5.432,-0.0798
5.433,-0.0781
5.434,-0.0737
5.435,-0.0832
5.436,-0.0968
5.437,-0.095
5.438,-0.09
5.439,-0.0856
5.44,-0.0843
5.441,-0.0783
5.442,-0.075
5.443,-0.0779
5.444,-0.0788
5.445,-0.0913
5.446,-0.0785
5.447,-0.0669
5.448,-0.0655
5.449,-0.0695
5.45,-0.0779
5.451,-0.095
5.452,-0.0973
5.453,-0.0951
5.454,-0.0851
5.455,-0.0832
5.456,-0.0783
5.457,-0.084
5.458,-0.0884
5.459,-0.0734
5.46,-0.0794
5.461,-0.0666
5.462,-0.0583
5.463,-0.0627
5.464,-0.0723
5.465,-0.0858
5.466,-0.0876
5.467,-0.086
5.468,-0.0875
5.469,-0.0887
5.47,-0.0922
5.471,-0.0889
5.472,-0.0777
5.473,-0.0734
5.474,-0.0746
5.475,-0.0907
5.476,-0.1017
5.477,-0.0957
5.478,-0.0902
5.479,-0.0787
5.48,-0.0801
5.481,-0.0869
5.482,-0.0858
5.483,-0.0869
5.484,-0.0918
5.485,-0.0854
5.486,-0.0779
5.487,-0.071
5.488,-0.0794
5.489,-0.0873
5.49,-0.0864
5.491,-0.0854
5.492,-0.0763
5.493,-0.0728
5.494,-0.0739
5.495,-0.0809
5.496,-0.0948
5.497,-0.1008
5.498,-0.0917
5.499,-0.0834
5.5,-0.0759
5.501,-0.0772
5.502,-0.0807
5.503,-0.0818
5.504,-0.0788
5.505,-0.0761
5.506,-0.0768
5.507,-0.0821
5.508,-0.0774
5.509,-0.0741
5.51,-0.0836
5.511,-0.0768
5.512,-0.0583
5.513,-0.0609
5.514,-0.0585
5.515,-0.0651
5.516,-0.0752
5.517,-0.088
5.518,-0.0995
5.519,-0.0981
5.52,-0.0968
5.521,-0.0957
5.522,-0.09
5.523,-0.095
5.524,-0.1089
5.525,-0.0988
5.526,-0.0896
5.527,-0.0979
5.528,-0.0964
5.529,-0.0814
5.53,-0.0794
5.531,-0.0849
5.532,-0.0964
5.533,-0.0889
5.534,-0.0821
5.535,-0.081
5.536,-0.0686
5.537,-0.0702
5.538,-0.0928
5.539,-0.0896
5.54,-0.0809
5.541,-0.0834
5.542,-0.0713
5.543,-0.056
5.544,-0.0741
5.545,-0.0862
5.546,-0.0884
5.547,-0.0904
5.548,-0.0812
5.549,-0.0862
5.55,-0.0818
5.551,-0.0858
5.552,-0.0893
5.553,-0.086
5.554,-0.0869
5.555,-0.0933
5.556,-0.0909
5.557,-0.0931
5.558,-0.0829
5.559,-0.081
5.56,-0.0766
5.561,-0.0726
5.562,-0.0642
5.563,-0.0745
5.564,-0.0539
5.565,-0.0452
5.566,-0.0638
5.567,-0.0858
5.568,-0.0946
5.569,-0.092
5.57,-0.0849
5.571,-0.0871
5.572,-0.0972
5.573,-0.1063
5.574,-0.1146
5.575,-0.092
5.576,-0.0889
5.577,-0.086
5.578,-0.0834
5.579,-0.0763
5.58,-0.0785
5.581,-0.0805
5.582,-0.0823
5.583,-0.084
5.584,-0.0825
5.585,-0.0838
5.586,-0.0849
5.587,-0.0679
5.588,-0.0655
5.589,-0.0677
5.59,-0.0737
5.591,-0.0792
5.592,-0.0942
5.593,-0.0842
5.594,-0.086
5.595,-0.081
5.596,-0.0946
5.597,-0.0891
5.598,-0.0842
5.599,-0.0737
5.6,-0.0724
5.601,-0.0713
5.602,-0.0657
5.603,-0.0686
5.604,-0.0732
5.605,-0.0788
5.606,-0.0719
5.607,-0.0728
5.608,-0.0768
5.609,-0.0776
5.61,-0.0737
5.611,-0.084
5.612,-0.0796
5.613,-0.0783
5.614,-0.0598
5.615,-0.0624
5.616,-0.0745
5.617,-0.0679
5.618,-0.086
5.619,-0.0884
5.62,-0.0994
5.621,-0.0973
5.622,-0.0845
5.623,-0.0763
5.624,-0.0807
5.625,-0.0929
5.626,-0.0979
5.627,-0.1023
5.628,-0.0873
5.629,-0.0853
5.63,-0.0944
5.631,-0.0928
5.632,-0.0942
5.633,-0.0955
5.634,-0.0871
5.635,-0.0768
5.636,-0.0809
5.637,-0.0748
5.638,-0.0851
5.639,-0.081
5.64,-0.0871
5.641,-0.0814
5.642,-0.0805
5.643,-0.0851
5.644,-0.0858
5.645,-0.088
5.646,-0.0862
5.647,-0.0792
5.648,-0.0765
5.649,-0.0724
5.65,-0.0794
5.651,-0.0803
5.652,-0.0895
5.653,-0.0884
5.654,-0.0873
5.655,-0.0803
5.656,-0.0757
5.657,-0.0832
5.658,-0.0902
5.659,-0.0781
5.66,-0.0765
5.661,-0.0686
5.662,-0.073
5.663,-0.077
5.664,-0.0759
5.665,-0.0702
5.666,-0.0633
5.667,-0.0679
5.668,-0.0803
5.669,-0.0968
5.67,-0.0946
5.671,-0.0845
5.672,-0.0864
5.673,-0.0913
5.674,-0.0898
5.675,-0.0966
5.676,-0.0955
5.677,-0.0922
5.678,-0.079
5.679,-0.0662
5.68,-0.0646
5.681,-0.0871
5.682,-0.0966
5.683,-0.1054
5.684,-0.092
5.685,-0.0752
5.686,-0.0774
5.687,-0.0955
5.688,-0.0931
5.689,-0.1041
5.69,-0.0981
5.691,-0.0853
5.692,-0.0836
5.693,-0.0761
5.694,-0.0801
5.695,-0.0741
5.696,-0.0774
5.697,-0.0843
5.698,-0.0741
5.699,-0.0836
5.7,-0.0801
5.701,-0.0723
5.702,-0.0713
5.703,-0.0686
5.704,-0.0726
5.705,-0.0842
5.706,-0.0891
5.707,-0.0847
5.708,-0.0834
5.709,-0.0774
5.71,-0.0763
5.711,-0.0812
5.712,-0.0693
5.713,-0.0757
5.714,-0.0765
5.715,-0.0787
5.716,-0.0684
5.717,-0.058
5.718,-0.0702
5.719,-0.0818
5.72,-0.0862
5.721,-0.0929
5.722,-0.0869
5.723,-0.1017
5.724,-0.1037
5.725,-0.0983
5.726,-0.0933
5.727,-0.0948
5.728,-0.0935
5.729,-0.0823
5.73,-0.0748
5.731,-0.0843
5.732,-0.0878
5.733,-0.0889
5.734,-0.0939
5.735,-0.0836
5.736,-0.0796
5.737,-0.0735
5.738,-0.0746
5.739,-0.0737
5.74,-0.0858
5.741,-0.0907
5.742,-0.0922
5.743,-0.0882
5.744,-0.0917
5.745,-0.0814
5.746,-0.0854
5.747,-0.0865
5.748,-0.0787
5.749,-0.0737
5.75,-0.0728
5.751,-0.0853
5.752,-0.0871
5.753,-0.092
5.754,-0.0816
5.755,-0.0748
5.756,-0.0737
5.757,-0.0726
5.758,-0.0735
5.759,-0.0763
5.76,-0.0787
5.761,-0.0748
5.762,-0.0851
5.763,-0.0928
5.764,-0.0823
5.765,-0.0864
5.766,-0.0728
5.767,-0.0636
5.768,-0.062
5.769,-0.0516
5.77,-0.0503
5.771,-0.0563
5.772,-0.0642
5.773,-0.0794
5.774,-0.086
5.775,-0.1001
5.776,-0.1056
5.777,-0.1006
5.778,-0.0842
5.779,-0.0907
5.78,-0.1008
5.781,-0.11
5.782,-0.1116
5.783,-0.1072
5.784,-0.095
5.785,-0.0799
5.786,-0.086
5.787,-0.0878
5.788,-0.0695
5.789,-0.0816
5.79,-0.0882
5.791,-0.0942
5.792,-0.0961
5.793,-0.0845
5.794,-0.0801
5.795,-0.0761
5.796,-0.0873
5.797,-0.0829
5.798,-0.0816
5.799,-0.0876
5.8,-0.0843
5.801,-0.0774
5.802,-0.0728
5.803,-0.0752
5.804,-0.0774
5.805,-0.0779
5.806,-0.0875
5.807,-0.0887
5.808,-0.0827
5.809,-0.0816
5.81,-0.0807
5.811,-0.0871
5.812,-0.0847
5.813,-0.0869
5.814,-0.084
5.815,-0.0834
5.816,-0.0752
5.817,-0.0627
5.818,-0.0512
5.819,-0.0468
5.82,-0.0536
5.821,-0.0721
5.822,-0.0746
5.823,-0.0966
5.824,-0.0995
5.825,-0.1021
5.826,-0.09
5.827,-0.0922
5.828,-0.0902
5.829,-0.092
5.83,-0.0937
5.831,-0.0951
5.832,-0.0992
5.833,-0.0931
5.834,-0.0875
5.835,-0.0805
5.836,-0.0759
5.837,-0.0766
5.838,-0.0774
5.839,-0.0712
5.84,-0.0688
5.841,-0.0772
5.842,-0.0805
5.843,-0.0814
5.844,-0.0898
5.845,-0.0931
5.846,-0.0862
5.847,-0.0964
5.848,-0.0814
5.849,-0.0794
5.85,-0.0886
5.851,-0.0902
5.852,-0.0798
5.853,-0.081
5.854,-0.0776
5.855,-0.0627
5.856,-0.0768
5.857,-0.086
5.858,-0.0843
5.859,-0.0799
5.86,-0.0812
5.861,-0.0823
5.862,-0.0834
5.863,-0.0805
5.864,-0.0796
5.865,-0.0766
5.866,-0.0726
5.867,-0.0626
5.868,-0.0585
5.869,-0.077
5.87,-0.0636
5.871,-0.0805
5.872,-0.0827
5.873,-0.0847
5.874,-0.0939
5.875,-0.0889
5.876,-0.0845
5.877,-0.0886
5.878,-0.0875
5.879,-0.0886
5.88,-0.0876
5.881,-0.0979
5.882,-0.0992
5.883,-0.1103
5.884,-0.0999
5.885,-0.0904
5.886,-0.0869
5.887,-0.0766
5.888,-0.0834
5.889,-0.0845
5.89,-0.0788
5.891,-0.0739
5.892,-0.0842
5.893,-0.0882
5.894,-0.0893
5.895,-0.0904
5.896,-0.0854
5.897,-0.0845
5.898,-0.0805
5.899,-0.0766
5.9,-0.0734
5.901,-0.0702
5.902,-0.0697
5.903,-0.0693
5.904,-0.0763
5.905,-0.0915
5.906,-0.0937
5.907,-0.0756
5.908,-0.0732
5.909,-0.0666
5.91,-0.0726
5.911,-0.0781
5.912,-0.0798
5.913,-0.0933
5.914,-0.1061
5.915,-0.0911
5.916,-0.0847
5.917,-0.0787
5.918,-0.0695
5.919,-0.0646
5.92,-0.0602
5.921,-0.0561
5.922,-0.0572
5.923,-0.0743
5.924,-0.0864
5.925,-0.0842
5.926,-0.0902
5.927,-0.0994
5.928,-0.1043
5.929,-0.0939
5.93,-0.0871
5.931,-0.0882
5.932,-0.0825
5.933,-0.0756
5.934,-0.084
5.935,-0.0942
5.936,-0.0929
5.937,-0.0895
5.938,-0.0884
5.939,-0.0975
5.94,-0.0964
5.941,-0.0931
5.942,-0.0902
5.943,-0.0763
5.944,-0.0702
5.945,-0.0721
5.946,-0.0871
5.947,-0.0851
5.948,-0.0832
5.949,-0.0816
5.95,-0.0891
5.951,-0.0851
5.952,-0.0816
5.953,-0.0759
5.954,-0.0668
5.955,-0.0779
5.956,-0.0854
5.957,-0.0895
5.958,-0.081
5.959,-0.0821
5.96,-0.0772
5.961,-0.0818
5.962,-0.081
5.963,-0.0803
5.964,-0.0785
5.965,-0.0741
5.966,-0.0825
5.967,-0.081
5.968,-0.0845
5.969,-0.0697
5.97,-0.0556
5.971,-0.0611
5.972,-0.0561
5.973,-0.0576
5.974,-0.0781
5.975,-0.0929
5.976,-0.0851
5.977,-0.0972
5.978,-0.095
5.979,-0.097
5.98,-0.0988
5.981,-0.0972
5.982,-0.0867
5.983,-0.0854
5.984,-0.0915
5.985,-0.0948
5.986,-0.0997
5.987,-0.097
5.988,-0.0895
5.989,-0.0865
5.99,-0.0801
5.991,-0.0745
5.992,-0.0783
5.993,-0.0845
5.994,-0.0886
5.995,-0.0847
5.996,-0.0909
5.997,-0.0917
5.998,-0.0924
5.999,-0.0821
6,-0.0746
6.001,-0.0759
6.002,-0.077
6.003,-0.0691
6.004,-0.0761
6.005,-0.0788
6.006,-0.0913
6.007,-0.0821
6.008,-0.0772
6.009,-0.0757
6.01,-0.077
6.011,-0.0759
6.012,-0.0838
6.013,-0.0887
6.014,-0.0823
6.015,-0.0864
6.016,-0.0979
6.017,-0.0962
6.018,-0.0832
6.019,-0.0876
6.02,-0.0809
6.021,-0.0624
6.022,-0.0382
6.023,-0.0477
6.024,-0.0684
6.025,-0.0871
6.026,-0.0847
6.027,-0.0913
6.028,-0.0893
6.029,-0.0948
6.03,-0.0964
6.031,-0.092
6.032,-0.0798
6.033,-0.0781
6.034,-0.0677
6.035,-0.0772
6.036,-0.0761
6.037,-0.0886
6.038,-0.0803
6.039,-0.0759
6.04,-0.0854
6.041,-0.0865
6.042,-0.0898
6.043,-0.0889
6.044,-0.0805
6.045,-0.0907
6.046,-0.0895
6.047,-0.0929
6.048,-0.0896
6.049,-0.0805
6.05,-0.0816
6.051,-0.0783
6.052,-0.0734
6.053,-0.0761
6.054,-0.0886
6.055,-0.0904
6.056,-0.092
6.057,-0.0906
6.058,-0.0918
6.059,-0.0884
6.06,-0.0827
6.061,-0.0695
6.062,-0.075
6.063,-0.0766
6.064,-0.0752
6.065,-0.0875
6.066,-0.0924
6.067,-0.082
6.068,-0.0915
6.069,-0.1001
6.07,-0.0917
6.071,-0.0746
6.072,-0.0675
6.073,-0.0565
6.074,-0.0505
6.075,-0.0523
6.076,-0.0673
6.077,-0.0854
6.078,-0.0975
6.079,-0.1129
6.08,-0.1069
6.081,-0.1087
6.082,-0.0937
6.083,-0.0836
6.084,-0.1001
6.085,-0.0935
6.086,-0.0794
6.087,-0.0776
6.088,-0.0825
6.089,-0.0869
6.09,-0.0829
6.091,-0.084
6.092,-0.0829
6.093,-0.082
6.094,-0.081
6.095,-0.0867
6.096,-0.086
6.097,-0.0842
6.098,-0.0759
6.099,-0.0726
6.1,-0.0858
6.101,-0.0876
6.102,-0.0926
6.103,-0.0882
6.104,-0.0814
6.105,-0.0849
6.106,-0.0838
6.107,-0.0809
6.108,-0.0836
6.109,-0.0796
6.11,-0.0911
6.111,-0.0862
6.112,-0.0787
6.113,-0.0799
6.114,-0.0765
6.115,-0.0798
6.116,-0.0728
6.117,-0.0792
6.118,-0.0832
6.119,-0.0825
6.12,-0.084
6.121,-0.0821
6.122,-0.0726
6.123,-0.0631
6.124,-0.0571
6.125,-0.0604
6.126,-0.0756
6.127,-0.0777
6.128,-0.0798
6.129,-0.0743
6.13,-0.0893
6.131,-0.0913
6.132,-0.0712
6.133,-0.0686
6.134,-0.0615
6.135,-0.0549
6.136,-0.0569
6.137,-0.0404
6.138,-0.0338
6.139,-0.0398
6.14,-0.0563
6.141,-0.0717
6.142,-0.0858
6.143,-0.0986
6.144,-0.1069
6.145,-0.1294
6.146,-0.1587
6.147,-0.1548
6.148,-0.1655
6.149,-0.2012
6.15,-0.2345
6.151,-0.2217
6.152,-0.21
6.153,-0.2277
6.154,-0.2634
6.155,-0.2682
6.156,-0.2724
6.157,-0.2685
6.158,-0.2579
6.159,-0.2092
6.16,-0.146
6.161,-0.1376
6.162,-0.1146
6.163,-0.0796
6.164,-0.0353
6.165,0.0283
6.166,0.0535
6.167,0.0766
6.168,0.1398
6.169,0.1821
6.17,0.2515
6.171,0.2625
6.172,0.2344
6.173,0.2597
6.174,0.252
6.175,0.2031
6.176,0.1588
6.177,0.1301
6.178,0.1145
6.179,0.1002
6.18,0.0526
6.181,0.0209
6.182,0.0037
6.183,-0.0118
6.184,-0.0452
6.185,-0.0928
6.186,-0.1371
6.187,-0.1543
6.188,-0.1699
6.189,-0.1841
6.19,-0.1969
6.191,-0.2325
6.192,-0.2563
6.193,-0.2691
6.194,-0.2652
6.195,-0.2546
6.196,-0.2577
6.197,-0.2726
6.198,-0.2751
6.199,-0.268
6.2,-0.257
6.201,-0.251
6.202,-0.2455
6.203,-0.2372
6.204,-0.2147
6.205,-0.1922
6.206,-0.1774
6.207,-0.1532
6.208,-0.1437
6.209,-0.123
6.21,-0.1255
6.211,-0.0988
6.212,-0.081
6.213,-0.0649
6.214,-0.062
6.215,-0.0486
6.216,-0.0365
6.217,-0.03
6.218,-0.032
6.219,-0.0265
6.22,-0.0347
6.221,-0.0303
6.222,-0.0356
6.223,-0.0452
6.224,-0.0441
6.225,-0.0292
6.226,-0.0192
6.227,-0.0137
6.228,-0.0386
6.229,-0.0563
6.23,-0.0724
6.231,-0.0873
6.232,-0.0794
6.233,-0.0723
6.234,-0.0788
6.235,-0.0768
6.236,-0.0787
6.237,-0.0803
6.238,-0.0878
6.239,-0.0756
6.24,-0.0838
6.241,-0.0823
6.242,-0.0836
6.243,-0.0801
6.244,-0.0653
6.245,-0.0713
6.246,-0.0695
6.247,-0.0712
6.248,-0.0668
6.249,-0.0763
6.25,-0.0728
6.251,-0.0785
6.252,-0.0756
6.253,-0.084
6.254,-0.0807
6.255,-0.0898
6.256,-0.0887
6.257,-0.0739
6.258,-0.0638
6.259,-0.0657
6.26,-0.0706
6.261,-0.075
6.262,-0.0818
6.263,-0.0829
6.264,-0.0886
6.265,-0.0856
6.266,-0.081
6.267,-0.077
6.268,-0.0686
6.269,-0.0743
6.27,-0.0792
6.271,-0.0876
6.272,-0.0909
6.273,-0.0913
6.274,-0.0801
6.275,-0.0845
6.276,-0.0913
6.277,-0.0829
6.278,-0.0886
6.279,-0.0734
6.28,-0.058
6.281,-0.0801
6.282,-0.0831
6.283,-0.0644
6.284,-0.0668
6.285,-0.069
6.286,-0.0669
6.287,-0.0578
6.288,-0.0827
6.289,-0.0862
6.29,-0.0957
6.291,-0.0986
6.292,-0.0961
6.293,-0.1032
6.294,-0.0966
6.295,-0.0865
6.296,-0.0847
6.297,-0.0997
6.298,-0.0977
6.299,-0.1069
6.3,-0.0986
6.301,-0.0882
6.302,-0.0814
6.303,-0.0825
6.304,-0.0792
6.305,-0.0842
6.306,-0.0832
6.307,-0.0889
6.308,-0.0928
6.309,-0.0865
6.31,-0.0873
6.311,-0.0772
6.312,-0.084
6.313,-0.09
6.314,-0.073
6.315,-0.0706
6.316,-0.0816
6.317,-0.0796
6.318,-0.0851
6.319,-0.09
6.32,-0.0886
6.321,-0.0845
6.322,-0.0785
6.323,-0.0752
6.324,-0.0781
6.325,-0.0772
6.326,-0.0633
6.327,-0.0572
6.328,-0.0701
6.329,-0.0485
6.33,-0.0397
6.331,-0.0638
6.332,-0.0864
6.333,-0.0951
6.334,-0.0926
6.335,-0.0997
6.336,-0.1019
6.337,-0.0918
6.338,-0.09
6.339,-0.0917
6.34,-0.0873
6.341,-0.0805
6.342,-0.0865
6.343,-0.0968
6.344,-0.0928
6.345,-0.0893
6.346,-0.086
6.347,-0.081
6.348,-0.0895
6.349,-0.0973
6.35,-0.0842
6.351,-0.0896
6.352,-0.0814
6.353,-0.0858
6.354,-0.0818
6.355,-0.0853
6.356,-0.0909
6.357,-0.086
6.358,-0.0832
6.359,-0.0776
6.36,-0.0768
6.361,-0.0774
6.362,-0.0756
6.363,-0.0772
6.364,-0.0706
6.365,-0.0752
6.366,-0.0809
6.367,-0.0801
6.368,-0.0847
6.369,-0.0904
6.37,-0.0882
6.371,-0.0887
6.372,-0.0792
6.373,-0.0697
6.374,-0.0686
6.375,-0.0759
6.376,-0.0929
6.377,-0.0809
6.378,-0.0699
6.379,-0.0517
6.38,-0.0638
6.381,-0.0838
6.382,-0.0812
6.383,-0.0741
6.384,-0.0763
6.385,-0.0864
6.386,-0.0992
6.387,-0.1107
6.388,-0.1151
6.389,-0.1056
6.39,-0.0871
6.391,-0.0845
6.392,-0.0869
6.393,-0.0891
6.394,-0.0911
6.395,-0.0893
6.396,-0.0743
6.397,-0.0763
6.398,-0.0891
6.399,-0.0907
6.4,-0.0893
6.401,-0.077
6.402,-0.0721
6.403,-0.0765
6.404,-0.0752
6.405,-0.0937
6.406,-0.0911
6.407,-0.084
6.408,-0.0774
6.409,-0.0754
6.41,-0.0845
6.411,-0.0829
6.412,-0.0843
6.413,-0.0856
6.414,-0.0867
6.415,-0.0788
6.416,-0.0818
6.417,-0.0754
6.418,-0.0713
6.419,-0.0721
6.42,-0.0823
6.421,-0.0867
6.422,-0.0799
6.423,-0.0739
6.424,-0.0682
6.425,-0.0712
6.426,-0.0957
6.427,-0.1096
6.428,-0.1157
6.429,-0.0882
6.43,-0.0686
6.431,-0.0437
6.432,-0.0532
6.433,-0.0799
6.434,-0.0906
6.435,-0.0875
6.436,-0.0845
6.437,-0.082
6.438,-0.0843
6.439,-0.0821
6.44,-0.0882
6.441,-0.0937
6.442,-0.0887
6.443,-0.0873
6.444,-0.086
6.445,-0.0825
6.446,-0.0836
6.447,-0.0766
6.448,-0.0794
6.449,-0.0851
6.45,-0.0798
6.451,-0.0765
6.452,-0.077
6.453,-0.0776
6.454,-0.073
6.455,-0.0761
6.456,-0.0788
6.457,-0.0713
6.458,-0.0816
6.459,-0.0748
6.46,-0.0759
6.461,-0.077
6.462,-0.082
6.463,-0.094
6.464,-0.0924
6.465,-0.0849
6.466,-0.0836
6.467,-0.0825
6.468,-0.0792
6.469,-0.0743
6.47,-0.0752
6.471,-0.0728
6.472,-0.069
6.473,-0.0792
6.474,-0.0836
6.475,-0.0823
6.476,-0.0834
6.477,-0.0876
6.478,-0.0798
6.479,-0.0646
6.48,-0.0536
6.481,-0.0556
6.482,-0.0611
6.483,-0.0561
6.484,-0.0636
6.485,-0.0842
6.486,-0.0871
6.487,-0.0845
6.488,-0.0869
6.489,-0.1023
6.49,-0.1043
6.491,-0.1025
6.492,-0.1074
6.493,-0.0999
6.494,-0.0849
6.495,-0.0788
6.496,-0.077
6.497,-0.0886
6.498,-0.0871
6.499,-0.0994
6.5,-0.0911
6.501,-0.1016
6.502,-0.0948
6.503,-0.0937
6.504,-0.0858
6.505,-0.0867
6.506,-0.084
6.507,-0.0832
6.508,-0.0779
6.509,-0.0825
6.51,-0.0856
6.511,-0.0772
6.512,-0.0856
6.513,-0.0754
6.514,-0.0686
6.515,-0.0675
6.516,-0.0777
6.517,-0.0845
6.518,-0.0929
6.519,-0.0896
6.52,-0.0926
6.521,-0.0805
6.522,-0.0756
6.523,-0.0741
6.524,-0.0809
6.525,-0.0724
6.526,-0.06
6.527,-0.075
6.528,-0.0774
6.529,-0.0633
6.53,-0.0761
6.531,-0.081
6.532,-0.0886
6.533,-0.079
6.534,-0.0779
6.535,-0.0904
6.536,-0.0887
6.537,-0.0843
6.538,-0.0884
6.539,-0.0823
6.54,-0.0745
6.541,-0.0814
6.542,-0.0935
6.543,-0.105
6.544,-0.1094
6.545,-0.0889
6.546,-0.086
6.547,-0.0834
6.548,-0.0906
6.549,-0.0928
6.55,-0.0907
6.551,-0.0853
6.552,-0.0803
6.553,-0.0759
6.554,-0.0719
6.555,-0.0854
6.556,-0.0799
6.557,-0.0882
6.558,-0.0926
6.559,-0.0913
6.56,-0.0829
6.561,-0.0886
6.562,-0.0754
6.563,-0.0735
6.564,-0.0719
6.565,-0.0763
6.566,-0.0776
6.567,-0.0836
6.568,-0.0825
6.569,-0.0734
6.57,-0.0745
6.571,-0.0777
6.572,-0.0787
6.573,-0.0871
6.574,-0.086
6.575,-0.081
6.576,-0.0801
6.577,-0.0858
6.578,-0.0805
6.579,-0.0862
6.58,-0.0867
6.581,-0.0772
6.582,-0.0622
6.583,-0.0561
6.584,-0.0543
6.585,-0.0593
6.586,-0.0818
6.587,-0.0849
6.588,-0.0878
6.589,-0.0853
6.59,-0.0876
6.591,-0.0898
6.592,-0.0918
6.593,-0.0973
6.594,-0.0924
6.595,-0.082
6.596,-0.086
6.597,-0.0944
6.598,-0.0911
6.599,-0.1063
6.6,-0.0997
6.601,-0.0977
6.602,-0.0922
6.603,-0.0873
6.604,-0.0887
6.605,-0.0875
6.606,-0.084
6.607,-0.0737
6.608,-0.0669
6.609,-0.0754
6.61,-0.0765
6.611,-0.0756
6.612,-0.0801
6.613,-0.0842
6.614,-0.0849
6.615,-0.0867
6.616,-0.0823
6.617,-0.0851
6.618,-0.0838
6.619,-0.086
6.62,-0.0798
6.621,-0.0734
6.622,-0.0693
6.623,-0.0732
6.624,-0.0794
6.625,-0.0818
6.626,-0.0796
6.627,-0.0734
6.628,-0.0741
6.629,-0.081
6.63,-0.0906
6.631,-0.0803
6.632,-0.0598
6.633,-0.0627
6.634,-0.0653
6.635,-0.0532
6.636,-0.0732
6.637,-0.0918
6.638,-0.0942
6.639,-0.092
6.64,-0.086
6.641,-0.0878
6.642,-0.0829
6.643,-0.0994
6.644,-0.0972
6.645,-0.0871
6.646,-0.0889
6.647,-0.084
6.648,-0.0796
6.649,-0.0783
6.65,-0.0818
6.651,-0.0851
6.652,-0.0942
6.653,-0.0907
6.654,-0.0829
6.655,-0.0878
6.656,-0.0851
6.657,-0.0843
6.658,-0.0821
6.659,-0.084
6.66,-0.0821
6.661,-0.0849
6.662,-0.0774
6.663,-0.0853
6.664,-0.0862
6.665,-0.0853
6.666,-0.0829
6.667,-0.0821
6.668,-0.0788
6.669,-0.0706
6.67,-0.0695
6.671,-0.0724
6.672,-0.0864
6.673,-0.0924
6.674,-0.0832
6.675,-0.0882
6.676,-0.0926
6.677,-0.0858
6.678,-0.0823
6.679,-0.0745
6.68,-0.0715
6.681,-0.073
6.682,-0.0776
6.683,-0.0752
6.684,-0.0682
6.685,-0.0561
6.686,-0.0578
6.687,-0.0622
6.688,-0.0745
6.689,-0.0827
6.69,-0.0842
6.691,-0.1047
6.692,-0.1135
6.693,-0.1056
6.694,-0.0984
6.695,-0.0831
6.696,-0.0851
6.697,-0.0906
6.698,-0.1021
6.699,-0.0946
6.7,-0.0796
6.701,-0.0735
6.702,-0.079
6.703,-0.084
6.704,-0.0796
6.705,-0.0783
6.706,-0.0944
6.707,-0.0966
6.708,-0.0865
6.709,-0.081
6.71,-0.0728
6.711,-0.0713
6.712,-0.0781
6.713,-0.0842
6.714,-0.0853
6.715,-0.0944
6.716,-0.0909
6.717,-0.0898
6.718,-0.0807
6.719,-0.0723
6.72,-0.069
6.721,-0.0759
6.722,-0.0787
6.723,-0.081
6.724,-0.0895
6.725,-0.0816
6.726,-0.0724
6.727,-0.0759
6.728,-0.077
6.729,-0.0799
6.73,-0.0772
6.731,-0.0847
6.732,-0.0803
6.733,-0.0832
6.734,-0.0823
6.735,-0.0699
6.736,-0.0461
6.737,-0.0622
6.738,-0.0829
6.739,-0.0907
6.74,-0.0931
6.741,-0.0909
6.742,-0.0849
6.743,-0.0867
6.744,-0.0983
6.745,-0.0968
6.746,-0.1008
6.747,-0.0896
6.748,-0.0761
6.749,-0.0816
6.75,-0.0898
6.751,-0.0913
6.752,-0.0873
6.753,-0.0788
6.754,-0.0799
6.755,-0.0809
6.756,-0.0818
6.757,-0.081
6.758,-0.0788
6.759,-0.0807
6.76,-0.0776
6.761,-0.0781
6.762,-0.0805
6.763,-0.0847
6.764,-0.0842
6.765,-0.0796
6.766,-0.0765
6.767,-0.0838
6.768,-0.0907
6.769,-0.0972
6.77,-0.0931
6.771,-0.0816
6.772,-0.0766
6.773,-0.0723
6.774,-0.0735
6.775,-0.0746
6.776,-0.0713
6.777,-0.0825
6.778,-0.09
6.779,-0.0995
6.78,-0.0935
6.781,-0.0878
6.782,-0.0869
6.783,-0.0781
6.784,-0.0754
6.785,-0.0662
6.786,-0.0723
6.787,-0.0801
6.788,-0.0649
6.789,-0.0539
6.79,-0.0721
6.791,-0.0889
6.792,-0.0867
6.793,-0.0807
6.794,-0.0752
6.795,-0.0867
6.796,-0.1092
6.797,-0.1188
6.798,-0.1217
6.799,-0.1083
6.8,-0.0915
6.801,-0.0805
6.802,-0.0865
6.803,-0.0847
6.804,-0.0864
6.805,-0.0849
6.806,-0.0809
6.807,-0.0748
6.808,-0.0759
6.809,-0.0809
6.81,-0.0745
6.811,-0.0704
6.812,-0.0682
6.813,-0.0701
6.814,-0.0732
6.815,-0.0816
6.816,-0.1001
6.817,-0.0922
6.818,-0.0851
6.819,-0.0829
6.82,-0.0768
6.821,-0.0713
6.822,-0.0763
6.823,-0.0777
6.824,-0.0818
6.825,-0.0929
6.826,-0.0915
6.827,-0.0875
6.828,-0.0739
6.829,-0.0794
6.83,-0.0843
6.831,-0.0948
6.832,-0.0935
6.833,-0.0851
6.834,-0.0825
6.835,-0.0768
6.836,-0.0636
6.837,-0.0508
6.838,-0.0525
6.839,-0.0569
6.84,-0.0774
6.841,-0.0803
6.842,-0.0882
6.843,-0.0953
6.844,-0.1063
6.845,-0.1043
6.846,-0.0988
6.847,-0.0972
6.848,-0.0928
6.849,-0.0915
6.85,-0.095
6.851,-0.0871
6.852,-0.0862
6.853,-0.0816
6.854,-0.0823
6.855,-0.0785
6.856,-0.0803
6.857,-0.0746
6.858,-0.0785
6.859,-0.0847
6.86,-0.0854
6.861,-0.0832
6.862,-0.0878
6.863,-0.0873
6.864,-0.0834
6.865,-0.0867
6.866,-0.0807
6.867,-0.0766
6.868,-0.082
6.869,-0.0801
6.87,-0.0807
6.871,-0.0756
6.872,-0.071
6.873,-0.0754
6.874,-0.0792
6.875,-0.0867
6.876,-0.09
6.877,-0.095
6.878,-0.0886
6.879,-0.0862
6.88,-0.0869
6.881,-0.0944
6.882,-0.0792
6.883,-0.0858
6.884,-0.0959
6.885,-0.0737
6.886,-0.0609
6.887,-0.0426
6.888,-0.0497
6.889,-0.0607
6.89,-0.0587
6.891,-0.0679
6.892,-0.0928
6.893,-0.0962
6.894,-0.0931
6.895,-0.1019
6.896,-0.1045
6.897,-0.1021
6.898,-0.0955
6.899,-0.0935
6.9,-0.0917
6.901,-0.0867
6.902,-0.0972
6.903,-0.0904
6.904,-0.0869
6.905,-0.088
6.906,-0.081
6.907,-0.0746
6.908,-0.0706
6.909,-0.0728
6.91,-0.0746
6.911,-0.0777
6.912,-0.0783
6.913,-0.0858
6.914,-0.0869
6.915,-0.084
6.916,-0.0867
6.917,-0.0924
6.918,-0.0886
6.919,-0.0783
6.92,-0.0708
6.921,-0.0613
6.922,-0.0798
6.923,-0.0772
6.924,-0.0748
6.925,-0.0682
6.926,-0.0702
6.927,-0.0721
6.928,-0.0671
6.929,-0.0836
6.93,-0.0858
6.931,-0.0878
6.932,-0.0896
6.933,-0.0913
6.934,-0.0838
6.935,-0.0933
6.936,-0.0884
6.937,-0.0772
6.938,-0.0636
6.939,-0.0582
6.94,-0.0565
6.941,-0.064
6.942,-0.0653
6.943,-0.0688
6.944,-0.0721
6.945,-0.0873
6.946,-0.0939
6.947,-0.1039
6.948,-0.0984
6.949,-0.0968
6.95,-0.1012
6.951,-0.0972
6.952,-0.1006
6.953,-0.1063
6.954,-0.1113
6.955,-0.0973
6.956,-0.1034
6.957,-0.0869
6.958,-0.0847
6.959,-0.0787
6.96,-0.0732
6.961,-0.0649
6.962,-0.0635
6.963,-0.0812
6.964,-0.0884
6.965,-0.1037
6.966,-0.1017
6.967,-0.0889
6.968,-0.0774
6.969,-0.0849
6.97,-0.0699
6.971,-0.0719
6.972,-0.0884
6.973,-0.0774
6.974,-0.0995
6.975,-0.0966
6.976,-0.0832
6.977,-0.0712
6.978,-0.069
6.979,-0.0831
6.98,-0.0886
6.981,-0.0902
6.982,-0.0887
6.983,-0.0765
6.984,-0.0781
6.985,-0.0737
6.986,-0.075
6.987,-0.0832
6.988,-0.0821
6.989,-0.0788
6.99,-0.0759
6.991,-0.062
6.992,-0.056
6.993,-0.0688
6.994,-0.077
6.995,-0.0845
6.996,-0.0886
6.997,-0.0825
6.998,-0.0814
6.999,-0.0843
7,-0.0983
7.001,-0.1164
7.002,-0.0995
7.003,-0.0929
7.004,-0.0869
7.005,-0.0851
7.006,-0.09
7.007,-0.0856
7.008,-0.0843
7.009,-0.0832
7.01,-0.0776
7.011,-0.0766
7.012,-0.0702
7.013,-0.071
7.014,-0.0779
7.015,-0.0734
7.016,-0.0609
7.017,-0.0371
7.018,-0.0276
7.019,-0.0246
7.02,-0.0221
7.021,-0.0292
7.022,-0.0402
7.023,-0.0503
7.024,-0.0668
7.025,-0.0911
7.026,-0.1136
7.027,-0.1107
7.028,-0.1241
7.029,-0.1558
7.03,-0.1686
7.031,-0.196
7.032,-0.2067
7.033,-0.2228
7.034,-0.2198
7.035,-0.212
7.036,-0.2288
7.037,-0.262
7.038,-0.2817
7.039,-0.296
7.04,-0.2918
7.041,-0.2484
7.042,-0.1849
7.043,-0.1426
7.044,-0.1349
7.045,-0.1418
7.046,-0.0975
7.047,-0.034
7.048,0.0424
7.049,0.0526
7.05,0.062
7.051,0.1211
7.052,0.1749
7.053,0.2381
7.054,0.2465
7.055,0.2388
7.056,0.218
7.057,0.2117
7.058,0.183
7.059,0.1674
7.06,0.1531
7.061,0.1574
7.062,0.1218
7.063,0.0693
7.064,0.0623
7.065,0.0435
7.066,0.0378
7.067,0.0222
7.068,-0.0208
7.069,-0.1074
7.07,-0.1697
7.071,-0.2034
7.072,-0.1931
7.073,-0.2211
7.074,-0.2634
7.075,-0.2711
7.076,-0.2502
7.077,-0.244
7.078,-0.2612
7.079,-0.2874
7.08,-0.3017
7.081,-0.2975
7.082,-0.2858
7.083,-0.2609
7.084,-0.264
7.085,-0.2491
7.086,-0.225
7.087,-0.2024
7.088,-0.1937
7.089,-0.1711
7.09,-0.147
7.091,-0.1113
7.092,-0.0875
7.093,-0.0746
7.094,-0.055
7.095,-0.0516
7.096,-0.0677
7.097,-0.0647
7.098,-0.0569
7.099,-0.0593
7.1,-0.0571
7.101,-0.047
7.102,-0.0525
7.103,-0.0607
7.104,-0.0411
7.105,-0.0437
7.106,-0.0508
7.107,-0.0662
7.108,-0.0763
7.109,-0.0854
7.11,-0.0704
7.111,-0.0684
7.112,-0.0629
7.113,-0.0479
7.114,-0.0419
7.115,-0.051
7.116,-0.066
7.117,-0.0801
7.118,-0.0783
7.119,-0.0668
7.12,-0.0593
7.121,-0.0605
7.122,-0.0717
7.123,-0.0732
7.124,-0.0799
7.125,-0.0765
7.126,-0.064
7.127,-0.0657
7.128,-0.0821
7.129,-0.0799
7.13,-0.082
7.131,-0.0728
7.132,-0.0613
7.133,-0.0688
7.134,-0.0756
7.135,-0.0721
7.136,-0.071
7.137,-0.0739
7.138,-0.0785
7.139,-0.0842
7.14,-0.0788
7.141,-0.081
7.142,-0.0708
7.143,-0.0693
7.144,-0.0488
7.145,-0.0576
7.146,-0.071
7.147,-0.0781
7.148,-0.0803
7.149,-0.0904
7.15,-0.0922
7.151,-0.084
7.152,-0.0915
7.153,-0.0955
7.154,-0.0895
7.155,-0.0816
7.156,-0.0766
7.157,-0.0794
7.158,-0.0918
7.159,-0.0937
7.16,-0.0854
7.161,-0.084
7.162,-0.0962
7.163,-0.1045
7.164,-0.097
7.165,-0.0875
7.166,-0.079
7.167,-0.0734
7.168,-0.0803
7.169,-0.0794
7.17,-0.0754
7.171,-0.0776
7.172,-0.0838
7.173,-0.0798
7.174,-0.0882
7.175,-0.0893
7.176,-0.0823
7.177,-0.0739
7.178,-0.0706
7.179,-0.0776
7.18,-0.084
7.181,-0.0765
7.182,-0.0756
7.183,-0.0746
7.184,-0.0854
7.185,-0.0869
7.186,-0.0882
7.187,-0.0942
7.188,-0.0975
7.189,-0.0884
7.19,-0.0823
7.191,-0.0723
7.192,-0.069
7.193,-0.0578
7.194,-0.0713
7.195,-0.0732
7.196,-0.0649
7.197,-0.0693
7.198,-0.0734
7.199,-0.0895
7.2,-0.0873
7.201,-0.0853
7.202,-0.0798
7.203,-0.0847
7.204,-0.0891
7.205,-0.0986
7.206,-0.1021
7.207,-0.1078
7.208,-0.0926
7.209,-0.086
7.21,-0.0799
7.211,-0.0818
7.212,-0.0834
7.213,-0.0849
7.214,-0.0889
7.215,-0.0878
7.216,-0.0845
7.217,-0.0836
7.218,-0.079
7.219,-0.0783
7.22,-0.0884
7.221,-0.0951
7.222,-0.084
7.223,-0.0854
7.224,-0.0814
7.225,-0.0803
7.226,-0.0814
7.227,-0.0785
7.228,-0.0721
7.229,-0.0697
7.23,-0.0644
7.231,-0.0746
7.232,-0.0972
7.233,-0.081
7.234,-0.0781
7.235,-0.0915
7.236,-0.0939
7.237,-0.0917
7.238,-0.0856
7.239,-0.0801
7.24,-0.0752
7.241,-0.0737
7.242,-0.0752
7.243,-0.082
7.244,-0.0854
7.245,-0.0752
7.246,-0.0574
7.247,-0.055
7.248,-0.075
7.249,-0.0724
7.25,-0.0845
7.251,-0.0911
7.252,-0.0891
7.253,-0.0946
7.254,-0.0896
7.255,-0.0911
7.256,-0.0951
7.257,-0.094
7.258,-0.0884
7.259,-0.1036
7.26,-0.1058
7.261,-0.0957
7.262,-0.0756
7.263,-0.0622
7.264,-0.0743
7.265,-0.0809
7.266,-0.0869
7.267,-0.0887
7.268,-0.0871
7.269,-0.0827
7.27,-0.0867
7.271,-0.0902
7.272,-0.0799
7.273,-0.0787
7.274,-0.0821
7.275,-0.0854
7.276,-0.0904
7.277,-0.0858
7.278,-0.0933
7.279,-0.0821
7.28,-0.0836
7.281,-0.0849
7.282,-0.0814
7.283,-0.0803
7.284,-0.0794
7.285,-0.0803
7.286,-0.0746
7.287,-0.0739
7.288,-0.0842
7.289,-0.0977
7.29,-0.0995
7.291,-0.0913
7.292,-0.0869
7.293,-0.0832
7.294,-0.0845
7.295,-0.0785
7.296,-0.0615
7.297,-0.0494
7.298,-0.0516
7.299,-0.0818
7.3,-0.086
7.301,-0.0898
7.302,-0.0933
7.303,-0.0838
7.304,-0.0867
7.305,-0.0842
7.306,-0.0818
7.307,-0.084
7.308,-0.094
7.309,-0.0959
7.31,-0.0942
7.311,-0.0898
7.312,-0.0939
7.313,-0.0928
7.314,-0.0871
7.315,-0.0779
7.316,-0.0768
7.317,-0.0871
7.318,-0.0911
7.319,-0.0827
7.32,-0.0816
7.321,-0.0825
7.322,-0.0834
7.323,-0.0827
7.324,-0.0805
7.325,-0.0867
7.326,-0.081
7.327,-0.0818
7.328,-0.0743
7.329,-0.0734
7.33,-0.0706
7.331,-0.0713
7.332,-0.0752
7.333,-0.0706
7.334,-0.0801
7.335,-0.0814
7.336,-0.0754
7.337,-0.0675
7.338,-0.0766
7.339,-0.0756
7.34,-0.0766
7.341,-0.0776
7.342,-0.0748
7.343,-0.0805
7.344,-0.084
7.345,-0.0756
7.346,-0.0699
7.347,-0.0669
7.348,-0.0567
7.349,-0.058
7.35,-0.064
7.351,-0.0788
7.352,-0.0768
7.353,-0.086
7.354,-0.081
7.355,-0.0796
7.356,-0.0864
7.357,-0.0829
7.358,-0.084
7.359,-0.0992
7.36,-0.1146
7.361,-0.1085
7.362,-0.092
7.363,-0.0986
7.364,-0.1087
7.365,-0.0959
7.366,-0.0743
7.367,-0.0831
7.368,-0.0752
7.369,-0.068
7.37,-0.0834
7.371,-0.0935
7.372,-0.0807
7.373,-0.0757
7.374,-0.0772
7.375,-0.0785
7.376,-0.0774
7.377,-0.0807
7.378,-0.0918
7.379,-0.0875
7.38,-0.0862
7.381,-0.0777
7.382,-0.081
7.383,-0.0801
7.384,-0.0886
7.385,-0.0853
7.386,-0.0823
7.387,-0.0739
7.388,-0.0842
7.389,-0.0774
7.39,-0.0763
7.391,-0.0911
7.392,-0.0891
7.393,-0.0726
7.394,-0.0748
7.395,-0.0832
7.396,-0.0812
7.397,-0.0867
7.398,-0.095
7.399,-0.0754
7.4,-0.0512
7.401,-0.0543
7.402,-0.081
7.403,-0.0917
7.404,-0.1012
7.405,-0.1041
7.406,-0.1016
7.407,-0.0992
7.408,-0.0792
7.409,-0.0818
7.41,-0.0842
7.411,-0.0864
7.412,-0.0763
7.413,-0.0818
7.414,-0.0933
7.415,-0.0948
7.416,-0.0907
7.417,-0.0823
7.418,-0.0834
7.419,-0.0805
7.42,-0.0869
7.421,-0.0862
7.422,-0.0777
7.423,-0.0788
7.424,-0.0779
7.425,-0.0825
7.426,-0.0933
7.427,-0.0858
7.428,-0.0818
7.429,-0.0878
7.43,-0.0821
7.431,-0.0831
7.432,-0.0746
7.433,-0.0735
7.434,-0.0726
7.435,-0.0772
7.436,-0.0896
7.437,-0.1025
7.438,-0.0875
7.439,-0.0814
7.44,-0.0796
7.441,-0.0779
7.442,-0.0794
7.443,-0.0754
7.444,-0.0814
7.445,-0.0893
7.446,-0.0788
7.447,-0.0818
7.448,-0.0679
7.449,-0.0618
7.45,-0.0563
7.451,-0.0481
7.452,-0.0646
7.453,-0.0799
7.454,-0.09
7.455,-0.0992
7.456,-0.0909
7.457,-0.1045
7.458,-0.0953
7.459,-0.097
7.46,-0.0926
7.461,-0.0886
7.462,-0.0825
7.463,-0.0858
7.464,-0.0849
7.465,-0.0933
7.466,-0.1058
7.467,-0.0875
7.468,-0.0754
7.469,-0.0688
7.47,-0.0668
7.471,-0.0796
7.472,-0.0878
7.473,-0.0953
7.474,-0.1021
7.475,-0.0961
7.476,-0.0836
7.477,-0.0886
7.478,-0.0721
7.479,-0.0611
7.48,-0.0792
7.481,-0.0816
7.482,-0.0882
7.483,-0.0942
7.484,-0.0887
7.485,-0.0838
7.486,-0.0763
7.487,-0.0723
7.488,-0.0757
7.489,-0.0768
7.49,-0.0818
7.491,-0.0864
7.492,-0.0807
7.493,-0.0785
7.494,-0.0847
7.495,-0.0807
7.496,-0.0723
7.497,-0.0788
7.498,-0.0867
7.499,-0.0756
7.5,-0.068
7.501,-0.053
7.502,-0.055
7.503,-0.0788
7.504,-0.0884
7.505,-0.0913
7.506,-0.0939
7.507,-0.0915
7.508,-0.0805
7.509,-0.0704
7.51,-0.0869
7.511,-0.0935
7.512,-0.0875
7.513,-0.0893
7.514,-0.0942
7.515,-0.0928
7.516,-0.0832
7.517,-0.0917
7.518,-0.0906
7.519,-0.0975
7.52,-0.0911
7.521,-0.0935
7.522,-0.0928
7.523,-0.0838
7.524,-0.0777
7.525,-0.0834
7.526,-0.0864
7.527,-0.0891
7.528,-0.0851
7.529,-0.0781
7.53,-0.0772
7.531,-0.0812
7.532,-0.0743
7.533,-0.0752
7.534,-0.0776
7.535,-0.0829
7.536,-0.0875
7.537,-0.0779
7.538,-0.0739
7.539,-0.075
7.54,-0.0875
7.541,-0.0858
7.542,-0.0933
7.543,-0.0838
7.544,-0.0803
7.545,-0.0882
7.546,-0.0853
7.547,-0.075
7.548,-0.0781
7.549,-0.0876
7.55,-0.0865
7.551,-0.0695
7.552,-0.0624
7.553,-0.0424
7.554,-0.0345
7.555,-0.0466
7.556,-0.0666
7.557,-0.0853
7.558,-0.1021
7.559,-0.1087
7.56,-0.1147
7.561,-0.0983
7.562,-0.0873
7.563,-0.0933
7.564,-0.0915
7.565,-0.0964
7.566,-0.0979
7.567,-0.0884
7.568,-0.0823
7.569,-0.0856
7.57,-0.0886
7.571,-0.0858
7.572,-0.0801
7.573,-0.0809
7.574,-0.0854
7.575,-0.095
7.576,-0.0882
7.577,-0.077
7.578,-0.0785
7.579,-0.0798
7.58,-0.0787
7.581,-0.082
7.582,-0.0849
7.583,-0.0821
7.584,-0.0781
7.585,-0.0697
7.586,-0.0754
7.587,-0.0783
7.588,-0.0829
7.589,-0.0886
7.59,-0.0893
7.591,-0.0818
7.592,-0.0788
7.593,-0.0743
7.594,-0.0818
7.595,-0.0867
7.596,-0.084
7.597,-0.0783
7.598,-0.0713
7.599,-0.0701
7.6,-0.084
7.601,-0.0699
7.602,-0.0571
7.603,-0.0587
7.604,-0.0631
7.605,-0.0754
7.606,-0.0904
7.607,-0.1005
7.608,-0.0913
7.609,-0.0864
7.61,-0.0907
7.611,-0.092
7.612,-0.0886
7.613,-0.0829
7.614,-0.0838
7.615,-0.0902
7.616,-0.0878
7.617,-0.0917
7.618,-0.0935
7.619,-0.0953
7.62,-0.088
7.621,-0.0831
7.622,-0.0785
7.623,-0.0761
7.624,-0.0831
7.625,-0.084
7.626,-0.0715
7.627,-0.0843
7.628,-0.086
7.629,-0.0875
7.63,-0.0807
7.631,-0.0842
7.632,-0.0853
7.633,-0.0803
7.634,-0.0812
7.635,-0.0887
7.636,-0.0896
7.637,-0.0832
7.638,-0.0708
7.639,-0.0653
7.64,-0.0702
7.641,-0.0807
7.642,-0.0902
7.643,-0.0891
7.644,-0.088
7.645,-0.0831
7.646,-0.0876
7.647,-0.0869
7.648,-0.0799
7.649,-0.0864
7.65,-0.0964
7.651,-0.084
7.652,-0.0638
7.653,-0.056
7.654,-0.0536
7.655,-0.0558
7.656,-0.0658
7.657,-0.064
7.658,-0.0591
7.659,-0.0635
7.66,-0.0785
7.661,-0.0966
7.662,-0.1087
7.663,-0.1197
7.664,-0.1096
7.665,-0.0931
7.666,-0.0997
7.667,-0.0977
7.668,-0.0776
7.669,-0.075
7.67,-0.0918
7.671,-0.0896
7.672,-0.0917
7.673,-0.0898
7.674,-0.0915
7.675,-0.081
7.676,-0.0715
7.677,-0.0799
7.678,-0.0902
7.679,-0.0915
7.68,-0.0754
7.681,-0.0688
7.682,-0.0748
7.683,-0.0766
7.684,-0.0816
7.685,-0.0741
7.686,-0.0728
7.687,-0.0739
7.688,-0.0818
7.689,-0.0929
7.69,-0.0886
7.691,-0.0873
7.692,-0.0884
7.693,-0.0851
7.694,-0.086
7.695,-0.0851
7.696,-0.0827
7.697,-0.0774
7.698,-0.082
7.699,-0.0776
7.7,-0.0724
7.701,-0.0701
7.702,-0.0746
7.703,-0.0651
7.704,-0.0583
7.705,-0.0594
7.706,-0.0697
7.707,-0.0765
7.708,-0.0849
7.709,-0.0906
7.71,-0.0955
7.711,-0.0928
7.712,-0.092
7.713,-0.0898
7.714,-0.0961
7.715,-0.0968
7.716,-0.0898
7.717,-0.0907
7.718,-0.0832
7.719,-0.0842
7.72,-0.0851
7.721,-0.0875
7.722,-0.0896
7.723,-0.0834
7.724,-0.0759
7.725,-0.0768
7.726,-0.0814
7.727,-0.0906
7.728,-0.0966
7.729,-0.0887
7.73,-0.0838
7.731,-0.0754
7.732,-0.0832
7.733,-0.0902
7.734,-0.0893
7.735,-0.0869
7.736,-0.0754
7.737,-0.077
7.738,-0.0756
7.739,-0.0796
7.74,-0.0856
7.741,-0.0732
7.742,-0.0847
7.743,-0.0772
7.744,-0.0785
7.745,-0.0724
7.746,-0.0781
7.747,-0.079
7.748,-0.0818
7.749,-0.0761
7.75,-0.0814
7.751,-0.082
7.752,-0.0796
7.753,-0.0878
7.754,-0.0799
7.755,-0.0849
7.756,-0.0803
7.757,-0.0746
7.758,-0.0754
7.759,-0.0651
7.76,-0.0695
7.761,-0.0873
7.762,-0.0944
7.763,-0.0966
7.764,-0.0986
7.765,-0.0895
7.766,-0.0812
7.767,-0.0827
7.768,-0.095
7.769,-0.0933
7.77,-0.0977
7.771,-0.1017
7.772,-0.0983
7.773,-0.0904
7.774,-0.0812
7.775,-0.0801
7.776,-0.079
7.777,-0.0741
7.778,-0.0787
7.779,-0.0827
7.78,-0.0834
7.781,-0.0909
7.782,-0.0818
7.783,-0.0829
7.784,-0.0796
7.785,-0.0865
7.786,-0.0781
7.787,-0.0702
7.788,-0.0854
7.789,-0.092
7.79,-0.094
7.791,-0.0849
7.792,-0.0865
7.793,-0.0851
7.794,-0.081
7.795,-0.0821
7.796,-0.0743
7.797,-0.0713
7.798,-0.0704
7.799,-0.0829
7.8,-0.092
7.801,-0.0805
7.802,-0.0849
7.803,-0.081
7.804,-0.0851
7.805,-0.079
7.806,-0.062
7.807,-0.0499
7.808,-0.0565
7.809,-0.0666
7.81,-0.0684
7.811,-0.0734
7.812,-0.069
7.813,-0.073
7.814,-0.0814
7.815,-0.0825
7.816,-0.0875
7.817,-0.0959
7.818,-0.0926
7.819,-0.0896
7.82,-0.0851
7.821,-0.0843
7.822,-0.0805
7.823,-0.0907
7.824,-0.0983
7.825,-0.0942
7.826,-0.0907
7.827,-0.0896
7.828,-0.0847
7.829,-0.0838
7.83,-0.0798
7.831,-0.0836
7.832,-0.0842
7.833,-0.0937
7.834,-0.0924
7.835,-0.0763
7.836,-0.0785
7.837,-0.0805
7.838,-0.0896
7.839,-0.0913
7.84,-0.0869
7.841,-0.0801
7.842,-0.0766
7.843,-0.0799
7.844,-0.0891
7.845,-0.088
7.846,-0.0823
7.847,-0.0853
7.848,-0.0862
7.849,-0.0886
7.85,-0.0832
7.851,-0.0865
7.852,-0.0896
7.853,-0.0902
7.854,-0.081
7.855,-0.0745
7.856,-0.0772
7.857,-0.0647
7.858,-0.0593
7.859,-0.0609
7.86,-0.0565
7.861,-0.0497
7.862,-0.0582
7.863,-0.066
7.864,-0.0812
7.865,-0.0922
7.866,-0.0983
7.867,-0.1037
7.868,-0.1021
7.869,-0.1006
7.87,-0.1047
7.871,-0.1012
7.872,-0.0955
7.873,-0.0864
7.874,-0.0853
7.875,-0.0864
7.876,-0.0873
7.877,-0.0845
7.878,-0.0853
7.879,-0.0831
7.88,-0.0876
7.881,-0.0946
7.882,-0.1048
7.883,-0.0981
7.884,-0.0845
7.885,-0.079
7.886,-0.0774
7.887,-0.0759
7.888,-0.0772
7.889,-0.0761
7.89,-0.0728
7.891,-0.0737
7.892,-0.0783
7.893,-0.0776
7.894,-0.0814
7.895,-0.0796
7.896,-0.0777
7.897,-0.0726
7.898,-0.0745
7.899,-0.0801
7.9,-0.0732
7.901,-0.0611
7.902,-0.0561
7.903,-0.0486
7.904,-0.0336
7.905,-0.029
7.906,-0.027
7.907,-0.0142
7.908,-0.0159
7.909,-0.0234
7.91,-0.0384
7.911,-0.0686
7.912,-0.0988
7.913,-0.1105
7.914,-0.1283
7.915,-0.1576
7.916,-0.1772
7.917,-0.1949
7.918,-0.2175
7.919,-0.2323
7.92,-0.2297
7.921,-0.2176
7.922,-0.233
7.923,-0.2632
7.924,-0.2848
7.925,-0.2887
7.926,-0.2922
7.927,-0.2629
7.928,-0.2195
7.929,-0.1675
7.93,-0.1605
7.931,-0.1543
7.932,-0.1255
7.933,-0.0468
7.934,0.0321
7.935,0.0629
7.936,0.0535
7.937,0.1127
7.938,0.1511
7.939,0.2282
7.94,0.259
7.941,0.2683
7.942,0.2431
7.943,0.2507
7.944,0.2019
7.945,0.1575
7.946,0.1519
7.947,0.1363
7.948,0.122
7.949,0.0918
7.95,0.0643
7.951,0.0321
7.952,0.0193
7.953,-0.0082
7.954,-0.0475
7.955,-0.1052
7.956,-0.1279
7.957,-0.151
7.958,-0.1579
7.959,-0.1642
7.96,-0.2162
7.961,-0.237
7.962,-0.2433
7.963,-0.2605
7.964,-0.2761
7.965,-0.2808
7.966,-0.285
7.967,-0.2967
7.968,-0.2861
7.969,-0.2766
7.97,-0.2737
7.971,-0.2603
7.972,-0.2482
7.973,-0.2283
7.974,-0.2149
7.975,-0.2028
7.976,-0.1874
7.977,-0.1572
7.978,-0.127
7.979,-0.1153
7.98,-0.1047
7.981,-0.0886
7.982,-0.0679
7.983,-0.0545
7.984,-0.0424
7.985,-0.0446
7.986,-0.0345
7.987,-0.04
7.988,-0.0351
7.989,-0.0276
7.99,-0.0289
7.991,-0.03
7.992,-0.0356
7.993,-0.0488
7.994,-0.0616
7.995,-0.0666
7.996,-0.0741
7.997,-0.0728
7.998,-0.0644
7.999,-0.0565
8,-0.0413
8.001,-0.0435
8.002,-0.0536
8.003,-0.0591
8.004,-0.0541
8.005,-0.0677
8.006,-0.0658
8.007,-0.0642
8.008,-0.0724
8.009,-0.062
8.01,-0.047
8.011,-0.053
8.012,-0.0622
8.013,-0.0772
8.014,-0.0792
8.015,-0.0847
8.016,-0.0798
8.017,-0.0842
8.018,-0.0854
8.019,-0.0939
8.02,-0.095
8.021,-0.092
8.022,-0.0818
8.023,-0.0805
8.024,-0.0816
8.025,-0.0827
8.026,-0.0818
8.027,-0.0809
8.028,-0.0768
8.029,-0.0821
8.03,-0.0803
8.031,-0.0721
8.032,-0.0664
8.033,-0.0796
8.034,-0.0887
8.035,-0.0904
8.036,-0.086
8.037,-0.082
8.038,-0.0785
8.039,-0.0818
8.04,-0.0827
8.041,-0.0854
8.042,-0.0878
8.043,-0.0871
8.044,-0.0796
8.045,-0.0787
8.046,-0.0796
8.047,-0.0772
8.048,-0.0794
8.049,-0.0856
8.05,-0.0781
8.051,-0.0732
8.052,-0.0796
8.053,-0.082
8.054,-0.0873
8.055,-0.0935
8.056,-0.0878
8.057,-0.0871
8.058,-0.0869
8.059,-0.0794
8.06,-0.0702
8.061,-0.0668
8.062,-0.0589
8.063,-0.0437
8.064,-0.0547
8.065,-0.0688
8.066,-0.0889
8.067,-0.0968
8.068,-0.1089
8.069,-0.1111
8.07,-0.1091
8.071,-0.0926
8.072,-0.0904
8.073,-0.0843
8.074,-0.0862
8.075,-0.0878
8.076,-0.0953
8.077,-0.1021
8.078,-0.101
8.079,-0.0886
8.08,-0.0803
8.081,-0.0818
8.082,-0.0805
8.083,-0.0745
8.084,-0.0756
8.085,-0.0765
8.086,-0.0829
8.087,-0.0937
8.088,-0.0893
8.089,-0.077
8.09,-0.0787
8.091,-0.0772
8.092,-0.084
8.093,-0.0829
8.094,-0.0886
8.095,-0.0876
8.096,-0.0792
8.097,-0.0803
8.098,-0.0794
8.099,-0.0803
8.1,-0.0827
8.101,-0.0774
8.102,-0.0792
8.103,-0.0761
8.104,-0.0734
8.105,-0.0809
8.106,-0.0842
8.107,-0.0871
8.108,-0.0807
8.109,-0.0752
8.11,-0.0759
8.111,-0.0644
8.112,-0.0627
8.113,-0.0583
8.114,-0.0516
8.115,-0.0651
8.116,-0.0889
8.117,-0.092
8.118,-0.095
8.119,-0.0975
8.12,-0.0951
8.121,-0.0886
8.122,-0.0865
8.123,-0.0884
8.124,-0.09
8.125,-0.0915
8.126,-0.0955
8.127,-0.0895
8.128,-0.0838
8.129,-0.0867
8.13,-0.0876
8.131,-0.0869
8.132,-0.0862
8.133,-0.0829
8.134,-0.0898
8.135,-0.0962
8.136,-0.0922
8.137,-0.0869
8.138,-0.0875
8.139,-0.0893
8.14,-0.082
8.141,-0.079
8.142,-0.0818
8.143,-0.081
8.144,-0.0757
8.145,-0.0776
8.146,-0.0732
8.147,-0.077
8.148,-0.0783
8.149,-0.0805
8.15,-0.0851
8.151,-0.0895
8.152,-0.0821
8.153,-0.0812
8.154,-0.084
8.155,-0.0864
8.156,-0.0902
8.157,-0.0896
8.158,-0.0853
8.159,-0.0836
8.16,-0.0832
8.161,-0.0787
8.162,-0.0717
8.163,-0.0578
8.164,-0.0517
8.165,-0.0572
8.166,-0.0723
8.167,-0.0743
8.168,-0.0871
8.169,-0.0854
8.17,-0.099
8.171,-0.1008
8.172,-0.1091
8.173,-0.1016
8.174,-0.0948
8.175,-0.0913
8.176,-0.0902
8.177,-0.0911
8.178,-0.0884
8.179,-0.086
8.18,-0.0898
8.181,-0.0853
8.182,-0.0757
8.183,-0.077
8.184,-0.0735
8.185,-0.0746
8.186,-0.0796
8.187,-0.086
8.188,-0.0951
8.189,-0.0917
8.19,-0.0906
8.191,-0.0915
8.192,-0.0887
8.193,-0.0812
8.194,-0.0803
8.195,-0.0831
8.196,-0.0906
8.197,-0.0856
8.198,-0.0754
8.199,-0.0741
8.2,-0.073
8.201,-0.0719
8.202,-0.0768
8.203,-0.0871
8.204,-0.0911
8.205,-0.09
8.206,-0.0867
8.207,-0.0959
8.208,-0.0823
8.209,-0.0732
8.21,-0.0649
8.211,-0.0701
8.212,-0.0805
8.213,-0.0765
8.214,-0.0776
8.215,-0.0651
8.216,-0.0569
8.217,-0.0464
8.218,-0.056
8.219,-0.0695
8.22,-0.086
8.221,-0.0926
8.222,-0.0865
8.223,-0.0957
8.224,-0.0875
8.225,-0.0889
8.226,-0.0984
8.227,-0.095
8.228,-0.0983
8.229,-0.0953
8.23,-0.0889
8.231,-0.0781
8.232,-0.0766
8.233,-0.0754
8.234,-0.0915
8.235,-0.0849
8.236,-0.0869
8.237,-0.0814
8.238,-0.0864
8.239,-0.082
8.24,-0.0752
8.241,-0.0763
8.242,-0.0796
8.243,-0.0766
8.244,-0.0702
8.245,-0.0646
8.246,-0.0684
8.247,-0.0651
8.248,-0.0669
8.249,-0.0743
8.25,-0.0752
8.251,-0.0891
8.252,-0.0951
8.253,-0.097
8.254,-0.0887
8.255,-0.0962
8.256,-0.0895
8.257,-0.086
8.258,-0.0803
8.259,-0.0832
8.26,-0.0768
8.261,-0.0809
8.262,-0.084
8.263,-0.0909
8.264,-0.09
8.265,-0.0776
8.266,-0.0611
8.267,-0.0545
8.268,-0.0444
8.269,-0.0682
8.27,-0.0777
8.271,-0.0865
8.272,-0.0999
8.273,-0.107
8.274,-0.1136
8.275,-0.1036
8.276,-0.0907
8.277,-0.0891
8.278,-0.0847
8.279,-0.0915
8.28,-0.0926
8.281,-0.0937
8.282,-0.0966
8.283,-0.092
8.284,-0.0864
8.285,-0.081
8.286,-0.0843
8.287,-0.0875
8.288,-0.0836
8.289,-0.086
8.29,-0.0838
8.291,-0.0858
8.292,-0.0809
8.293,-0.079
8.294,-0.0809
8.295,-0.0814
8.296,-0.0818
8.297,-0.0821
8.298,-0.086
8.299,-0.0785
8.3,-0.0728
8.301,-0.082
8.302,-0.0809
8.303,-0.0798
8.304,-0.0748
8.305,-0.0794
8.306,-0.0834
8.307,-0.0842
8.308,-0.0796
8.309,-0.0801
8.31,-0.0853
8.311,-0.0928
8.312,-0.0878
8.313,-0.0862
8.314,-0.0834
8.315,-0.071
8.316,-0.0655
8.317,-0.0638
8.318,-0.0682
8.319,-0.0642
8.32,-0.0558
8.321,-0.0728
8.322,-0.0752
8.323,-0.0951
8.324,-0.0977
8.325,-0.1001
8.326,-0.0979
8.327,-0.0918
8.328,-0.0864
8.329,-0.0781
8.33,-0.0977
8.331,-0.1003
8.332,-0.0931
8.333,-0.0909
8.334,-0.0929
8.335,-0.1021
8.336,-0.1037
8.337,-0.0933
8.338,-0.081
8.339,-0.0794
8.34,-0.0779
8.341,-0.0766
8.342,-0.0801
8.343,-0.0812
8.344,-0.0924
8.345,-0.0939
8.346,-0.0871
8.347,-0.081
8.348,-0.0732
8.349,-0.0761
8.35,-0.077
8.351,-0.0746
8.352,-0.0785
8.353,-0.071
8.354,-0.0759
8.355,-0.0805
8.356,-0.0812
8.357,-0.082
8.358,-0.0801
8.359,-0.082
8.36,-0.0768
8.361,-0.0814
8.362,-0.0783
8.363,-0.0821
8.364,-0.0832
8.365,-0.0907
8.366,-0.0783
8.367,-0.0701
8.368,-0.0565
8.369,-0.0474
8.37,-0.0556
8.371,-0.0781
8.372,-0.0876
8.373,-0.0964
8.374,-0.0939
8.375,-0.0915
8.376,-0.0937
8.377,-0.0917
8.378,-0.0935
8.379,-0.0951
8.38,-0.0937
8.381,-0.0896
8.382,-0.0907
8.383,-0.0875
8.384,-0.0884
8.385,-0.082
8.386,-0.0796
8.387,-0.0818
8.388,-0.0823
8.389,-0.0779
8.39,-0.0785
8.391,-0.0798
8.392,-0.0858
8.393,-0.0915
8.394,-0.0862
8.395,-0.0829
8.396,-0.086
8.397,-0.0865
8.398,-0.079
8.399,-0.0823
8.4,-0.0814
8.401,-0.075
8.402,-0.0774
8.403,-0.0796
8.404,-0.0858
8.405,-0.0851
8.406,-0.0798
8.407,-0.0873
8.408,-0.0864
8.409,-0.0779
8.41,-0.0723
8.411,-0.0792
8.412,-0.0801
8.413,-0.0876
8.414,-0.0847
8.415,-0.0766
8.416,-0.0757
8.417,-0.0701
8.418,-0.06
8.419,-0.0505
8.42,-0.0565
8.421,-0.069
8.422,-0.0805
8.423,-0.0909
8.424,-0.1087
8.425,-0.1063
8.426,-0.0997
8.427,-0.0937
8.428,-0.0882
8.429,-0.0931
8.43,-0.0887
8.431,-0.0875
8.432,-0.084
8.433,-0.0829
8.434,-0.0717
8.435,-0.0732
8.436,-0.0772
8.437,-0.0884
8.438,-0.084
8.439,-0.0907
8.44,-0.0873
8.441,-0.084
8.442,-0.0889
8.443,-0.0825
8.444,-0.0818
8.445,-0.081
8.446,-0.0748
8.447,-0.0708
8.448,-0.0715
8.449,-0.0777
8.45,-0.0853
8.451,-0.0882
8.452,-0.0873
8.453,-0.0849
8.454,-0.0871
8.455,-0.0876
8.456,-0.0845
8.457,-0.0884
8.458,-0.0929
8.459,-0.0873
8.46,-0.082
8.461,-0.0801
8.462,-0.0807
8.463,-0.079
8.464,-0.0787
8.465,-0.0717
8.466,-0.0613
8.467,-0.0662
8.468,-0.0783
8.469,-0.0799
8.47,-0.0756
8.471,-0.0796
8.472,-0.0684
8.473,-0.0549
8.474,-0.0567
8.475,-0.0717
8.476,-0.0818
8.477,-0.0983
8.478,-0.1048
8.479,-0.1028
8.48,-0.0937
8.481,-0.0887
8.482,-0.0931
8.483,-0.0944
8.484,-0.1056
8.485,-0.0981
8.486,-0.0913
8.487,-0.0878
8.488,-0.0845
8.489,-0.0816
8.49,-0.09
8.491,-0.0821
8.492,-0.0669
8.493,-0.0691
8.494,-0.0792
8.495,-0.0847
8.496,-0.0896
8.497,-0.0911
8.498,-0.0843
8.499,-0.0832
8.5,-0.0865
8.501,-0.0774
8.502,-0.0785
8.503,-0.0682
8.504,-0.0695
8.505,-0.073
8.506,-0.0763
8.507,-0.0792
8.508,-0.0913
8.509,-0.0864
8.51,-0.082
8.511,-0.0807
8.512,-0.0818
8.513,-0.0896
8.514,-0.0966
8.515,-0.092
8.516,-0.0864
8.517,-0.0818
8.518,-0.0796
8.519,-0.075
8.52,-0.0655
8.521,-0.0505
8.522,-0.0565
8.523,-0.062
8.524,-0.0735
8.525,-0.0871
8.526,-0.0926
8.527,-0.0909
8.528,-0.1014
8.529,-0.0973
8.53,-0.0889
8.531,-0.0832
8.532,-0.0842
8.533,-0.0832
8.534,-0.084
8.535,-0.0909
8.536,-0.0973
8.537,-0.095
8.538,-0.0896
8.539,-0.0864
8.54,-0.0858
8.541,-0.0796
8.542,-0.0836
8.543,-0.0829
8.544,-0.0783
8.545,-0.0726
8.546,-0.0719
8.547,-0.0821
8.548,-0.0807
8.549,-0.082
8.55,-0.088
8.551,-0.0983
8.552,-0.0942
8.553,-0.0831
8.554,-0.0756
8.555,-0.0743
8.556,-0.0777
8.557,-0.0766
8.558,-0.0717
8.559,-0.0801
8.56,-0.0926
8.561,-0.0942
8.562,-0.0838
8.563,-0.077
8.564,-0.0686
8.565,-0.0788
8.566,-0.0829
8.567,-0.0889
8.568,-0.0898
8.569,-0.0887
8.57,-0.0735
8.571,-0.0713
8.572,-0.0693
8.573,-0.0602
8.574,-0.0519
8.575,-0.0624
8.576,-0.0746
8.577,-0.0829
8.578,-0.0873
8.579,-0.0913
8.58,-0.0902
8.581,-0.1027
8.582,-0.101
8.583,-0.0935
8.584,-0.0867
8.585,-0.0832
8.586,-0.0843
8.587,-0.0913
8.588,-0.0959
8.589,-0.0999
8.59,-0.0961
8.591,-0.0915
8.592,-0.0871
8.593,-0.0798
8.594,-0.0768
8.595,-0.0666
8.596,-0.0761
8.597,-0.0873
8.598,-0.0887
8.599,-0.0955
8.6,-0.0966
8.601,-0.0864
8.602,-0.0823
8.603,-0.0788
8.604,-0.0756
8.605,-0.0706
8.606,-0.0679
8.607,-0.0719
8.608,-0.0788
8.609,-0.0853
8.61,-0.0796
8.611,-0.068
8.612,-0.0796
8.613,-0.081
8.614,-0.0906
8.615,-0.094
8.616,-0.0951
8.617,-0.086
8.618,-0.0871
8.619,-0.0862
8.62,-0.0829
8.621,-0.0737
8.622,-0.0576
8.623,-0.0686
8.624,-0.0545
8.625,-0.0636
8.626,-0.0752
8.627,-0.0796
8.628,-0.0728
8.629,-0.0812
8.63,-0.0983
8.631,-0.1054
8.632,-0.09
8.633,-0.1001
8.634,-0.0946
8.635,-0.0896
8.636,-0.0821
8.637,-0.0834
8.638,-0.0799
8.639,-0.0788
8.64,-0.0739
8.641,-0.0712
8.642,-0.0752
8.643,-0.0774
8.644,-0.0836
8.645,-0.0812
8.646,-0.0743
8.647,-0.0752
8.648,-0.0809
8.649,-0.0816
8.65,-0.0891
8.651,-0.0842
8.652,-0.0906
8.653,-0.0913
8.654,-0.0997
8.655,-0.0873
8.656,-0.0823
8.657,-0.0867
8.658,-0.0799
8.659,-0.081
8.66,-0.0843
8.661,-0.0794
8.662,-0.073
8.663,-0.0821
8.664,-0.0832
8.665,-0.0821
8.666,-0.0812
8.667,-0.0803
8.668,-0.0779
8.669,-0.0818
8.67,-0.0825
8.671,-0.082
8.672,-0.0724
8.673,-0.0629
8.674,-0.0545
8.675,-0.0647
8.676,-0.077
8.677,-0.0853
8.678,-0.0928
8.679,-0.0968
8.68,-0.0979
8.681,-0.099
8.682,-0.0981
8.683,-0.099
8.684,-0.0898
8.685,-0.0864
8.686,-0.0875
8.687,-0.0884
8.688,-0.0856
8.689,-0.088
8.69,-0.0796
8.691,-0.0785
8.692,-0.0814
8.693,-0.0935
8.694,-0.0951
8.695,-0.0907
8.696,-0.0812
8.697,-0.0728
8.698,-0.0671
8.699,-0.0741
8.7,-0.0843
8.701,-0.0856
8.702,-0.0992
8.703,-0.101
8.704,-0.0961
8.705,-0.0886
8.706,-0.0873
8.707,-0.0838
8.708,-0.0849
8.709,-0.0779
8.71,-0.0752
8.711,-0.0759
8.712,-0.086
8.713,-0.082
8.714,-0.0831
8.715,-0.0864
8.716,-0.0794
8.717,-0.073
8.718,-0.0638
