0,-0.6124
0.001,-0.6612
0.002,-0.7312
0.003,-0.5911
0.004,-0.2905
0.005,0.3541
0.006,1.7362
0.007,-1.2265
0.008,-3.8812
0.009,-3.4963
0.01,-3.1464
0.011,-2.8283
0.012,-2.5392
0.013,-2.2764
0.014,-2.0375
0.015,-1.3858
0.016,-1.1884
0.017,-1.009
0.018,-0.8458
0.019,-0.9941
0.02,-0.8594
0.021,-0.7369
0.022,-0.6255
0.023,-0.7268
0.024,-0.6347
0.025,-0.551
0.026,-0.627
0.027,-0.5578
0.028,-0.495
0.029,-0.5521
0.03,-0.5001
0.031,-0.5474
0.032,-0.5045
0.033,-0.5435
0.034,-0.508
0.035,-0.5402
0.036,-0.5695
0.037,-0.5961
0.038,-0.6202
0.039,-0.6422
0.04,-0.7023
0.041,-0.7204
0.042,-0.7369
0.043,-0.7519
0.044,-0.7383
0.045,-0.7259
0.046,-0.7147
0.047,-0.7455
0.048,-0.6801
0.049,-0.6885
0.05,-0.6962
0.051,-0.6211
0.052,-0.67
0.053,-0.7143
0.054,-0.6277
0.055,-0.441
0.056,-0.0409
0.057,0.8168
0.058,1.1845
0.059,-0.4875
0.06,-3.8812
0.061,-3.8812
0.062,-3.8812
0.063,-3.4578
0.064,-3.0729
0.065,-2.723
0.066,-1.7689
0.067,-1.4797
0.068,-1.7425
0.069,-1.5035
0.07,-1.2864
0.071,-1.089
0.072,-0.9095
0.073,-0.7464
0.074,-0.5981
0.075,-0.4633
0.076,-0.5858
0.077,-0.4745
0.078,-0.3732
0.079,-0.4653
0.08,-0.3816
0.081,-0.4576
0.082,-0.3884
0.083,-0.4512
0.084,-0.3941
0.085,-0.4461
0.086,-0.4933
0.087,-0.5362
0.088,-0.5752
0.089,-0.6107
0.09,-0.6429
0.091,-0.6136
0.092,-0.6402
0.093,-0.6644
0.094,-0.6424
0.095,-0.6224
0.096,-0.6406
0.097,-0.6902
0.098,-0.6451
0.099,-0.6316
0.1,-0.644
0.101,-0.723
0.102,-0.6915
0.103,-0.7427
0.104,-0.6587
0.105,-0.4893
0.106,-0.1255
0.107,0.6546
0.108,-1.0174
0.109,-3.8812
0.11,-3.4578
0.111,-3.0729
0.112,-2.723
0.113,-2.405
0.114,-2.1158
0.115,-1.8531
0.116,-1.6141
0.117,-1.397
0.118,-1.1996
0.119,-1.0201
0.12,-0.857
0.121,-1.0053
0.122,-0.8705
0.123,-0.748
0.124,-0.6367
0.125,-0.738
0.126,-0.6459
0.127,-0.5622
0.128,-0.4862
0.129,-0.5554
0.13,-0.4926
0.131,-0.5497
0.132,-0.4977
0.133,-0.545
0.134,-0.5021
0.135,-0.5411
0.136,-0.5767
0.137,-0.6089
0.138,-0.6382
0.139,-0.6647
0.14,-0.7374
0.141,-0.4071
0.142,0.3021
0.143,-1.2181
0.144,-2.3043
0.145,-2.1069
0.146,-2.2863
0.147,-1.7967
0.148,-1.6484
0.149,-1.5136
0.15,-1.3911
0.151,-1.0569
0.152,-0.9557
0.153,-0.8577
0.154,-0.7656
0.155,-0.6819
0.156,0.4599
0.157,2.2554
0.158,5.8403
0.159,-3.5981
0.16,1.5252
0.161,0.8433
0.162,0.2235
0.163,1.9139
0.164,1.4016
0.165,-2.7902
0.166,-3.3536
0.167,-3.866
0.168,7.6684
0.169,7.2451
0.17,7.63
0.171,7.9799
0.172,-3.7021
0.173,-2.8347
0.174,-2.572
0.175,-2.333
0.176,-2.1158
0.177,-1.9184
0.178,-1.3799
0.179,-1.2168
0.18,-1.3651
0.181,-1.2303
0.182,-1.1078
0.183,-0.9965
0.184,-0.8953
0.185,-0.9874
0.186,-1.071
0.187,-0.995
0.188,-1.0643
0.189,-1.0015
0.19,-1.1728
0.191,-1.1208
0.192,-1.1681
0.193,-1.2109
0.194,-1.2499
0.195,-1.2144
0.196,-1.2466
0.197,-1.3345
0.198,-1.2547
0.199,-1.3274
0.2,-1.3494
0.201,-1.3693
0.202,-1.4239
0.203,-1.4735
0.204,-0.5684
0.205,-0.6437
0.206,-0.6028
0.207,-0.4161
0.208,-0.016
0.209,0.8417
0.21,2.1904
0.211,4.8836
0.212,2.1892
0.213,1.8392
0.214,1.5212
0.215,1.8103
0.216,2.0731
0.217,2.7899
0.218,3.0071
0.219,3.2045
0.22,3.743
0.221,3.9061
0.222,4.0545
0.223,4.1892
0.224,4.3117
0.225,4.423
0.226,4.727
0.227,4.8191
0.228,4.9028
0.229,4.8268
0.23,4.896
0.231,4.9588
0.232,5.0159
0.233,4.9639
0.234,5.0112
0.235,4.9683
0.236,4.9293
0.237,4.8938
0.238,4.8616
0.239,4.8323
0.24,4.8057
0.241,4.7816
0.242,4.7596
0.243,4.7796
0.244,4.7977
0.245,4.7812
0.246,4.7662
0.247,4.7797
0.248,4.7922
0.249,4.7585
0.25,4.7687
0.251,4.7407
0.252,4.6644
0.253,4.6336
0.254,4.6243
0.255,-0.7369
0.256,-0.7621
0.257,-0.816
0.258,-0.7109
0.259,-0.4851
0.26,-0.001
0.261,1.0372
0.262,0.8889
0.263,-1.1344
0.264,-3.7371
0.265,-3.8812
0.266,-3.5631
0.267,-3.274
0.268,-3.0112
0.269,-2.2944
0.27,-2.0772
0.271,-1.8798
0.272,-1.3413
0.273,-1.1782
0.274,-1.0298
0.275,-0.8951
0.276,-0.7726
0.277,-0.6612
0.278,-0.56
0.279,-0.4679
0.28,-0.5516
0.281,-0.4756
0.282,-0.4064
0.283,-0.4692
0.284,-0.412
0.285,-0.464
0.286,-0.4168
0.287,-0.4596
0.288,-0.4986
0.289,-0.5342
0.29,-0.5664
0.291,-0.5957
0.292,-0.6222
0.293,-0.5981
0.294,-0.5761
0.295,-0.5961
0.296,-0.6142
0.297,-0.6307
0.298,-0.5856
0.299,-0.5992
0.3,-0.6116
0.301,-0.6453
0.302,-0.6966
0.303,-0.762
0.304,-0.7704
0.305,-0.8088
0.306,-0.7391
0.307,-0.8022
0.308,-0.6752
0.309,-0.402
0.31,0.1838
0.311,1.4403
0.312,1.6197
0.313,-0.8288
0.314,-3.8812
0.315,-3.4578
0.316,-3.0729
0.317,-2.723
0.318,-2.405
0.319,-2.1158
0.32,-1.8531
0.321,-1.6141
0.322,-1.397
0.323,-1.1996
0.324,-1.0201
0.325,-0.857
0.326,-0.7087
0.327,-0.8434
0.328,-0.7209
0.329,-0.6096
0.33,-0.5084
0.331,-0.4163
0.332,-0.4999
0.333,-0.4239
0.334,-0.4932
0.335,-0.4303
0.336,-0.4875
0.337,-0.5395
0.338,-0.5867
0.339,-0.5439
0.34,-0.5829
0.341,-0.6184
0.342,-0.6506
0.343,-0.6213
0.344,-0.6479
0.345,-0.6237
0.346,-0.6457
0.347,-0.6257
0.348,-0.6439
0.349,-0.6603
0.35,-0.6153
0.351,-0.6836
0.352,-0.7458
0.353,-0.757
0.354,-0.8083
0.355,-0.7989
0.356,-0.8242
0.357,-0.7728
0.358,-0.7958
0.359,-0.6907
0.36,-0.465
0.361,0.0192
0.362,1.0574
0.363,2.0961
0.364,0.0728
0.365,-3.6865
0.366,-3.8812
0.367,-3.4155
0.368,-2.9922
0.369,-2.6073
0.37,-2.2574
0.371,-1.9393
0.372,-1.6502
0.373,-1.3874
0.374,-1.1485
0.375,-1.3657
0.376,-1.1683
0.377,-0.9888
0.378,-0.8257
0.379,-0.6774
0.38,-0.5426
0.381,-0.4201
0.382,-0.5314
0.383,-0.4302
0.384,-0.3381
0.385,-0.4217
0.386,-0.4977
0.387,0.5405
0.388,2.1729
0.389,3.259
0.39,3.8514
0.391,4.0308
0.392,4.194
0.393,4.6391
0.394,4.7739
0.395,4.8964
0.396,5.0077
0.397,5.109
0.398,5.2011
0.399,5.2847
0.4,5.3607
0.401,5.4299
0.402,5.3671
0.403,5.4243
0.404,5.3723
0.405,5.4195
0.406,5.3767
0.407,5.3377
0.408,-0.6365
0.409,-0.672
0.41,-0.5754
0.411,-0.1354
0.412,0.8082
0.413,2.0222
0.414,2.1853
0.415,4.4113
0.416,2.1848
0.417,1.8956
0.418,1.6329
0.419,1.8718
0.42,2.5235
0.421,2.7209
0.422,3.2594
0.423,3.4226
0.424,3.8677
0.425,4.0025
0.426,4.3701
0.427,4.4815
0.428,4.5827
0.429,4.859
0.43,4.9427
0.431,5.0187
0.432,5.0879
0.433,5.0251
0.434,5.0822
0.435,5.1342
0.436,5.087
0.437,5.0441
0.438,5.0831
0.439,5.0476
0.44,5.0154
0.441,4.9861
0.442,4.9595
0.443,4.9837
0.444,4.9617
0.445,4.9418
0.446,4.9599
0.447,4.9434
0.448,4.9584
0.449,4.9449
0.45,4.9324
0.451,4.8988
0.452,4.8885
0.453,4.8605
0.454,4.7841
0.455,4.7534
0.456,4.7067
0.457,4.7151
0.458,4.7074
0.459,-0.7603
0.46,-0.7953
0.461,-0.7253
0.462,-0.5853
0.463,-0.2846
0.464,0.3599
0.465,-0.6536
0.466,-2.6769
0.467,-3.5442
0.468,-3.2815
0.469,-3.0425
0.47,-2.3909
0.471,-2.1935
0.472,-2.014
0.473,-1.8509
0.474,-1.4058
0.475,-1.271
0.476,-1.1485
0.477,-1.0372
0.478,-0.9359
0.479,-0.8438
0.48,-0.7601
0.481,-0.532
0.482,-0.6012
0.483,-0.5384
0.484,-0.4813
0.485,-0.5333
0.486,-0.5805
0.487,-0.5376
0.488,-0.5767
0.489,-0.6122
0.49,-0.6444
0.491,-0.6151
0.492,-0.6417
0.493,-0.6175
0.494,-0.6395
0.495,-0.6195
0.496,-0.6376
0.497,-0.6541
0.498,-0.6091
0.499,-0.6226
0.5,-0.6351
0.501,-0.6462
0.502,-0.6975
0.503,-0.7629
0.504,-0.7713
0.505,-0.7944
0.506,-0.8152
0.507,-0.809
0.508,-0.8147
0.509,-0.8303
0.51,-0.7559
0.511,-0.7512
0.512,-0.7121
0.513,-0.6334
0.514,-0.464
0.515,-0.1002
0.516,0.6798
0.517,1.014
0.518,-0.5062
0.519,-3.7651
0.52,-3.8812
0.521,-3.4578
0.522,-3.0729
0.523,-2.723
0.524,-2.405
0.525,-2.1158
0.526,-1.8531
0.527,-1.6141
0.528,-1.397
0.529,-1.1996
0.53,-1.0201
0.531,-0.857
0.532,-0.7087
0.533,-0.5739
0.534,-0.4514
0.535,-0.5627
0.536,-0.4615
0.537,-0.3694
0.538,-0.4531
0.539,-0.529
0.54,-0.4598
0.541,-0.5226
0.542,-0.4655
0.543,-0.5175
0.544,-0.4703
0.545,-0.5131
0.546,-0.4741
0.547,-0.5096
0.548,-0.4774
0.549,-0.5067
0.55,-0.5333
0.551,-0.5574
0.552,-0.5794
0.553,-0.6395
0.554,-0.6576
0.555,-0.7072
0.556,-0.7522
0.557,-0.7931
0.558,-0.7806
0.559,-0.8143
0.56,-0.8041
0.561,-0.7068
0.562,-0.7162
0.563,-0.6398
0.564,-0.4858
0.565,-0.1555
0.566,0.5537
0.567,2.0738
0.568,1.8566
0.569,-1.106
0.57,-3.8812
0.571,-3.8812
0.572,-3.8812
0.573,-3.5631
0.574,-3.274
0.575,-3.0112
0.576,-2.2944
0.577,-2.0772
0.578,-1.4849
0.579,-1.3054
0.58,-1.1423
0.581,-0.9939
0.582,-0.8592
0.583,-0.7367
0.584,-0.6254
0.585,-0.5241
0.586,-0.432
0.587,-0.5157
0.588,-0.4397
0.589,-0.5089
0.59,-0.4461
0.591,-0.5032
0.592,-0.4512
0.593,-0.4985
0.594,-0.4556
0.595,-0.4946
0.596,-0.4591
0.597,-0.4913
0.598,-0.462
0.599,-0.4886
0.6,-0.4644
0.601,-0.5303
0.602,-0.5503
0.603,-0.6048
0.604,-0.6213
0.605,-0.6664
0.606,-0.6799
0.607,-0.7671
0.608,-0.7559
0.609,-0.7867
0.61,-0.7773
0.611,-0.735
0.612,-0.6761
0.613,-0.6838
0.614,-0.5787
0.615,-0.3529
0.616,0.1312
0.617,1.1694
0.618,2.2082
0.619,3.9618
0.62,2.2889
0.621,2.0718
0.622,2.2692
0.623,2.4486
0.624,2.9382
0.625,3.3834
0.626,3.7879
0.627,4.1555
0.628,4.4897
0.629,4.591
0.63,4.8673
0.631,4.9509
0.632,5.1791
0.633,6.2173
0.634,-3.8535
0.635,-2.5392
0.636,-1.8223
0.637,-1.6052
0.638,-1.4078
0.639,-1.2283
0.64,-1.3915
0.641,-0.9463
0.642,-1.0811
0.643,-0.7134
0.644,-0.8248
0.645,-0.7235
0.646,-0.6314
0.647,-0.5477
0.648,-0.4717
0.649,-0.5409
0.65,-0.4781
0.651,-0.421
0.652,-0.473
0.653,-0.5203
0.654,-0.5631
0.655,-0.5241
0.656,-0.5596
0.657,-0.269
0.658,-0.386
0.659,-0.4926
0.66,-0.5248
0.661,-0.5541
0.662,-0.5807
0.663,-0.5684
0.664,-0.6411
0.665,-0.5752
0.666,-0.2745
0.667,0.37
0.668,1.7521
0.669,1.9495
0.67,-0.3846
0.671,-3.8812
0.672,-3.8812
0.673,-3.8812
0.674,-3.4963
0.675,-3.1464
0.676,-2.8283
0.677,-2.5392
0.678,-1.7507
0.679,-1.5118
0.68,-1.2946
0.681,-1.0972
0.682,-0.9178
0.683,-0.7546
0.684,-0.6063
0.685,-0.7411
0.686,-0.6186
0.687,-0.5073
0.688,-0.6085
0.689,-0.5164
0.69,-0.6001
0.691,-0.5241
0.692,-0.5933
0.693,-0.5305
0.694,-0.4734
0.695,-0.5254
0.696,-0.4781
0.697,-0.521
0.698,-0.482
0.699,-0.5175
0.7,-0.5497
0.701,-0.5204
0.702,-0.547
0.703,-0.6197
0.704,-0.6417
0.705,-0.6616
0.706,-0.7162
0.707,-0.7658
0.708,-0.7508
0.709,-0.7643
0.71,-0.7768
0.711,-0.7431
0.712,-0.7328
0.713,-0.7422
0.714,-0.6731
0.715,-0.6309
0.716,-0.5924
0.717,-0.4873
0.718,-0.2615
0.719,0.2226
0.72,1.2608
0.721,-0.9652
0.722,-3.8282
0.723,-3.8812
0.724,-3.8812
0.725,-3.5631
0.726,-3.274
0.727,-2.4855
0.728,-2.2466
0.729,-2.0294
0.73,-1.4371
0.731,-1.2576
0.732,-1.0945
0.733,-0.9462
0.734,-0.8114
0.735,-0.6889
0.736,-0.5776
0.737,-0.6788
0.738,-0.5867
0.739,-0.503
0.74,-0.579
0.741,-0.5098
0.742,-0.5726
0.743,-0.5155
0.744,-0.4635
0.745,-0.5107
0.746,-0.4679
0.747,-0.5069
0.748,-0.4714
0.749,-0.5036
0.75,-0.4743
0.751,-0.5008
0.752,-0.5735
0.753,-0.5955
0.754,-0.6155
0.755,-0.6336
0.756,-0.6501
0.757,-0.7253
0.758,-0.7389
0.759,-0.7762
0.76,-0.7651
0.761,-0.7548
0.762,-0.7268
0.763,-0.7184
0.764,-0.7414
0.765,-0.5962
0.766,-0.6451
0.767,-0.6389
0.768,-0.5523
0.769,-0.3655
0.77,0.0346
0.771,0.8922
0.772,1.2599
0.773,0.7027
0.774,-0.0066
0.775,0.6383
0.776,1.3921
0.777,-0.128
0.778,-3.387
0.779,-3.8526
0.78,-3.8812
0.781,-3.8812
0.782,-3.8812
0.783,-3.5631
0.784,-2.6957
0.785,-2.433
0.786,-1.7161
0.787,-1.499
0.788,-1.3016
0.789,-1.1221
0.79,-0.959
0.791,-0.8107
0.792,-0.4062
0.793,-0.5287
0.794,-0.4173
0.795,-0.3161
0.796,-0.224
0.797,-0.1403
0.798,-0.0643
0.799,-0.1335
0.8,-0.0707
0.801,-0.1279
0.802,-0.1799
0.803,-0.2271
0.804,-0.2699
0.805,-0.309
0.806,-0.3445
0.807,-0.4412
0.808,-0.4704
0.809,-0.497
0.81,-0.4728
0.811,-0.4948
0.812,-0.5148
0.813,-0.5329
0.814,-0.5494
0.815,-0.5344
0.816,-0.4959
0.817,-0.5642
0.818,-0.4272
0.819,-0.154
0.82,0.4317
0.821,1.6882
0.822,2.2267
0.823,4.6752
0.824,2.2258
0.825,1.9077
0.826,1.6186
0.827,1.8814
0.828,2.1203
0.829,2.772
0.83,2.9694
0.831,3.5079
0.832,3.671
0.833,4.1162
0.834,4.2509
0.835,4.3734
0.836,4.7076
0.837,4.8088
0.838,4.7167
0.839,4.968
0.84,4.892
0.841,4.9612
0.842,4.8984
0.843,4.9555
0.844,5.0075
0.845,5.0548
0.846,5.0119
0.847,5.0509
0.848,5.0864
0.849,5.0542
0.85,5.0835
0.851,5.0037
0.852,4.9795
0.853,4.9575
0.854,4.8975
0.855,4.8793
0.856,4.8629
0.857,4.8478
0.858,4.8614
0.859,4.7742
0.86,4.7631
0.861,4.7733
0.862,4.7827
0.863,4.7911
0.864,4.7834
0.865,4.8184
0.866,4.7995
0.867,-0.6036
0.868,-0.6786
0.869,-0.7299
0.87,-0.7766
0.871,-0.8868
0.872,-0.9018
0.873,-0.9154
0.874,-0.878
0.875,-0.8892
0.876,-0.8585
0.877,-0.8678
0.878,-0.7407
0.879,-0.4675
0.88,0.0402
0.881,-0.998
0.882,-0.8497
0.883,1.1737
0.884,2.041
0.885,2.3038
0.886,5.8886
0.887,4.3516
0.888,2.0229
0.889,1.5996
0.89,1.2147
0.891,0.8648
0.892,1.1828
0.893,2.0502
0.894,2.3129
0.895,2.5519
0.896,3.2036
0.897,3.4009
0.898,3.5804
0.899,3.7435
0.9,3.8919
0.901,4.0266
0.902,4.1491
0.903,4.2604
0.904,4.3617
0.905,4.2696
0.906,4.3533
0.907,4.2773
0.908,4.3465
0.909,4.2837
0.91,4.3408
0.911,4.3928
0.912,4.3456
0.913,4.3027
0.914,4.3417
0.915,4.3773
0.916,4.345
0.917,4.3157
0.918,-0.4058
0.919,-0.4856
0.92,-0.5098
0.921,-0.1795
0.922,0.5297
0.923,2.0498
0.924,-1.2091
0.925,-3.5378
0.926,-3.8812
0.927,-3.4963
0.928,-3.1464
0.929,-2.1922
0.93,-1.9031
0.931,-1.6403
0.932,-1.4014
0.933,-1.1842
0.934,-0.9868
0.935,-1.1663
0.936,-1.0031
0.937,-0.8548
0.938,-0.72
0.939,-0.5975
0.94,-0.7089
0.941,-0.6076
0.942,-0.6997
0.943,-0.616
0.944,-0.54
0.945,-0.6092
0.946,-0.5464
0.947,-0.6036
0.948,-0.5516
0.949,-0.5043
0.95,-0.5472
0.951,-0.5862
0.952,-0.5507
0.953,-0.5829
0.954,-0.6122
0.955,-0.6387
0.956,-0.6629
0.957,-0.7729
0.958,-0.753
0.959,-0.7711
0.96,-0.7546
0.961,-0.7396
0.962,-0.7532
0.963,-0.7158
0.964,-0.727
0.965,-0.6962
0.966,-0.6869
0.967,-0.7292
0.968,-0.7369
0.969,-0.6951
0.97,-0.744
0.971,-0.7502
0.972,-0.6636
0.973,-0.4769
0.974,-0.0768
0.975,-0.0196
0.976,-0.7997
0.977,-2.4716
0.978,-3.6666
0.979,-3.0149
0.98,-2.8175
0.981,-2.279
0.982,-2.1158
0.983,-1.6707
0.984,-1.5359
0.985,-1.1683
0.986,-1.0569
0.987,-0.9557
0.988,-0.8636
0.989,-0.7799
0.99,-0.7039
0.991,-0.6347
0.992,-0.6975
0.993,-0.6404
0.994,-0.5884
0.995,-0.5411
0.996,-0.4983
0.997,-0.5373
0.998,-0.5018
0.999,-0.4695
1,-0.4988
1.001,-0.5254
1.002,-0.5496
1.003,-0.5715
1.004,-0.6316
1.005,-0.6135
1.006,-0.6631
1.007,-0.7081
1.008,-0.7217
1.009,-0.759
1.01,-0.7479
1.011,-0.7171
1.012,-0.7078
1.013,-0.6825
1.014,-0.7056
1.015,-0.6567
1.016,-0.6378
1.017,-0.6435
1.018,-0.7222
1.019,-0.7786
1.02,-0.7464
1.021,-0.7566
1.022,-0.8033
1.023,-0.6763
1.024,-0.4031
1.025,0.1827
1.026,1.4392
1.027,1.6186
1.028,2.1082
1.029,-0.1178
1.03,-3.6169
1.031,-3.8812
1.032,-3.8812
1.033,-3.8812
1.034,-3.5312
1.035,-3.2132
1.036,-2.9241
1.037,-2.1356
1.038,-1.8967
1.039,-1.6795
1.04,-1.4821
1.041,-1.3027
1.042,-0.813
1.043,-0.6647
1.044,-0.53
1.045,-0.4075
1.046,-0.5188
1.047,-0.4175
1.048,-0.3254
1.049,-0.2418
1.05,-0.3177
1.051,-0.2485
1.052,-0.3113
1.053,-0.3685
1.054,-0.3165
1.055,-0.4582
1.056,-0.4153
1.057,-0.4543
1.058,-0.4899
1.059,-0.5221
1.06,-0.4928
1.061,-0.5193
1.062,-0.5435
1.063,-0.5655
1.064,-0.5455
1.065,-0.5274
1.066,-0.577
1.067,-0.562
1.068,-0.6028
1.069,-0.6402
1.07,-0.6514
1.071,-0.627
1.072,-0.6988
1.073,-0.6708
1.074,-0.5437
1.075,-0.2705
1.076,0.3153
1.077,1.5717
1.078,-1.1214
1.079,-3.8158
1.08,-3.8812
1.081,-3.5631
1.082,-3.274
1.083,-3.0112
1.084,-2.2944
1.085,-2.0772
1.086,-1.8798
1.087,-1.7004
1.088,-1.2107
1.089,-1.0624
1.09,-0.9277
1.091,-0.8052
1.092,-0.6938
1.093,-0.7951
1.094,-0.703
1.095,-0.6193
1.096,-0.5433
1.097,-0.4741
1.098,-0.4113
1.099,-0.4684
1.1,-0.4164
1.101,-0.4637
1.102,-0.5065
1.103,-0.5455
1.104,-0.51
1.105,-0.5422
1.106,-0.5715
1.107,-0.5981
1.108,-0.6222
1.109,-0.6442
1.11,-0.6243
1.111,-0.6424
1.112,-0.6259
1.113,-0.6409
1.114,-0.6818
1.115,-0.6195
1.116,-0.6532
1.117,-0.6429
1.118,-0.6896
1.119,-0.7488
1.12,-0.7718
1.121,-0.7788
1.122,-0.7544
1.123,-0.7988
1.124,-0.7121
1.125,-0.5254
1.126,-0.9255
1.127,-1.7831
1.128,-0.4344
1.129,2.2587
1.13,8.0326
1.131,7.2828
1.132,7.9647
1.133,7.3449
1.134,3.4002
1.135,1.8632
1.136,1.3976
1.137,0.9743
1.138,0.5894
1.139,0.9393
1.14,1.2573
1.141,2.1247
1.142,2.3875
1.143,2.6264
1.144,2.8436
1.145,3.4359
1.146,3.6154
1.147,3.7785
1.148,3.9268
1.149,4.0616
1.15,4.1841
1.151,4.0728
1.152,4.174
1.153,4.2661
1.154,4.1824
1.155,4.1065
1.156,4.1757
1.157,4.1129
1.158,4.0557
1.159,4.1077
1.16,4.0605
1.161,4.1033
1.162,4.0643
1.163,4.0288
1.164,4.061
1.165,3.797
1.166,3.7615
1.167,3.8582
1.168,3.8289
1.169,3.8554
1.17,3.8312
1.171,3.8093
1.172,3.8292
1.173,-0.6285
1.174,-0.6466
1.175,-0.6631
1.176,-0.4373
1.177,0.0468
1.178,1.085
1.179,2.1238
1.18,4.1471
1.181,2.1231
1.182,1.8603
1.183,1.6213
1.184,1.8385
1.185,2.4309
1.186,2.6103
1.187,3.0999
1.188,3.5451
1.189,3.6798
1.19,4.0475
1.191,4.1588
1.192,4.4628
1.193,4.5549
1.194,4.8061
1.195,4.8821
1.196,4.9513
1.197,5.0141
1.198,5.0712
1.199,5.1232
1.2,5.076
1.201,5.1188
1.202,5.0798
1.203,5.0443
1.204,5.0121
1.205,5.0414
1.206,5.0148
1.207,4.9421
1.208,4.9202
1.209,4.9002
1.21,4.9183
1.211,4.9019
1.212,4.9169
1.213,4.9033
1.214,4.8909
1.215,4.9246
1.216,4.8938
1.217,4.9031
1.218,4.8608
1.219,4.8378
1.22,4.7607
1.221,4.7299
1.222,4.7206
1.223,4.6783
1.224,-0.7603
1.225,-0.7988
1.226,-0.8057
1.227,-0.7103
1.228,-0.5052
1.229,-0.0652
1.23,0.8783
1.231,-0.8753
1.232,-3.8812
1.233,-3.8812
1.234,-3.8812
1.235,-3.5312
1.236,-3.2132
1.237,-2.3458
1.238,-2.0831
1.239,-1.8441
1.24,-1.6269
1.241,-1.4296
1.242,-1.2501
1.243,-1.087
1.244,-0.9387
1.245,-0.8039
1.246,-0.6814
1.247,-0.5701
1.248,-0.4688
1.249,-0.3767
1.25,-0.4604
1.251,-0.3844
1.252,-0.4536
1.253,-0.5164
1.254,-0.4593
1.255,-0.5113
1.256,-0.5585
1.257,-0.6014
1.258,-0.5624
1.259,-0.5979
1.26,-0.5657
1.261,-0.595
1.262,-0.5684
1.263,-0.5926
1.264,-0.6146
1.265,-0.5545
1.266,-0.6091
1.267,-0.5926
1.268,-0.6376
1.269,-0.6512
1.27,-0.7134
1.271,-0.7698
1.272,-0.7801
1.273,-0.8268
1.274,-0.8184
1.275,-0.7654
1.276,-0.8039
1.277,-0.7689
1.278,-0.6735
1.279,-0.4684
1.28,-0.0284
1.281,-0.5946
1.282,-1.7364
1.283,-3.532
1.284,-3.293
1.285,-3.0759
1.286,-2.4835
1.287,-2.3041
1.288,-1.8144
1.289,-1.6661
1.29,-1.5314
1.291,-1.4089
1.292,-1.0747
1.293,-0.9734
1.294,-0.8813
1.295,-0.7977
1.296,-0.7217
1.297,-0.6525
1.298,-0.5897
1.299,-0.5325
1.3,-0.4805
1.301,-0.5278
1.302,-0.4849
1.303,-0.5239
1.304,-0.5594
1.305,-0.5917
1.306,-0.621
1.307,-0.5944
1.308,-0.6186
1.309,-0.6406
1.31,-0.6206
1.311,-0.6387
1.312,-0.6222
1.313,-0.6373
1.314,-0.6237
1.315,-0.6113
1.316,-0.6224
1.317,-0.6327
1.318,-0.6607
1.319,-0.7371
1.32,-0.7678
1.321,-0.7958
1.322,-0.8043
1.323,-0.8273
1.324,-0.8064
1.325,-0.8253
1.326,-0.7874
1.327,-0.7817
1.328,-0.703
1.329,-0.5336
1.33,-0.1698
1.331,0.6102
1.332,0.9444
1.333,-0.5757
1.334,-3.8346
1.335,-3.369
1.336,-2.9457
1.337,-2.5608
1.338,-2.2109
1.339,-1.8928
1.34,-1.6037
1.341,-1.3409
1.342,-1.5799
1.343,-1.3627
1.344,-1.1653
1.345,-0.9859
1.346,-0.8227
1.347,-0.6744
1.348,-0.5397
1.349,-0.6622
1.35,-0.5508
1.351,-0.4496
1.352,-0.5417
1.353,-0.458
1.354,-0.534
1.355,-0.6032
1.356,-0.5404
1.357,-0.5975
1.358,-0.5455
1.359,-0.5928
1.36,-0.6356
1.361,-0.5966
1.362,-0.6321
1.363,-0.5999
1.364,-0.6292
1.365,-0.5494
1.366,-0.6221
1.367,-0.6001
1.368,-0.6601
1.369,-0.642
1.37,-0.3935
1.371,0.1393
1.372,-1.0026
1.373,-2.1451
1.374,-1.9968
1.375,-1.8621
1.376,-1.7396
1.377,-1.5074
1.378,-1.396
1.379,-1.0921
1.38,0.29
1.381,2.0676
1.382,2.3065
1.383,5.5654
1.384,6.9625
1.385,2.3049
1.386,1.6851
1.387,1.1217
1.388,1.634
1.389,2.0996
1.39,2.523
1.391,2.9078
1.392,3.2578
1.393,3.5758
1.394,3.8649
1.395,4.1277
1.396,3.8887
1.397,4.1059
1.398,4.3033
1.399,4.4827
1.4,4.6459
1.401,4.4976
1.402,4.6323
1.403,4.5098
1.404,4.6212
1.405,4.5199
1.406,4.612
1.407,4.5283
1.408,4.6043
1.409,4.5351
1.41,4.4723
1.411,4.5294
1.412,4.5814
1.413,4.5342
1.414,4.4913
1.415,4.6083
1.416,4.5018
1.417,4.4696
1.418,4.4403
1.419,4.4137
1.42,4.3895
1.421,4.3236
1.422,4.2636
1.423,4.209
1.424,4.2255
1.425,4.2105
1.426,4.1969
1.427,4.2094
1.428,-0.6878
1.429,-0.7215
1.43,-0.6907
1.431,-0.5507
1.432,-0.25
1.433,0.3945
1.434,1.7766
1.435,0.3942
1.436,-2.2989
1.437,-3.8812
1.438,-3.8812
1.439,-3.5631
1.44,-3.274
1.441,-2.4855
1.442,-2.2466
1.443,-2.0294
1.444,-1.832
1.445,-1.2935
1.446,-1.1304
1.447,-0.982
1.448,-0.8473
1.449,-0.7248
1.45,-0.6135
1.451,-0.5122
1.452,-0.6043
1.453,-0.5206
1.454,-0.4446
1.455,-0.5138
1.456,-0.5767
1.457,-0.5195
1.458,-0.5715
1.459,-0.5243
1.46,-0.5671
1.461,-0.5281
1.462,-0.4926
1.463,-0.5248
1.464,-0.4955
1.465,-0.469
1.466,-0.4932
1.467,-0.5151
1.468,-0.5752
1.469,-0.5933
1.47,-0.6429
1.471,-0.6579
1.472,-0.6988
1.473,-0.761
1.474,-0.7722
1.475,-0.7825
1.476,-0.7918
1.477,-0.7834
1.478,-0.7603
1.479,-0.6805
1.48,-0.6874
1.481,-0.7191
1.482,-0.6325
1.483,-0.4457
1.484,-0.0456
1.485,0.812
1.486,1.6702
1.487,2.0044
1.488,0.4843
1.489,-2.7746
1.49,-3.8812
1.491,-3.8812
1.492,-3.8812
1.493,-3.5312
1.494,-3.2132
1.495,-2.3458
1.496,-2.0831
1.497,-1.8441
1.498,-1.6269
1.499,-1.0346
1.5,-0.8552
1.501,-0.692
1.502,-0.5437
1.503,-0.6785
1.504,-0.556
1.505,-0.4446
1.506,-0.5459
1.507,-0.4538
1.508,-0.3701
1.509,-0.4461
1.51,-0.3769
1.511,-0.4397
1.512,-0.3826
1.513,-0.3306
1.514,-0.3778
1.515,-0.335
1.516,-0.374
1.517,-0.4095
1.518,-0.4417
1.519,-0.471
1.52,-0.5508
1.521,-0.575
1.522,-0.597
1.523,-0.6169
1.524,-0.6351
1.525,-0.6847
1.526,-0.7599
1.527,-0.7464
1.528,-0.709
1.529,-0.6979
1.53,-0.638
1.531,-0.6277
1.532,-0.6371
1.533,-0.51
1.534,-0.2368
1.535,0.3489
1.536,-0.0698
1.537,-1.2117
1.538,-3.6601
1.539,-3.3102
1.54,-2.9922
1.541,-2.7031
1.542,-2.4403
1.543,-2.2013
1.544,-1.5497
1.545,-1.3523
1.546,-1.1728
1.547,-1.0097
1.548,-0.8614
1.549,-0.7266
1.55,-0.6041
1.551,-0.7154
1.552,-0.6142
1.553,-0.5221
1.554,-0.6058
1.555,-0.5298
1.556,-0.599
1.557,-0.6618
1.558,-0.6047
1.559,-0.6567
1.56,-0.6094
1.561,-0.5666
1.562,-0.6056
1.563,-0.5701
1.564,-0.6023
1.565,-0.573
1.566,-0.5995
1.567,-0.5754
1.568,-0.5973
1.569,-0.6173
1.57,-0.6354
1.571,-0.685
1.572,-0.7603
1.573,-0.8011
1.574,-0.8136
1.575,-0.7799
1.576,-0.8107
1.577,-0.7826
1.578,-0.7574
1.579,-0.7343
1.58,-0.7413
1.581,-0.6717
1.582,-0.6528
1.583,-0.5662
1.584,-0.3794
1.585,0.0206
1.586,0.8783
1.587,1.9819
1.588,-0.2441
1.589,-3.7433
1.59,-3.8812
1.591,-3.4578
1.592,-3.0729
1.593,-2.723
1.594,-2.405
1.595,-2.1158
1.596,-1.8531
1.597,-1.6141
1.598,-1.397
1.599,-1.1996
1.6,-1.0201
1.601,-0.857
1.602,-0.7087
1.603,-0.5739
1.604,-0.6964
1.605,-0.5851
1.606,-0.6863
1.607,-0.5942
1.608,-0.5106
1.609,-0.5865
1.61,-0.5173
1.611,-0.5801
1.612,-0.523
1.613,-0.471
1.614,-0.5182
1.615,-0.4754
1.616,0.1104
1.617,1.3668
1.618,-1.3263
1.619,-1.7112
1.62,-2.0611
1.621,-1.743
1.622,-1.4539
1.623,-1.7167
1.624,-1.4777
1.625,-1.2605
1.626,-1.0632
1.627,-0.8837
1.628,-0.7206
1.629,-0.8689
1.63,-0.7341
1.631,-0.6116
1.632,-0.5706
1.633,-0.6819
1.634,-0.378
1.635,1.0041
1.636,1.9916
1.637,2.171
1.638,4.6195
1.639,2.1701
1.64,1.8521
1.641,2.1412
1.642,2.4039
1.643,3.1208
1.644,3.338
1.645,3.9303
1.646,4.1098
1.647,4.2729
1.648,4.718
1.649,4.8528
1.65,4.9753
1.651,5.0866
1.652,4.9854
1.653,5.0775
1.654,5.1611
1.655,5.0852
1.656,5.1544
1.657,5.2172
1.658,5.16
1.659,5.212
1.66,5.1648
1.661,5.2077
1.662,5.2467
1.663,5.2111
1.664,5.1789
1.665,5.2668
1.666,5.2402
1.667,5.2161
1.668,5.1502
1.669,5.1302
1.67,5.1121
1.671,5.0956
1.672,5.0806
1.673,5.0397
1.674,4.9775
1.675,5.1469
1.676,5.171
1.677,5.1491
1.678,5.1291
1.679,5.111
1.68,5.0613
1.681,4.9861
1.682,4.9996
1.683,-0.6929
1.684,-0.7303
1.685,-0.764
1.686,-0.61
1.687,-0.2797
1.688,0.4295
1.689,1.9497
1.69,-1.3093
1.691,-3.638
1.692,-3.8812
1.693,-3.8812
1.694,-3.5312
1.695,-3.2132
1.696,-2.3458
1.697,-2.0831
1.698,-1.8441
1.699,-1.6269
1.7,-1.4296
1.701,-1.2501
1.702,-1.087
1.703,-0.9387
1.704,-0.8039
1.705,-0.6814
1.706,-0.7927
1.707,-0.6915
1.708,-0.5994
1.709,-0.683
1.71,-0.607
1.711,-0.5378
1.712,-0.475
1.713,-0.5322
1.714,-0.4802
1.715,-0.4329
1.716,-0.4758
1.717,-0.5148
1.718,-0.5503
1.719,-0.5825
1.72,-0.6118
1.721,-0.6384
1.722,-0.6142
1.723,-0.6801
1.724,-0.7402
1.725,-0.722
1.726,-0.7385
1.727,-0.7235
1.728,-0.71
1.729,-0.6975
1.73,-0.6863
1.731,-0.6761
1.732,-0.6481
1.733,-0.6565
1.734,-0.6175
1.735,-0.6559
1.736,-0.7471
1.737,-0.5604
1.738,-0.1603
1.739,0.6974
1.74,1.0651
1.741,-0.6069
1.742,-3.7138
1.743,-3.2905
1.744,-2.9056
1.745,-2.5557
1.746,-2.2376
1.747,-1.9485
1.748,-1.6857
1.749,-1.4468
1.75,-1.2296
1.751,-1.0322
1.752,-0.8528
1.753,-1.0159
1.754,-0.8676
1.755,-0.7328
1.756,-0.6103
1.757,-0.7217
1.758,-0.6204
1.759,-0.5283
1.76,-0.612
1.761,-0.536
1.762,-0.4668
1.763,-0.5296
1.764,-0.4725
1.765,-0.4205
1.766,-0.4677
1.767,-0.5106
1.768,-0.5496
1.769,-0.5851
1.77,-0.6173
1.771,-0.6466
1.772,-0.62
1.773,-0.6927
1.774,-0.7587
1.775,-0.7387
1.776,-0.7568
1.777,-0.7403
1.778,-0.7253
1.779,-0.7118
1.78,-0.7242
1.781,-0.7131
1.782,-0.6823
1.783,-0.673
1.784,-0.6814
1.785,-0.6219
1.786,-0.6913
1.787,-0.738
1.788,-0.6109
1.789,-0.3377
1.79,0.2481
1.791,1.5045
1.792,0.966
1.793,-1.4825
1.794,-3.8812
1.795,-3.8812
1.796,-3.592
1.797,-3.3293
1.798,-2.6124
1.799,-2.3953
1.8,-1.8029
1.801,-1.6235
1.802,-1.4603
1.803,-1.312
1.804,-1.1772
1.805,-1.0547
1.806,-0.9434
1.807,-0.8422
1.808,-0.7501
1.809,-0.6664
1.81,-0.5904
1.811,-0.5212
1.812,-0.4584
1.813,-0.5155
1.814,-0.4635
1.815,-0.4163
1.816,-0.3734
1.817,-0.4124
1.818,-0.4479
1.819,-0.4802
1.82,-0.5095
1.821,-0.536
1.822,-0.5602
1.823,-0.6261
1.824,-0.6061
1.825,-0.6243
1.826,-0.6407
1.827,-0.6858
1.828,-0.6722
1.829,-0.6598
1.83,-0.671
1.831,-0.6607
1.832,-0.6327
1.833,-0.6411
1.834,-0.6642
1.835,-0.7413
1.836,-0.7076
1.837,-0.7383
1.838,-0.673
1.839,-0.5459
1.84,-0.2727
1.841,0.3131
1.842,1.402
1.843,-0.824
1.844,-3.6871
1.845,-3.8812
1.846,-3.5312
1.847,-2.5771
1.848,-2.288
1.849,-2.0252
1.85,-1.7862
1.851,-1.5691
1.852,-1.3717
1.853,-1.1923
1.854,-1.0291
1.855,-0.8808
1.856,-0.746
1.857,-0.8685
1.858,-0.7572
1.859,-0.6559
1.86,-0.5638
1.861,-0.3126
1.862,0.8292
1.863,0.6661
1.864,-1.5599
1.865,-1.878
1.866,-1.5889
1.867,-1.3261
1.868,-1.5651
1.869,-1.3479
1.87,-1.1505
1.871,-0.9711
1.872,-0.8079
1.873,-0.9562
1.874,-0.8215
1.875,-0.699
1.876,-0.8103
1.877,-0.709
1.878,-0.6169
1.879,-0.5333
1.88,-0.6092
1.881,-0.54
1.882,-0.6028
1.883,-0.5457
1.884,-0.5977
1.885,-0.5505
1.886,-0.5933
1.887,-0.5955
1.888,-0.6345
1.889,-0.4569
1.89,0.0272
1.891,1.0654
1.892,2.1042
1.893,2.239
1.894,3.0972
1.895,2.3171
1.896,2.2159
1.897,2.308
1.898,2.8943
1.899,3.2748
1.9,3.7593
1.901,4.0737
1.902,4.3595
1.903,4.6195
1.904,4.7612
1.905,4.976
1.906,5.093
1.907,5.1996
1.908,5.3609
1.909,5.3902
1.91,5.47
1.911,5.5427
1.912,5.5647
1.913,5.6248
1.914,5.6429
1.915,5.6925
1.916,5.6775
1.917,5.691
1.918,5.6537
1.919,5.62
1.92,5.5892
1.921,5.5426
1.922,5.5003
1.923,5.4772
1.924,5.4702
1.925,5.4514
1.926,5.4457
1.927,5.4301
1.928,5.4158
1.929,5.4374
1.93,5.4413
1.931,5.4448
1.932,5.4479
1.933,5.445
1.934,5.4316
1.935,5.3952
1.936,5.3164
1.937,5.3052
1.938,-0.7464
1.939,-0.7772
1.94,-0.8238
1.941,-0.6968
1.942,-0.4236
1.943,0.1622
1.944,1.4186
1.945,-1.2745
1.946,-3.8812
1.947,-3.5312
1.948,-3.2132
1.949,-2.9241
1.95,-2.6613
1.951,-1.9444
1.952,-1.7273
1.953,-1.5299
1.954,-1.3505
1.955,-1.1873
1.956,-1.039
1.957,-0.9042
1.958,-0.7817
1.959,-0.6704
1.96,-0.7717
1.961,-0.6796
1.962,-0.5959
1.963,-0.5199
1.964,-0.4507
1.965,-0.3879
1.966,-0.445
1.967,-0.393
1.968,-0.4402
1.969,-0.4831
1.97,-0.5221
1.971,-0.5576
1.972,-0.5898
1.973,-0.6191
1.974,-0.6457
1.975,-0.6699
1.976,-0.6918
1.977,-0.6719
1.978,-0.6537
1.979,-0.6373
1.98,-0.6523
1.981,-0.6658
1.982,-0.6534
1.983,-0.6422
1.984,-0.673
1.985,-0.7383
1.986,-0.7636
1.987,-0.7867
1.988,-0.8075
1.989,-0.7405
1.99,-0.8105
1.991,-0.7825
1.992,-0.6554
1.993,-0.3822
1.994,0.2036
1.995,1.46
1.996,-1.2331
1.997,-3.8812
1.998,-3.8812
1.999,-3.5631
2,-3.274
2.001,-3.0112
2.002,-2.2944
2.003,-2.0772
2.004,-1.8798
2.005,-1.7004
2.006,-1.2107
2.007,-1.3591
2.008,-0.9546
2.009,-0.8321
2.01,-0.7208
2.011,-0.6195
2.012,-0.5274
2.013,-0.6111
2.014,-0.5351
2.015,-0.4659
2.016,-0.4031
2.017,-0.4602
2.018,-0.4082
2.019,-0.4554
2.02,-0.4983
2.021,-0.5373
2.022,-0.5728
2.023,-0.605
2.024,-0.5757
2.025,-0.6023
2.026,-0.6265
2.027,-0.6045
2.028,-0.6244
2.029,-0.6063
2.03,-0.6228
2.031,-0.6078
2.032,-0.6213
2.033,-0.6338
2.034,-0.6226
2.035,-0.6534
2.036,-0.7187
2.037,-0.7779
2.038,-0.7856
2.039,-0.8064
2.04,-0.7691
2.041,-0.8008
2.042,-0.7142
2.043,-0.5274
2.044,-0.1273
2.045,0.7304
2.046,0.3627
2.047,-1.3093
2.048,-3.8812
2.049,-3.5312
2.05,-3.2132
2.051,-2.9241
2.052,-2.1356
2.053,-1.8967
2.054,-1.6795
2.055,-1.4821
2.056,-1.3027
2.057,-1.1395
2.058,-0.9912
2.059,-0.8564
2.06,-0.7339
2.061,-0.6226
2.062,-0.5214
2.063,-0.6135
2.064,-0.5298
2.065,-0.4538
2.066,-0.523
2.067,-0.4602
2.068,-0.5173
2.069,-0.4653
2.07,-0.5126
2.071,-0.5554
2.072,-0.5944
2.073,-0.6299
2.074,-0.5977
2.075,-0.627
2.076,-0.6536
2.077,-0.6294
2.078,-0.6514
2.079,-0.6314
2.08,-0.6495
2.081,-0.633
2.082,-0.6481
2.083,-0.6345
2.084,-0.647
2.085,-0.7259
2.086,-0.7772
2.087,-0.7678
2.088,-0.8101
2.089,-0.8024
2.09,-0.8374
2.091,-0.7815
2.092,-0.8132
2.093,-0.7266
2.094,-0.5398
2.095,-0.1398
2.096,0.7179
2.097,2.0667
2.098,-0.6265
2.099,-3.8812
2.1,-3.8812
2.101,-3.4578
2.102,-3.0729
2.103,-2.723
2.104,-2.405
2.105,-2.1158
2.106,-1.8531
2.107,-0.1802
2.108,2.2097
2.109,4.4362
2.11,3.5689
2.111,3.8316
2.112,4.0706
2.113,4.2877
2.114,4.4851
2.115,5.0236
2.116,5.1868
2.117,5.3351
2.118,5.4699
2.119,5.3474
2.12,5.4587
2.121,5.5599
2.122,5.4678
2.123,5.5515
2.124,5.4755
2.125,5.5447
2.126,5.6076
2.127,5.5504
2.128,5.6024
2.129,5.6497
2.13,5.6068
2.131,5.6458
2.132,5.6103
2.133,5.6425
2.134,5.6132
2.135,5.5334
2.136,5.5092
2.137,5.4873
2.138,5.4673
2.139,5.4492
2.14,5.3664
2.141,5.3514
2.142,-0.6973
2.143,-0.7109
2.144,-0.6486
2.145,-0.4792
2.146,-0.1154
2.147,0.6646
2.148,2.1137
2.149,1.1262
2.15,-1.5669
2.151,-3.8812
2.152,-3.8812
2.153,-3.5631
2.154,-3.274
2.155,-3.0112
2.156,-2.2944
2.157,-2.0772
2.158,-1.8798
2.159,-1.7004
2.16,-1.2107
2.161,-1.0624
2.162,-0.9277
2.163,-0.8052
2.164,-0.6938
2.165,-0.5926
2.166,-0.5005
2.167,-0.4168
2.168,-0.4928
2.169,-0.4236
2.17,-0.4864
2.171,-0.4293
2.172,-0.4813
2.173,-0.5285
2.174,-0.5713
2.175,-0.5323
2.176,-0.5679
2.177,-0.5356
2.178,-0.5649
2.179,-0.5384
2.18,-0.5626
2.181,-0.5845
2.182,-0.5245
2.183,-0.579
2.184,-0.8275
2.185,-0.9341
2.186,-0.8374
2.187,-0.8667
2.188,-0.7869
2.189,-0.811
2.19,-0.833
2.191,-0.7729
2.192,-0.7911
2.193,-0.7054
2.194,-0.6889
2.195,-0.6739
2.196,-0.4688
2.197,-0.0288
2.198,0.9147
2.199,2.1287
2.2,4.5772
2.201,2.1278
2.202,1.8098
2.203,1.5206
2.204,1.7834
2.205,2.5003
2.206,2.7174
2.207,3.3098
2.208,3.4892
2.209,3.6524
2.21,4.0975
2.211,4.2322
2.212,4.3547
2.213,4.6889
2.214,4.7902
2.215,4.8823
2.216,4.7986
2.217,4.8746
2.218,4.9438
2.219,4.881
2.22,4.9381
2.221,4.8861
2.222,4.8389
2.223,4.8817
2.224,4.8427
2.225,4.8782
2.226,4.846
2.227,4.8167
2.228,4.8433
2.229,4.8674
2.23,4.8455
2.231,4.8255
2.232,4.8436
2.233,4.8272
2.234,4.8121
2.235,4.7986
2.236,4.7612
2.237,4.7501
2.238,4.6988
2.239,4.6334
2.24,4.6082
2.241,4.6159
2.242,4.5809
2.243,4.6126
2.244,-0.7178
2.245,-0.7235
2.246,-0.7391
2.247,-0.6675
2.248,-0.5135
2.249,-0.1832
2.25,0.526
2.251,1.2354
2.252,1.8803
2.253,1.4615
2.254,0.3197
2.255,-1.1494
2.256,-0.1619
2.257,1.0947
2.258,-1.3538
2.259,-3.1033
2.26,-0.2403
2.261,-0.6252
2.262,-3.7746
2.263,-2.5044
2.264,0.19
2.265,-1.5596
2.266,-3.7861
2.267,-3.8812
2.268,-2.0411
2.269,-0.8462
2.27,-1.0633
2.271,1.5043
2.272,-0.2452
2.273,-3.7444
2.274,-3.8812
2.275,-3.8812
2.276,-3.8812
2.277,-3.5312
2.278,-3.2132
2.279,-2.3458
2.28,-1.5574
2.281,-1.3184
2.282,-0.6667
2.283,-0.4694
2.284,-0.2899
2.285,-0.1268
2.286,0.0216
2.287,0.1563
2.288,0.2788
2.289,0.3901
2.29,0.2889
2.291,0.381
2.292,0.2973
2.293,0.3733
2.294,0.3041
2.295,0.3903
2.296,0.3275
2.297,0.2704
2.298,1.0504
2.299,2.0537
2.3,2.1884
2.301,4.0277
2.302,6.3938
2.303,2.2584
2.304,1.695
2.305,2.2073
2.306,2.6729
2.307,3.0963
2.308,3.4811
2.309,3.8311
2.31,4.1491
2.311,4.4382
2.312,4.701
2.313,4.462
2.314,4.6792
2.315,4.8766
2.316,5.056
2.317,5.2192
2.318,5.0709
2.319,5.2056
2.32,5.0831
2.321,5.1945
2.322,5.0932
2.323,5.0011
2.324,5.0848
2.325,5.0088
2.326,5.078
2.327,5.0152
2.328,5.0723
2.329,5.0203
2.33,4.9731
2.331,5.0159
2.332,5.0549
2.333,5.0194
2.334,4.9872
2.335,4.9579
2.336,4.9313
2.337,4.9072
2.338,4.8413
2.339,4.8213
2.34,4.7303
2.341,4.7799
2.342,4.7349
2.343,4.7213
2.344,4.7836
2.345,4.7724
2.346,-0.7193
2.347,-0.7501
2.348,-0.7594
2.349,-0.7847
2.35,-0.7923
2.351,-0.7854
2.352,-0.8171
2.353,-0.7305
2.354,-0.5437
2.355,-0.9438
2.356,-1.8014
2.357,0.0379
2.358,1.8779
2.359,2.1168
2.36,1.0306
2.361,-1.932
2.362,-3.8812
2.363,-3.8812
2.364,-3.5312
2.365,-3.2132
2.366,-2.3458
2.367,-2.0831
2.368,-1.8441
2.369,-1.6269
2.37,-1.4296
2.371,-1.2501
2.372,-1.087
2.373,-0.9387
2.374,-0.8039
2.375,-0.6814
2.376,-0.5701
2.377,-0.4688
2.378,-0.5609
2.379,-0.4772
2.38,-0.4012
2.381,-0.4704
2.382,-0.4076
2.383,-0.4648
2.384,-0.4128
2.385,-0.46
2.386,-0.5029
2.387,-0.5419
2.388,-0.5774
2.389,-0.6096
2.39,-0.6389
2.391,-0.6124
2.392,-0.6365
2.393,-0.6585
2.394,-0.6385
2.395,-0.6567
2.396,-0.6402
2.397,-0.6116
2.398,-0.5966
2.399,-0.5831
2.4,-0.3963
2.401,0.0038
2.402,0.8615
2.403,1.2291
2.404,-0.4428
2.405,-3.8812
2.406,-3.3688
2.407,-2.9032
2.408,-2.4798
2.409,-2.8647
2.41,-1.815
2.411,-1.4969
2.412,-1.7861
2.413,-1.5233
2.414,-1.2844
2.415,-1.0672
2.416,-0.8698
2.417,-0.6904
2.418,-0.5272
2.419,-0.6755
2.42,-0.5408
2.421,-0.6633
2.422,-0.5519
2.423,-0.6532
2.424,-0.5611
2.425,-0.6448
2.426,-0.5688
2.427,-0.638
2.428,-0.5752
2.429,-0.5181
2.43,-0.5701
2.431,-0.5228
2.432,-0.5657
2.433,-0.5267
2.434,-0.5622
2.435,-0.5944
2.436,-0.6237
2.437,-0.6503
2.438,-0.6744
2.439,-0.7403
2.44,-0.8004
2.441,-0.7823
2.442,-0.7988
2.443,-0.7837
2.444,-0.7702
2.445,-0.7577
2.446,-0.7466
2.447,-0.7568
2.448,-0.6482
2.449,-0.6389
2.45,-0.6473
2.451,-0.5318
2.452,-0.2833
2.453,0.2495
2.454,1.3914
2.455,1.881
2.456,2.0293
2.457,0.006
2.458,-3.7533
2.459,-3.8812
2.46,-3.8812
2.461,-3.8812
2.462,-3.4963
2.463,-3.1464
2.464,-2.8283
2.465,-1.9609
2.466,-1.6982
2.467,-1.4592
2.468,-1.2421
2.469,-1.0447
2.47,-0.8652
2.471,-0.7021
2.472,-0.5538
2.473,-0.6885
2.474,-0.566
2.475,-0.4547
2.476,-0.3534
2.477,-0.4455
2.478,-0.3619
2.479,-0.2859
2.48,-0.3551
2.481,-0.2923
2.482,-0.3494
2.483,-0.2974
2.484,-0.3447
2.485,-0.3875
2.486,-0.4265
2.487,-0.462
2.488,-0.5587
2.489,-0.5294
2.49,-0.6092
2.491,-0.6334
2.492,-0.6554
2.493,-0.6354
2.494,-0.6536
2.495,-0.6371
2.496,-0.6521
2.497,-0.6656
2.498,-0.6532
2.499,-0.5875
2.5,-0.6439
2.501,-0.5721
2.502,-0.432
2.503,-0.1313
2.504,0.5132
2.505,1.8953
2.506,-1.0674
2.507,-3.8812
2.508,-3.8812
2.509,-3.5312
2.51,-3.2132
2.511,-2.9241
2.512,-2.1356
2.513,-1.8967
2.514,-1.6795
2.515,-1.4821
2.516,-1.3027
2.517,-1.1395
2.518,-0.9912
2.519,-0.8564
2.52,-0.7339
2.521,-0.6226
2.522,-0.5214
2.523,-0.6135
2.524,-0.5298
2.525,-0.6058
2.526,-0.5366
2.527,-0.5994
2.528,-0.5422
2.529,-0.4902
2.53,-0.5375
2.531,-0.4946
2.532,-0.4556
2.533,-0.4911
2.534,-0.5234
2.535,-0.5527
2.536,-0.5792
2.537,-0.6034
2.538,-0.6254
2.539,-0.6453
2.54,-0.7363
2.541,-0.7528
2.542,-0.7678
2.543,-0.7543
2.544,-0.7418
2.545,-0.7081
2.546,-0.7184
2.547,-0.709
2.548,-0.7006
2.549,-0.6929
2.55,-0.597
2.551,-0.6601
2.552,-0.5499
2.553,-0.3241
2.554,0.16
2.555,1.1982
2.556,-1.0278
2.557,-3.8812
2.558,-3.4963
2.559,-3.1464
2.56,-2.8283
2.561,-2.5392
2.562,-2.2764
2.563,-1.5596
2.564,-1.3424
2.565,-1.145
2.566,-0.9656
2.567,-0.8024
2.568,-0.9507
2.569,-0.816
2.57,-0.6935
2.571,-0.8048
2.572,-0.7035
2.573,-0.6114
2.574,-0.6951
2.575,-0.6191
2.576,-0.6883
2.577,-0.6255
2.578,-0.5684
2.579,-0.6204
2.58,-0.5732
2.581,-0.5303
2.582,-0.5693
2.583,-0.5338
2.584,-0.566
2.585,-0.5953
2.586,-0.6219
2.587,-0.646
2.588,-0.712
2.589,-0.7319
2.59,-0.7865
2.591,-0.77
2.592,-0.785
2.593,-0.7715
2.594,-0.759
2.595,-0.7479
2.596,-0.7171
2.597,-0.7264
2.598,-0.7012
2.599,-0.5856
2.6,-0.3371
2.601,-2.0875
2.602,-1.9809
2.603,-1.8842
2.604,-1.4442
2.605,-0.5007
2.606,1.5227
2.607,2.39
2.608,6.3334
2.609,2.3887
2.61,1.8764
2.611,1.4108
2.612,1.8341
2.613,2.219
2.614,2.5689
2.615,2.887
2.616,3.7543
2.617,4.0171
2.618,3.7781
2.619,3.9953
2.62,4.1927
2.621,4.3721
2.622,4.5353
2.623,4.6836
2.624,4.8184
2.625,4.6959
2.626,4.8072
2.627,4.9085
2.628,4.8164
2.629,4.9
2.63,4.824
2.631,4.8933
2.632,4.9561
2.633,4.8989
2.634,4.8469
2.635,4.7997
2.636,4.7568
2.637,4.7178
2.638,4.6823
2.639,4.6501
2.64,4.6794
2.641,4.6528
2.642,4.677
2.643,4.655
2.644,4.6351
2.645,4.6532
2.646,4.6367
2.647,4.6217
2.648,4.6353
2.649,4.6228
2.65,4.5891
2.651,4.5379
2.652,-0.7002
2.653,-0.7469
2.654,-0.7722
2.655,-0.6567
2.656,-0.4082
2.657,0.1246
2.658,1.2665
2.659,1.1033
2.66,-1.1227
2.661,-3.8812
2.662,-3.8812
2.663,-3.8812
2.664,-3.5631
2.665,-2.6957
2.666,-2.433
2.667,-2.194
2.668,-1.9769
2.669,-1.3845
2.67,-1.2051
2.671,-1.0419
2.672,-0.8936
2.673,-0.7588
2.674,-0.6363
2.675,-0.7477
2.676,-0.6464
2.677,-0.5543
2.678,-0.4706
2.679,-0.3946
2.68,-0.4639
2.681,-0.4011
2.682,-0.3439
2.683,-0.3959
2.684,-0.4432
2.685,-0.486
2.686,-0.525
2.687,-0.5605
2.688,-0.5928
2.689,-0.6221
2.69,-0.5955
2.691,-0.6197
2.692,-0.3333
2.693,-0.4503
2.694,-0.4858
2.695,-0.5181
2.696,-0.6059
2.697,-0.5794
2.698,-0.6036
2.699,-0.6255
2.7,-0.6856
2.701,-0.7766
2.702,-0.7931
2.703,-0.7515
2.704,-0.8268
2.705,-0.8403
2.706,-0.6536
2.707,-0.2535
2.708,0.6042
2.709,2.1983
2.71,5.4572
2.711,2.197
2.712,1.7737
2.713,1.3888
2.714,1.7387
2.715,2.0568
2.716,2.9241
2.717,3.1869
2.718,3.4259
2.719,3.643
2.72,3.8404
2.721,4.0198
2.722,4.183
2.723,4.3313
2.724,4.4661
2.725,4.5886
2.726,4.6999
2.727,4.5986
2.728,4.6907
2.729,4.7744
2.73,4.8504
2.731,4.7812
2.732,4.844
2.733,4.9011
2.734,4.8491
2.735,4.8019
2.736,4.759
2.737,4.72
2.738,4.6845
2.739,4.6523
2.74,4.6816
2.741,4.655
2.742,4.6309
2.743,4.6528
2.744,4.6329
2.745,4.6148
2.746,4.6312
2.747,4.6462
2.748,4.6327
2.749,4.6452
2.75,4.6115
2.751,4.5397
2.752,4.5117
2.753,4.5032
2.754,-0.7391
2.755,-0.7775
2.756,-0.8125
2.757,-0.7171
2.758,-0.512
2.759,-0.072
2.76,-0.2606
2.761,-1.1183
2.762,-2.9576
2.763,-3.2203
2.764,-2.9814
2.765,-2.3297
2.766,-2.1323
2.767,-1.9529
2.768,-1.7897
2.769,-1.3446
2.77,-1.2098
2.771,-1.0873
2.772,-0.976
2.773,-0.8747
2.774,-0.7826
2.775,-0.699
2.776,-0.623
2.777,-0.5538
2.778,-0.6166
2.779,-0.5594
2.78,-0.5074
2.781,-0.4602
2.782,-0.503
2.783,-0.542
2.784,-0.5065
2.785,-0.5387
2.786,-0.568
2.787,-0.5946
2.788,-0.6188
2.789,-0.6407
2.79,-0.6208
2.791,-0.6753
2.792,-0.725
2.793,-0.71
2.794,-0.6964
2.795,-0.684
2.796,-0.7176
2.797,-0.6664
2.798,-0.6197
2.799,-0.6449
2.8,-0.6526
2.801,-0.7438
2.802,-0.7812
2.803,-0.8149
2.804,-0.8046
2.805,-0.7581
2.806,-0.8235
2.807,-0.7132
2.808,-0.4875
2.809,-0.0033
2.81,1.0349
2.811,2.0736
2.812,0.0503
2.813,-3.709
2.814,-3.8812
2.815,-3.4155
2.816,-2.9922
2.817,-2.6073
2.818,-2.2574
2.819,-1.9393
2.82,-1.6502
2.821,-1.3874
2.822,-1.1485
2.823,-1.3657
2.824,-1.1683
2.825,-0.9888
2.826,-0.8257
2.827,-0.6774
2.828,-0.5426
2.829,-0.4201
2.83,-0.5314
2.831,-0.4302
2.832,-0.3381
2.833,-0.4217
2.834,-0.4977
2.835,-0.4285
2.836,-0.4913
2.837,-0.5485
2.838,-0.4965
2.839,-0.5437
2.84,-0.5865
2.841,-0.6255
2.842,-0.59
2.843,-0.4933
2.844,-0.0533
2.845,0.8902
2.846,-1.1331
2.847,-2.0005
2.848,-1.7377
2.849,-1.4988
2.85,-1.7159
2.851,-1.5185
2.852,-1.3391
2.853,-1.176
2.854,-1.0276
2.855,-0.8929
2.856,-0.8768
2.857,-0.7543
2.858,-0.6429
2.859,0.8772
2.86,1.9634
2.861,2.1608
2.862,4.8539
2.863,6.7785
2.864,2.2294
2.865,1.6096
2.866,1.0462
2.867,1.5585
2.868,2.0242
2.869,2.4475
2.87,2.8324
2.871,3.1823
2.872,3.5004
2.873,3.2113
2.874,3.474
2.875,3.713
2.876,3.9301
2.877,4.1275
2.878,4.307
2.879,4.4701
2.88,4.3218
2.881,4.4566
2.882,4.579
2.883,4.4677
2.884,4.569
2.885,4.4769
2.886,4.5606
2.887,4.4846
2.888,4.4154
2.889,4.3525
2.89,4.4097
2.891,4.3577
2.892,4.4049
2.893,4.3621
2.894,4.3231
2.895,4.3586
2.896,4.3264
2.897,4.3557
2.898,4.3822
2.899,4.3095
2.9,4.3315
2.901,4.3115
2.902,4.2934
2.903,4.1775
2.904,4.1625
2.905,4.1489
2.906,4.1116
2.907,-0.7369
2.908,-0.7933
2.909,-0.783
2.91,-0.6429
2.911,-0.3423
2.912,0.3023
2.913,1.6843
2.914,0.6968
2.915,1.9535
2.916,0.4844
2.917,-2.4782
2.918,-3.7484
2.919,-3.8812
2.92,-3.8812
2.921,-3.8812
2.922,-3.592
2.923,-2.8036
2.924,-2.5646
2.925,-1.913
2.926,-1.7156
2.927,-1.5361
2.928,-1.0465
2.929,-0.8982
2.93,-0.7634
2.931,-0.6409
2.932,-0.5296
2.933,-0.4283
2.934,-0.3362
2.935,-0.4199
2.936,-0.3439
2.937,-0.2747
2.938,-0.3375
2.939,-0.3946
2.94,-0.3426
2.941,-0.3899
2.942,-0.347
2.943,-0.386
2.944,-0.4216
2.945,-0.3893
2.946,-0.4186
2.947,-0.3921
2.948,-0.4163
2.949,-0.4382
2.95,-0.4582
2.951,-0.5492
2.952,-0.5657
2.953,-0.6107
2.954,-0.6243
2.955,-0.6616
2.956,-0.718
2.957,-0.7283
2.958,-0.6973
2.959,-0.7253
2.96,-0.7338
2.961,-0.6182
2.962,-0.3697
2.963,0.1631
2.964,1.3049
2.965,1.4681
2.966,-0.7579
2.967,-3.621
2.968,-3.8812
2.969,-3.5312
2.97,-3.2132
2.971,-2.9241
2.972,-2.6613
2.973,-1.9444
2.974,-1.7273
2.975,-1.5299
2.976,-1.3505
2.977,-1.1873
2.978,-1.039
2.979,-0.9042
2.98,-0.7817
2.981,-0.4476
2.982,-0.5488
2.983,-0.4567
2.984,-0.5404
2.985,-0.4644
2.986,-0.5336
2.987,-0.4708
2.988,-0.5279
2.989,-0.5799
2.99,-0.5327
2.991,-0.5756
2.992,-0.5366
2.993,-0.5721
2.994,-0.5398
2.995,-0.5691
2.996,-0.5957
2.997,-0.5715
2.998,-0.5496
2.999,-0.5695
3,-0.5876
3.001,-0.6373
3.002,-0.6222
3.003,-0.6905
3.004,-0.7528
3.005,-0.764
3.006,-0.8152
3.007,-0.7872
3.008,-0.8125
3.009,-0.7347
3.01,-0.7424
3.011,-0.6935
3.012,-0.5981
3.013,-0.393
3.014,0.047
3.015,-0.8965
3.016,-2.9199
3.017,-3.209
3.018,-2.9462
3.019,-2.7073
3.02,-2.4901
3.021,-2.2927
3.022,-1.7542
3.023,-1.5911
3.024,-1.4427
3.025,-1.308
3.026,-1.1855
3.027,-0.8513
3.028,-0.7501
3.029,-0.6579
3.03,-0.7416
3.031,-0.5135
3.032,-0.5827
3.033,-0.5199
3.034,-0.577
3.035,-0.525
3.036,-0.5723
3.037,-0.6151
3.038,-0.5761
3.039,-0.6116
3.04,-0.6439
3.041,-0.6146
3.042,-0.6411
3.043,-0.6169
3.044,-0.6389
3.045,-0.6189
3.046,-0.6371
3.047,-0.6206
3.048,-0.6356
3.049,-0.6221
3.05,-0.6345
3.051,-0.6909
3.052,-0.7627
3.053,-0.772
3.054,-0.7973
3.055,-0.805
3.056,-0.8119
3.057,-0.8182
3.058,-0.8125
3.059,-0.8176
3.06,-0.742
3.061,-0.7468
3.062,-0.6818
3.063,-0.5417
3.064,-0.241
3.065,0.4035
3.066,1.7856
3.067,-1.1771
3.068,-3.8812
3.069,-3.8812
3.07,-3.5312
3.071,-3.2132
3.072,-2.9241
3.073,-2.1356
3.074,-1.8967
3.075,-1.6795
3.076,-1.4821
3.077,-1.3027
3.078,-1.1395
3.079,-0.9912
3.08,-0.8564
3.081,-0.7339
3.082,-0.6226
3.083,-0.5214
3.084,-0.4293
3.085,-0.5129
3.086,-0.5889
3.087,-0.5197
3.088,-0.5825
3.089,0.2752
3.09,2.1144
3.091,-0.7773
3.092,-2.702
3.093,-1.6522
3.094,-1.9703
3.095,-1.6811
3.096,-1.4184
3.097,-1.1794
3.098,-0.9623
3.099,-0.7649
3.1,-0.9443
3.101,-0.7812
3.102,-0.9295
3.103,-0.7947
3.104,-0.6722
3.105,-0.7836
3.106,-0.6823
3.107,-0.7744
3.108,-0.6907
3.109,-0.6147
3.11,-0.684
3.111,-0.5626
3.112,-0.6254
3.113,-0.454
3.114,0.3261
3.115,1.998
3.116,2.2369
3.117,5.4959
3.118,2.2357
3.119,2.659
3.12,2.2741
3.121,3.3239
3.122,3.6419
3.123,3.931
3.124,4.1938
3.125,4.4327
3.126,4.6499
3.127,4.8473
3.128,5.0267
3.129,5.1899
3.13,5.3382
3.131,5.473
3.132,5.5955
3.133,5.4841
3.134,5.5854
3.135,5.4933
3.136,5.577
3.137,5.501
3.138,5.5702
3.139,5.5074
3.14,5.5645
3.141,5.5125
3.142,5.5598
3.143,5.5169
3.144,5.5559
3.145,5.5914
3.146,5.5592
3.147,5.5299
3.148,5.5565
3.149,5.5323
3.15,5.5103
3.151,5.4904
3.152,5.4722
3.153,5.4226
3.154,5.3776
3.155,5.3367
3.156,5.2994
3.157,5.3331
3.158,5.2818
3.159,5.3285
3.16,5.3369
3.161,5.3292
3.162,-0.6878
3.163,-0.7087
3.164,-0.6514
3.165,-0.5358
3.166,-0.2873
3.167,0.2455
3.168,1.3873
3.169,-1.0611
3.17,-3.8812
3.171,-3.8812
3.172,-3.4963
3.173,-3.1464
3.174,-2.8283
3.175,-2.5392
3.176,-2.2764
3.177,-1.5596
3.178,-1.3424
3.179,-1.145
3.18,-0.9656
3.181,-0.8024
3.182,-0.6541
3.183,-0.7889
3.184,-0.6664
3.185,-0.555
3.186,-0.6563
3.187,-0.5642
3.188,-0.4805
3.189,-0.5565
3.19,-0.6257
3.191,-0.5629
3.192,-0.62
3.193,-0.568
3.194,-0.5208
3.195,-0.5637
3.196,-0.5246
3.197,-0.4891
3.198,-0.5214
3.199,-0.5507
3.2,-0.7372
3.201,-0.8585
3.202,-0.7925
3.203,-0.8125
3.204,-0.7944
3.205,-0.7779
3.206,-0.7929
3.207,-0.7521
3.208,-0.7645
3.209,-0.7308
3.21,-0.7001
3.211,-0.672
3.212,-0.6298
3.213,-0.597
3.214,-0.5893
3.215,-0.6102
3.216,-0.5148
3.217,-0.3097
3.218,0.1303
3.219,1.0739
3.22,-0.9495
3.221,-3.8812
3.222,-3.4578
3.223,-3.0729
3.224,-2.723
3.225,-2.405
3.226,-2.1158
3.227,-1.8531
3.228,-1.6141
3.229,-1.397
3.23,-1.1996
3.231,-1.0201
3.232,-0.857
3.233,-0.7087
3.234,-0.5739
3.235,-0.6964
3.236,-0.5851
3.237,-0.6863
3.238,-0.5942
3.239,-0.6779
3.24,-0.6019
3.241,-0.6711
3.242,-0.6083
3.243,-0.5512
3.244,-0.6032
3.245,-0.556
3.246,-0.5988
3.247,-0.5598
3.248,-0.5243
3.249,-0.5565
3.25,-0.5858
3.251,-0.6124
3.252,-0.6365
3.253,-0.6585
3.254,-0.7186
3.255,-0.7731
3.256,-0.7896
3.257,-0.7746
3.258,-0.8154
3.259,-0.7781
3.26,-0.7669
3.261,-0.7566
3.262,-0.7473
3.263,-0.7557
3.264,-0.6292
3.265,-0.6523
3.266,-0.6872
3.267,-0.5918
3.268,-0.3868
3.269,0.0532
3.27,0.9968
3.271,1.1315
3.272,0.2733
3.273,1.7224
3.274,0.34
3.275,-2.3531
3.276,-3.5078
3.277,-3.8577
3.278,-3.8812
3.279,-3.8812
3.28,-3.6184
3.281,-2.9015
3.282,-2.6844
3.283,-2.092
3.284,-1.5535
3.285,-1.3904
3.286,-1.2421
3.287,-0.8376
3.288,-0.7151
3.289,-0.6038
3.29,-0.5025
3.291,-0.4104
3.292,-0.3267
3.293,-0.4027
3.294,-0.3335
3.295,-0.2707
3.296,-0.2136
3.297,-0.1616
3.298,-0.2088
3.299,-0.2516
3.3,-0.2126
3.301,-0.2482
3.302,-0.3448
3.303,-0.3741
3.304,-0.4007
3.305,-0.4734
3.306,-0.5393
3.307,-0.5193
3.308,-0.5739
3.309,-0.5574
3.31,-0.5724
3.311,-0.5589
3.312,-0.5962
3.313,-0.6074
3.314,-0.5767
3.315,-0.5362
3.316,-0.5829
3.317,-0.5237
3.318,-0.4082
3.319,-0.1597
3.32,0.3731
3.321,1.515
3.322,-0.9335
3.323,-3.8812
3.324,-3.4578
3.325,-3.0729
3.326,-2.723
3.327,-2.405
3.328,-2.1158
3.329,-1.8531
3.33,-1.6141
3.331,-1.397
3.332,-1.1996
3.333,-1.0201
3.334,-0.857
3.335,1.369
3.336,2.3232
3.337,3.769
3.338,4.0317
3.339,4.2707
3.34,4.4879
3.341,4.6853
3.342,4.8647
3.343,5.0278
3.344,5.1762
3.345,5.3109
3.346,5.4334
3.347,5.5447
3.348,5.646
3.349,5.5539
3.35,5.6376
3.351,5.7136
3.352,5.6444
3.353,5.5816
3.354,5.6387
3.355,5.5867
3.356,5.5394
3.357,5.5823
3.358,5.5433
3.359,5.5788
3.36,5.5466
3.361,5.5759
3.362,5.5493
3.363,5.5735
3.364,5.5955
3.365,5.5755
3.366,-0.5582
3.367,-0.6492
3.368,-0.4338
3.369,0.0062
3.37,0.9497
3.371,2.1637
3.372,4.6122
3.373,2.1628
3.374,1.8447
3.375,2.1339
3.376,2.3966
3.377,3.1135
3.378,3.3306
3.379,3.528
3.38,4.0665
3.381,4.2297
3.382,4.378
3.383,4.7825
3.384,4.905
3.385,4.7936
3.386,4.8949
3.387,4.987
3.388,5.0707
3.389,5.1467
3.39,5.0775
3.391,5.1403
3.392,5.0831
3.393,5.1351
3.394,5.1824
3.395,5.2252
3.396,5.1862
3.397,5.2217
3.398,5.1895
3.399,5.2188
3.4,5.1923
3.401,5.1681
3.402,5.1022
3.403,5.1221
3.404,5.0676
3.405,5.0511
3.406,4.9758
3.407,4.9894
3.408,4.952
3.409,4.9632
3.41,4.994
3.411,5.022
3.412,4.9967
3.413,4.989
3.414,5.0379
3.415,5.0317
3.416,5.0489
3.417,-0.6365
3.418,-0.6942
3.419,-0.7636
3.42,-0.6235
3.421,-0.3229
3.422,0.3217
3.423,1.7037
3.424,0.7163
3.425,-1.9769
3.426,-3.8812
3.427,-3.8812
3.428,-3.5631
3.429,-3.274
3.43,-2.4855
3.431,-2.2466
3.432,-2.0294
3.433,-1.4371
3.434,-1.2576
3.435,-1.0945
3.436,-0.9462
3.437,-0.8114
3.438,-0.9339
3.439,-0.8226
3.44,-0.7213
3.441,-0.6292
3.442,-0.5455
3.443,-0.4695
3.444,-0.5387
3.445,-0.4759
3.446,-0.4188
3.447,-0.3668
3.448,-0.4141
3.449,-0.4569
3.45,-0.4179
3.451,-0.4534
3.452,-0.4856
3.453,-0.5735
3.454,-0.547
3.455,-0.6197
3.456,-0.6417
3.457,-0.6616
3.458,-0.6797
3.459,-0.6962
3.46,-0.6812
3.461,-0.6948
3.462,-0.6574
3.463,-0.6686
3.464,-0.6173
3.465,-0.664
3.466,-0.6893
3.467,-0.7277
3.468,-0.6915
3.469,-0.7403
3.47,-0.7847
3.471,-0.6981
3.472,-0.5113
3.473,-0.1112
3.474,0.7465
3.475,0.3788
3.476,-1.2931
3.477,-3.8812
3.478,-3.8812
3.479,-3.5631
3.48,-3.274
3.481,-2.4855
3.482,-2.2466
3.483,-2.0294
3.484,-1.4371
3.485,-1.2576
3.486,-1.0945
3.487,-0.9462
3.488,-0.8114
3.489,-0.9339
3.49,-0.8226
3.491,-0.7213
3.492,-0.6292
3.493,-0.5455
3.494,-0.4695
3.495,-0.5387
3.496,-0.4759
3.497,-0.4188
3.498,-0.3668
3.499,-0.4141
3.5,-0.4569
3.501,-0.4959
3.502,-0.5314
3.503,-0.5637
3.504,-0.5929
3.505,-0.6195
3.506,-0.5953
3.507,-0.6173
3.508,-0.6774
3.509,-0.6955
3.51,-0.679
3.511,-0.634
3.512,-0.6475
3.513,-0.6351
3.514,-0.6239
3.515,-0.6547
3.516,-0.6453
3.517,-0.6876
3.518,-0.7724
3.519,-0.7164
3.52,-0.7728
3.521,-0.783
3.522,-0.6429
3.523,-0.3423
3.524,0.3023
3.525,1.6843
3.526,-1.2783
3.527,-3.8812
3.528,-3.4963
3.529,-3.1464
3.53,-2.8283
3.531,-2.5392
3.532,-2.2764
3.533,-2.0375
3.534,-1.3858
3.535,-1.5832
3.536,-1.4037
3.537,-1.2406
3.538,-1.0923
3.539,-0.9575
3.54,-0.835
3.541,-0.7237
3.542,-0.6224
3.543,-0.5303
3.544,-0.614
3.545,-0.538
3.546,-0.4688
3.547,-0.5316
3.548,-0.4745
3.549,-0.4225
3.55,-0.4697
3.551,-0.5126
3.552,-0.5516
3.553,-0.5871
3.554,-0.6193
3.555,-0.6486
3.556,-0.6221
3.557,-0.6462
3.558,-0.7121
3.559,-0.7321
3.56,-0.714
3.561,-0.6975
3.562,-0.6525
3.563,-0.666
3.564,-0.6287
3.565,-0.6398
3.566,-0.6296
3.567,-0.6763
3.568,-0.7695
3.569,-0.7819
3.57,-0.7215
3.571,-0.7552
3.572,-0.6834
3.573,-0.5433
3.574,-0.2427
3.575,0.4019
3.576,-0.243
3.577,-1.4995
3.578,-3.8335
3.579,-3.5155
3.58,-3.2264
3.581,0.717
3.582,2.4074
3.583,1.8951
3.584,2.3607
3.585,2.7841
3.586,3.169
3.587,3.5189
3.588,3.8369
3.589,4.126
3.59,4.3888
3.591,4.6278
3.592,4.8449
3.593,5.0423
3.594,5.2217
3.595,5.0586
3.596,5.2069
3.597,5.3417
3.598,5.4642
3.599,5.3529
3.6,5.4541
3.601,5.362
3.602,5.2783
3.603,5.3543
3.604,5.2851
3.605,5.2223
3.606,5.1652
3.607,5.2172
3.608,5.1699
3.609,5.2128
3.61,5.1738
3.611,5.2093
3.612,5.1771
3.613,5.2064
3.614,5.1798
3.615,5.1556
3.616,5.1776
3.617,5.1577
3.618,5.1395
3.619,5.0568
3.62,5.0117
3.621,-0.7098
3.622,-0.7781
3.623,-0.7407
3.624,-0.5713
3.625,-0.2075
3.626,0.5725
3.627,1.1297
3.628,-0.3904
3.629,-3.6493
3.63,-3.1837
3.631,-2.7604
3.632,-2.3755
3.633,-2.0256
3.634,-2.3436
3.635,-2.0545
3.636,-1.7917
3.637,-1.5528
3.638,-1.3356
3.639,-1.1382
3.64,-0.9588
3.641,-0.7956
3.642,-0.6473
3.643,-0.7821
3.644,-0.6596
3.645,-0.5483
3.646,-0.447
3.647,-0.5391
3.648,-0.4554
3.649,-0.5314
3.65,-0.4622
3.651,-0.525
3.652,-0.5821
3.653,-0.5301
3.654,-0.5774
3.655,-0.6202
3.656,-0.6592
3.657,-0.6237
3.658,-0.6559
3.659,-0.6852
3.66,-0.6587
3.661,-0.6345
3.662,-0.6565
3.663,-0.6764
3.664,-0.6219
3.665,-0.6384
3.666,-0.6233
3.667,-0.6916
3.668,-0.7788
3.669,-0.79
3.67,-0.8002
3.671,-0.8282
3.672,-0.7845
3.673,-0.8097
3.674,-0.7713
3.675,-0.6662
3.676,-0.4404
3.677,0.0437
3.678,1.0819
3.679,-1.1441
3.68,-3.8812
3.681,-3.8812
3.682,-3.5312
3.683,-3.2132
3.684,-2.9241
3.685,-2.1356
3.686,-1.8967
3.687,-1.6795
3.688,-1.4821
3.689,-1.3027
3.69,-1.1395
3.691,-0.9912
3.692,-0.8564
3.693,-0.7339
3.694,-0.6226
3.695,-0.5214
3.696,-0.6135
3.697,-0.5298
3.698,-0.4538
3.699,-0.3846
3.7,-0.4474
3.701,-0.5045
3.702,-0.4525
3.703,-0.4997
3.704,-0.5426
3.705,-0.5816
3.706,-0.6171
3.707,-0.5849
3.708,-0.3209
3.709,-0.4274
3.71,-0.4596
3.711,-0.4889
3.712,-0.5688
3.713,-0.5929
3.714,-0.571
3.715,-0.631
3.716,-0.6492
3.717,-0.6988
3.718,-0.774
3.719,-0.8149
3.72,-0.8273
3.721,-0.8837
3.722,-0.935
3.723,-0.8533
3.724,-0.8627
3.725,-0.905
3.726,-0.7894
3.727,-0.5409
3.728,-0.0081
3.729,1.1337
3.73,-1.3147
3.731,-3.7642
3.732,-3.4461
3.733,-3.157
3.734,-2.8942
3.735,-2.6553
3.736,-2.0036
3.737,-1.8062
3.738,-1.6268
3.739,-1.4636
3.74,-1.3153
3.741,-1.1805
3.742,-1.058
3.743,-0.9467
3.744,-0.6428
3.745,-0.7349
3.746,-0.6512
3.747,-0.5752
3.748,-0.506
3.749,-0.4432
3.75,-0.5003
3.751,-0.5523
3.752,-0.5051
3.753,-0.5479
3.754,-0.5869
3.755,-0.5514
3.756,-0.5836
3.757,-0.6129
3.758,-0.6395
3.759,-0.6153
3.76,-0.6373
3.761,-0.6173
3.762,-0.6354
3.763,-0.6189
3.764,-0.6039
3.765,-0.6175
3.766,-0.6299
3.767,-0.6411
3.768,-0.6924
3.769,-0.7577
3.77,-0.783
3.771,-0.7907
3.772,-0.8257
3.773,-0.8068
3.774,-0.7522
3.775,-0.8043
3.776,-0.6991
3.777,-0.4734
3.778,0.0108
3.779,1.049
3.78,0.9006
3.781,-1.1227
3.782,-3.7253
3.783,-3.3754
3.784,-3.0574
3.785,-2.7682
3.786,-2.5055
3.787,-2.2665
3.788,-2.0494
3.789,-1.457
3.79,-1.2776
3.791,-1.1144
3.792,-0.9661
3.793,-0.8314
3.794,-0.7089
3.795,-0.5975
3.796,-0.4963
3.797,-0.5884
3.798,-0.5047
3.799,-0.4287
3.8,-0.4979
3.801,-0.5607
3.802,-0.5036
3.803,-0.5556
3.804,-0.6028
3.805,-0.56
3.806,-0.599
3.807,-0.5635
3.808,-0.5957
3.809,-0.625
3.81,-0.5984
3.811,-0.5743
3.812,-0.6402
3.813,-0.6202
3.814,-0.6021
3.815,-0.6186
3.816,-0.6036
3.817,-0.6444
3.818,-0.6569
3.819,-0.7358
3.82,-0.7665
3.821,-0.7945
3.822,-0.8198
3.823,-0.8121
3.824,-0.8052
3.825,-0.7779
3.826,-0.7462
3.827,-0.6596
3.828,-0.4728
3.829,-0.8729
3.83,-0.0152
3.831,1.824
3.832,2.0868
3.833,1.3699
3.834,-1.889
3.835,-3.8812
3.836,-3.8812
3.837,-3.8812
3.838,-3.5312
3.839,-3.2132
3.84,-2.3458
3.841,-2.0831
3.842,-1.8441
3.843,-1.6269
3.844,-1.4296
3.845,-0.891
3.846,-0.7279
3.847,-0.5796
3.848,-0.7143
3.849,-0.5918
3.85,-0.4805
3.851,-0.3793
3.852,-0.4714
3.853,-0.3877
3.854,-0.4637
3.855,-0.3945
3.856,-0.4573
3.857,-0.5144
3.858,-0.4624
3.859,-0.5096
3.86,-0.4668
3.861,-0.5058
3.862,-0.4703
3.863,-0.5025
3.864,-0.4732
3.865,-0.4997
3.866,-0.5239
3.867,-0.5898
3.868,-0.6098
3.869,-0.6279
3.87,-0.6444
3.871,-0.6894
3.872,-0.7577
3.873,-0.7702
3.874,-0.7814
3.875,-0.7916
3.876,-0.6951
3.877,-0.7045
3.878,-0.6113
3.879,-0.4245
3.88,-0.0244
3.881,0.8333
3.882,2.182
3.883,4.8751
3.884,3.7205
3.885,6.8699
3.886,7.2932
3.887,6.9083
3.888,2.3593
3.889,1.7394
3.89,1.176
3.891,0.6637
3.892,0.1981
3.893,0.6214
3.894,1.0063
3.895,1.3562
3.896,1.6743
3.897,2.5416
3.898,2.8044
3.899,3.0433
3.9,3.2605
3.901,3.4579
3.902,3.6373
3.903,3.4742
3.904,3.6225
3.905,3.7573
3.906,3.8798
3.907,3.7684
3.908,3.8697
3.909,3.7776
3.91,3.8613
3.911,3.9373
3.912,3.8681
3.913,3.9309
3.914,3.8737
3.915,3.8217
3.916,3.869
3.917,3.7402
3.918,3.7012
3.919,3.6657
3.92,3.6335
3.921,3.5456
3.922,3.5191
3.923,3.4949
3.924,3.4729
3.925,3.453
3.926,3.4711
3.927,-0.5728
3.928,-0.6224
3.929,-0.6074
3.93,-0.4023
3.931,0.0377
3.932,0.9812
3.933,0.8464
3.934,-0.9928
3.935,-3.8812
3.936,-3.4963
3.937,-3.1464
3.938,-2.8283
3.939,-2.5392
3.94,-2.2764
3.941,-2.0375
3.942,-1.3858
3.943,-1.1884
3.944,-1.009
3.945,-0.8458
3.946,-0.9941
3.947,-0.8594
3.948,-0.7369
3.949,-0.6255
3.95,-0.5243
3.951,-0.6164
3.952,-0.5327
3.953,-0.6087
3.954,-0.5395
3.955,-0.6023
3.956,-0.5452
3.957,-0.5972
3.958,-0.6444
3.959,-0.6016
3.96,-0.6406
3.961,-0.605
3.962,-0.5728
3.963,-0.6021
3.964,-0.5756
3.965,-0.5997
3.966,-0.6217
3.967,-0.6417
3.968,-0.6598
3.969,-0.7094
3.97,-0.7544
3.971,-0.7953
3.972,-0.8077
3.973,-0.8189
3.974,-0.8086
3.975,-0.818
3.976,-0.7927
3.977,-0.8004
3.978,-0.7215
3.979,-0.7424
3.98,-0.7486
3.981,-0.662
3.982,-0.4752
3.983,-0.0751
3.984,0.7825
3.985,-1.0568
3.986,-3.8812
3.987,-3.4963
3.988,-3.1464
3.989,-2.8283
3.99,-2.5392
3.991,-2.2764
3.992,-2.0375
3.993,-1.3858
3.994,-1.1884
3.995,-1.009
3.996,-1.1721
3.997,-0.727
3.998,-0.5922
3.999,-0.7147
4,-0.6034
4.001,-0.5021
4.002,-0.5942
4.003,-0.5106
4.004,-0.5865
4.005,-0.6558
4.006,-0.5929
4.007,-0.6501
4.008,-0.5981
4.009,-0.6453
4.01,-0.6025
4.011,-0.5635
4.012,-0.599
4.013,-0.5668
4.014,-0.5375
4.015,-0.564
4.016,-0.5882
4.017,-0.6102
4.018,-0.6301
4.019,-0.6482
4.02,-0.731
4.021,-0.746
4.022,-0.7869
4.023,-0.7993
4.024,-0.7881
4.025,-0.8189
4.026,-0.7722
4.027,-0.7806
4.028,-0.7422
4.029,-0.6885
4.03,-0.6955
4.031,-0.6001
4.032,-0.395
4.033,0.045
4.034,0.9885
4.035,1.9326
4.036,0.0933
4.037,-3.85
4.038,-3.8812
4.039,-3.3688
4.04,-2.9032
4.041,-2.4798
4.042,-2.095
4.043,-1.745
4.044,-1.427
4.045,-1.7161
4.046,-1.4534
4.047,-1.2144
4.048,-0.9972
4.049,-0.7999
4.05,-0.6204
4.051,-0.4573
4.052,-0.6056
4.053,-0.4708
4.054,-0.5933
4.055,-0.482
4.056,-0.5832
4.057,-0.4911
4.058,-0.5748
4.059,-0.4988
4.06,-0.568
4.061,-0.5052
4.062,-0.5624
4.063,-0.5104
4.064,-0.4631
4.065,-0.506
4.066,-0.545
4.067,-0.5805
4.068,-0.6127
4.069,-0.642
4.07,-0.6155
4.071,-0.6396
4.072,-0.3093
4.073,0.3999
4.074,-0.3095
4.075,-1.6916
4.076,-2.2839
4.077,-2.1045
4.078,-1.6149
4.079,-1.4665
4.08,-1.3462
4.081,-1.2115
4.082,-0.8438
4.083,0.8281
4.084,2.0231
4.085,2.2402
4.086,5.2029
4.087,-3.8332
4.088,4.7025
4.089,2.3737
4.09,1.9504
4.091,1.5655
4.092,1.9154
4.093,2.2335
4.094,2.5226
4.095,3.311
4.096,3.55
4.097,3.7672
4.098,4.3595
4.099,4.5389
4.1,4.7021
4.101,4.8504
4.102,4.7156
4.103,4.8381
4.104,4.9495
4.105,5.0507
4.106,4.9586
4.107,5.0423
4.108,4.9663
4.109,5.0355
4.11,5.0983
4.111,5.0412
4.112,5.0932
4.113,5.046
4.114,5.0888
4.115,5.0498
4.116,5.0143
4.117,4.9821
4.118,4.9528
4.119,4.9262
4.12,4.902
4.121,4.8361
4.122,4.7761
4.123,4.7942
4.124,4.7777
4.125,4.7025
4.126,4.716
4.127,4.7285
4.128,4.7396
4.129,4.7294
4.13,4.7574
4.131,-0.5962
4.132,-0.6385
4.133,-0.6001
4.134,-0.495
4.135,-0.2692
4.136,0.2149
4.137,-0.2696
4.138,-1.2131
4.139,-3.2364
4.14,-3.5256
4.141,-3.2628
4.142,-2.546
4.143,-2.3288
4.144,-2.1314
4.145,-1.5929
4.146,-1.4297
4.147,-1.2814
4.148,-1.1467
4.149,-1.0242
4.15,-0.69
4.151,-0.7913
4.152,-0.6991
4.153,-0.6155
4.154,-0.5395
4.155,-0.6087
4.156,-0.6715
4.157,-0.6144
4.158,-0.6664
4.159,-0.6191
4.16,-0.5763
4.161,-0.5373
4.162,-0.5728
4.163,-0.605
4.164,-0.5171
4.165,-0.5437
4.166,-0.5679
4.167,-0.5898
4.168,-0.6098
4.169,-0.6279
4.17,-0.6444
4.171,-0.7197
4.172,-0.788
4.173,-0.7755
4.174,-0.7867
4.175,-0.8174
4.176,-0.7521
4.177,-0.7605
4.178,-0.7374
4.179,-0.7305
4.18,-0.7242
4.181,-0.6955
4.182,-0.5992
4.183,-0.6675
4.184,-0.6955
4.185,-0.5684
4.186,-0.2952
4.187,0.2905
4.188,1.0444
4.189,-0.4758
4.19,-3.7347
4.191,-3.269
4.192,-2.8457
4.193,-2.4608
4.194,-2.1109
4.195,-1.7928
4.196,-1.5037
4.197,-1.241
4.198,-1.4799
4.199,-1.2627
4.2,-1.0654
4.201,-0.8859
4.202,-0.7228
4.203,-0.5745
4.204,-0.7092
4.205,-0.5867
4.206,-0.6981
4.207,-0.5968
4.208,-0.6889
4.209,-0.6052
4.21,-0.5292
4.211,-0.5984
4.212,-0.5356
4.213,-0.4785
4.214,-0.5305
4.215,-0.4833
4.216,-0.5261
4.217,-0.7213
4.218,-0.8279
4.219,-0.7956
4.22,-0.8249
4.221,-0.7984
4.222,-0.7742
4.223,-0.7522
4.224,-0.7323
4.225,-0.7504
4.226,-0.7008
4.227,-0.6858
4.228,-0.6175
4.229,-0.6299
4.23,-0.6188
4.231,-0.629
4.232,-0.6384
4.233,-0.5765
4.234,-0.6356
4.235,-0.5972
4.236,-0.4921
4.237,-0.2663
4.238,0.2178
4.239,1.2561
4.24,-0.97
4.241,-3.833
4.242,-3.8812
4.243,-3.5312
4.244,-3.2132
4.245,-2.9241
4.246,-2.1356
4.247,-1.8967
4.248,-1.6795
4.249,-1.4821
4.25,-1.3027
4.251,-1.1395
4.252,-0.9912
4.253,-0.8564
4.254,-0.7339
4.255,-0.6226
4.256,-0.7239
4.257,-0.6318
4.258,-0.5481
4.259,-0.6241
4.26,-0.5549
4.261,-0.4921
4.262,-0.4349
4.263,-0.4869
4.264,-0.4397
4.265,-0.4825
4.266,-0.4435
4.267,-0.4791
4.268,-0.5113
4.269,-0.5992
4.27,-0.6257
4.271,-0.6016
4.272,-0.6675
4.273,-0.6874
4.274,-0.742
4.275,-0.7585
4.276,-0.7435
4.277,-0.7026
4.278,-0.7151
4.279,-0.7039
4.28,-0.7142
4.281,-0.6675
4.282,-0.659
4.283,-0.6514
4.284,-0.6329
4.285,-0.696
4.286,-0.6197
4.287,-0.4657
4.288,-0.1354
4.289,0.5738
4.29,2.0939
4.291,0.1386
4.292,-3.8048
4.293,-3.8812
4.294,-3.8812
4.295,-3.4155
4.296,-2.9922
4.297,-2.6073
4.298,-2.2574
4.299,-1.9393
4.3,-1.6502
4.301,-1.3874
4.302,-1.1485
4.303,-0.9313
4.304,-0.7339
4.305,-0.9134
4.306,-0.7502
4.307,-0.6019
4.308,-0.4672
4.309,-0.5897
4.31,-0.4783
4.311,-0.3771
4.312,-0.4692
4.313,-0.3855
4.314,-0.4615
4.315,-0.3923
4.316,-0.3295
4.317,-0.5008
4.318,0.2792
4.319,1.9511
4.32,-1.6337
4.321,-2.146
4.322,-1.6804
4.323,-2.1038
4.324,-1.7189
4.325,-1.3689
4.326,-1.0509
4.327,-1.34
4.328,-1.0773
4.329,-0.8383
4.33,-0.6211
4.331,-0.8185
4.332,-0.6391
4.333,-0.8022
4.334,-0.6539
4.335,-0.5962
4.336,-0.731
4.337,-0.6085
4.338,1.0634
4.339,2.2584
4.34,5.5173
4.341,7.846
4.342,2.3415
4.343,1.5917
4.344,2.2736
4.345,1.6538
4.346,2.2172
4.347,2.7295
4.348,3.1951
4.349,3.6185
4.35,4.0034
4.351,4.3533
4.352,4.0352
4.353,4.3244
4.354,4.5871
4.355,4.8261
4.356,4.6089
4.357,4.8063
4.358,4.9857
4.359,4.8226
4.36,4.9709
4.361,5.1057
4.362,4.9832
4.363,5.0945
4.364,4.9932
4.365,5.0853
4.366,5.0017
4.367,4.9257
4.368,4.9949
4.369,4.9321
4.37,4.8749
4.371,4.8229
4.372,4.8702
4.373,4.8273
4.374,4.7883
4.375,4.7528
4.376,4.785
4.377,4.7557
4.378,4.7823
4.379,4.8065
4.38,4.7845
4.381,4.8446
4.382,4.8264
4.383,4.8099
4.384,4.7347
4.385,4.7211
4.386,-0.7317
4.387,-0.794
4.388,-0.7376
4.389,-0.5836
4.39,-0.2533
4.391,0.4559
4.392,-0.2535
4.393,-1.6356
4.394,-3.8081
4.395,-3.519
4.396,-3.2562
4.397,-2.5394
4.398,-2.3222
4.399,-2.1248
4.4,-1.5863
4.401,-1.4231
4.402,-1.2748
4.403,-1.1401
4.404,-1.0176
4.405,-0.9062
4.406,-0.805
4.407,-0.7129
4.408,-0.7966
4.409,-0.7206
4.41,-0.5129
4.411,-0.5757
4.412,-0.5186
4.413,-0.5706
4.414,-0.4289
4.415,-0.4717
4.416,-0.5107
4.417,-0.5463
4.418,-0.5785
4.419,-0.6078
4.42,-0.6343
4.421,-0.6102
4.422,-0.6321
4.423,-0.6521
4.424,-0.7067
4.425,-0.7563
4.426,-0.7112
4.427,-0.6977
4.428,-0.6852
4.429,-0.6964
4.43,-0.6861
4.431,-0.6395
4.432,-0.6479
4.433,-0.6556
4.434,-0.7187
4.435,-0.761
4.436,-0.7995
4.437,-0.7391
4.438,-0.788
4.439,-0.8323
4.44,-0.7457
4.441,-0.5589
4.442,-0.1588
4.443,0.6989
4.444,-1.1404
4.445,-3.8812
4.446,-3.8812
4.447,-3.5312
4.448,-3.2132
4.449,-2.9241
4.45,-2.1356
4.451,-1.8967
4.452,-1.6795
4.453,-1.4821
4.454,-1.3027
4.455,-1.1395
4.456,-0.9912
4.457,-0.8564
4.458,-0.7339
4.459,-0.6226
4.46,-0.5214
4.461,-0.6135
4.462,-0.5298
4.463,-0.4538
4.464,-0.3846
4.465,-0.4474
4.466,-0.3902
4.467,-0.4423
4.468,-0.4895
4.469,-0.5323
4.47,-0.5713
4.471,-0.5358
4.472,-0.6325
4.473,-0.6032
4.474,-0.6298
4.475,-0.6056
4.476,-0.6276
4.477,-0.6475
4.478,-0.6294
4.479,-0.6459
4.48,-0.6309
4.481,-0.6444
4.482,-0.6319
4.483,-0.6656
4.484,-0.7169
4.485,-0.7449
4.486,-0.7702
4.487,-0.7933
4.488,-0.7574
4.489,-0.8063
4.49,-0.7746
4.491,-0.688
4.492,-0.5012
4.493,-0.1011
4.494,0.5278
4.495,-0.7286
4.496,-3.4217
4.497,-3.8066
4.498,-2.7569
4.499,-2.4388
4.5,-2.1497
4.501,-1.887
4.502,-1.648
4.503,-1.4308
4.504,-1.2335
4.505,-1.054
4.506,-1.2172
4.507,-0.772
4.508,-0.9068
4.509,-0.7843
4.51,-0.673
4.511,-0.5717
4.512,-0.4796
4.513,-0.5633
4.514,-0.4873
4.515,-0.4181
4.516,-0.4809
4.517,-0.538
4.518,-0.486
4.519,-0.5333
4.52,-0.5761
4.521,-0.6151
4.522,-0.6506
4.523,-0.6184
4.524,-0.6477
4.525,-0.6742
4.526,-0.6984
4.527,-0.6764
4.528,-0.6164
4.529,-0.671
4.53,-0.6545
4.531,-0.6395
4.532,-0.653
4.533,-0.6655
4.534,-0.7219
4.535,-0.7526
4.536,-0.7806
4.537,-0.7891
4.538,-0.8121
4.539,-0.7955
4.54,-0.8024
4.541,-0.707
4.542,-0.5019
4.543,-0.0619
4.544,0.8816
4.545,-0.3324
4.546,-2.7809
4.547,-3.8306
4.548,-3.5126
4.549,-3.2234
4.55,-2.435
4.551,-2.196
4.552,-1.9789
4.553,-1.7815
4.554,-1.602
4.555,-1.4389
4.556,-1.2906
4.557,-1.1558
4.558,-1.0333
4.559,-0.6991
4.56,-0.8004
4.561,-0.5241
4.562,-0.6078
4.563,-0.5318
4.564,0.5064
4.565,2.1388
4.566,3.6595
4.567,3.8569
4.568,4.0363
4.569,4.1995
4.57,4.6446
4.571,4.7794
4.572,4.9019
4.573,5.0132
4.574,5.1145
4.575,5.0223
4.576,5.2736
4.577,5.3496
4.578,5.2803
4.579,5.4689
4.58,5.4118
4.581,5.4638
4.582,5.4166
4.583,5.4594
4.584,5.4204
4.585,5.3849
4.586,5.4171
4.587,5.3878
4.588,5.3613
4.589,5.3371
4.59,-0.6585
4.591,-0.6805
4.592,-0.6204
4.593,-0.3472
4.594,0.2385
4.595,1.495
4.596,2.0335
4.597,0.8909
4.598,-1.3351
4.599,-3.8812
4.6,-3.8812
4.601,-3.5312
4.602,-3.2132
4.603,-2.9241
4.604,-2.6613
4.605,-1.9444
4.606,-1.7273
4.607,-1.5299
4.608,-1.3505
4.609,-1.1873
4.61,-1.039
4.611,-0.6345
4.612,-0.757
4.613,-0.6457
4.614,-0.5444
4.615,-0.4523
4.616,-0.3686
4.617,-0.4446
4.618,-0.3754
4.619,-0.4382
4.62,-0.4954
4.621,-0.4434
4.622,-0.4906
4.623,-0.5334
4.624,-0.5724
4.625,-0.5369
4.626,-0.5691
4.627,-0.5398
4.628,-0.5664
4.629,-0.5906
4.63,-0.5686
4.631,-0.5486
4.632,-0.5668
4.633,-0.5832
4.634,-0.6283
4.635,-0.6418
4.636,-0.6792
4.637,-0.7356
4.638,-0.7663
4.639,-0.813
4.64,-0.8046
4.641,-0.7728
4.642,-0.7958
4.643,-0.7327
4.644,-0.6056
4.645,-0.3324
4.646,0.2534
4.647,-1.0031
4.648,-3.6962
4.649,-3.3113
4.65,-2.9614
4.651,-2.6434
4.652,-2.3542
4.653,-2.0915
4.654,-1.8525
4.655,-1.6354
4.656,-1.438
4.657,-1.2585
4.658,-1.0954
4.659,-0.9471
4.66,-0.8123
4.661,-0.6898
4.662,-0.5785
4.663,-0.6797
4.664,-0.5876
4.665,-0.504
4.666,-0.5799
4.667,-0.5107
4.668,-0.5735
4.669,-0.5164
4.67,-0.5684
4.671,-0.6157
4.672,-0.6585
4.673,-0.6195
4.674,-0.655
4.675,-0.6872
4.676,-0.6579
4.677,-0.6845
4.678,-0.6118
4.679,-0.6338
4.68,-0.6138
4.681,-0.6319
4.682,-0.6484
4.683,-0.6634
4.684,-0.7043
4.685,-0.7416
4.686,-0.798
4.687,-0.7878
4.688,-0.8158
4.689,-0.8411
4.69,-0.8026
4.691,-0.8376
4.692,-0.7713
4.693,-0.7651
4.694,-0.7594
4.695,-0.6807
4.696,-0.5113
4.697,-0.1475
4.698,0.6326
4.699,1.1898
4.7,1.6964
4.701,1.4201
4.702,0.1636
4.703,-2.5295
4.704,-3.6841
4.705,-3.8812
4.706,-3.8812
4.707,-3.592
4.708,-3.3293
4.709,-2.6124
4.71,-2.3953
4.711,-1.8029
4.712,-1.6235
4.713,-1.1338
4.714,-0.9855
4.715,-0.8508
4.716,-0.4831
4.717,-0.5944
4.718,-0.4932
4.719,-0.4011
4.72,-0.3174
4.721,-0.3934
4.722,-0.3241
4.723,-0.387
4.724,-0.3298
4.725,-0.3818
4.726,-0.3346
4.727,-0.1198
4.728,-0.0808
4.729,-0.1874
4.73,-0.2196
4.731,-0.2489
4.732,-0.3287
4.733,-0.4014
4.734,-0.4673
4.735,-0.5274
4.736,-0.6184
4.737,-0.6349
4.738,-0.6499
4.739,-0.7729
4.74,-0.7894
4.741,-0.8044
4.742,-0.818
4.743,-0.7288
4.744,-0.7413
4.745,-0.7524
4.746,-0.5984
4.747,-0.2681
4.748,0.441
4.749,1.9612
4.75,1.3095
4.751,1.9019
4.752,1.0043
4.753,-1.4442
4.754,-3.8812
4.755,-3.8812
4.756,-3.8812
4.757,-3.8812
4.758,-3.6422
4.759,-2.9905
4.76,-2.7931
4.761,-2.2546
4.762,-1.765
4.763,-1.6167
4.764,-1.2122
4.765,-0.8445
4.766,-0.7332
4.767,-0.6319
4.768,-0.5398
4.769,-0.4562
4.77,-0.3802
4.771,-0.4494
4.772,-0.3866
4.773,-0.3295
4.774,-0.3815
4.775,-0.3342
4.776,-0.3771
4.777,-0.3381
4.778,-0.3025
4.779,-0.3348
4.78,-0.3641
4.781,-0.3375
4.782,-0.3617
4.783,-0.3837
4.784,-0.4437
4.785,-0.4618
4.786,-0.5446
4.787,-0.5596
4.788,-0.6005
4.789,-0.6378
4.79,-0.649
4.791,-0.6797
4.792,-0.7264
4.793,-0.718
4.794,-0.597
4.795,-0.6354
4.796,-0.5303
4.797,-0.3046
4.798,0.1796
4.799,1.2178
4.8,1.9597
4.801,-0.0636
4.802,-3.8229
4.803,-3.3106
4.804,-3.7762
4.805,-3.3529
4.806,-2.968
4.807,-1.9183
4.808,-2.2363
4.809,-1.3689
4.81,2.0487
4.811,1.5831
4.812,-3.0746
4.813,-2.4548
4.814,-1.8913
4.815,-1.379
4.816,-1.8447
4.817,-1.4213
4.818,-1.0364
4.819,-0.6865
4.82,-1.0046
4.821,-0.7154
4.822,-0.9782
4.823,-0.7392
4.824,-0.5221
4.825,-0.7195
4.826,-0.54
4.827,-0.3769
4.828,-0.5252
4.829,-0.3904
4.83,-0.5129
4.831,-0.4016
4.832,-0.5029
4.833,-0.4108
4.834,-0.4944
4.835,-0.5704
4.836,-0.5012
4.837,-0.564
4.838,-0.6211
4.839,-0.6731
4.84,-0.6259
4.841,-0.7546
4.842,-0.7156
4.843,-0.6801
4.844,-0.7123
4.845,-0.6021
4.846,-0.69
4.847,-0.5567
4.848,-0.1929
4.849,0.5872
4.85,2.0363
4.851,2.2337
4.852,2.4131
4.853,2.2499
4.854,2.1016
4.855,2.5061
4.856,2.8738
4.857,3.208
4.858,3.5119
4.859,3.9726
4.86,4.2238
4.861,4.6043
4.862,4.6735
4.863,4.9879
4.864,5.1593
4.865,5.2113
4.866,5.353
4.867,5.3959
4.868,5.4349
4.869,5.3994
4.87,5.4316
4.871,5.4609
4.872,5.4343
4.873,5.4102
4.874,5.4321
4.875,5.4122
4.876,5.4303
4.877,5.4468
4.878,5.4618
4.879,5.421
4.88,5.4334
4.881,5.4671
4.882,5.4363
4.883,5.427
4.884,5.4017
4.885,5.3479
4.886,5.341
4.887,5.3221
4.888,5.247
4.889,5.1957
4.89,5.1864
4.891,5.178
4.892,5.2011
4.893,5.2219
4.894,5.2157
4.895,5.2329
4.896,-0.6805
4.897,-0.6649
4.898,-0.6792
4.899,-0.6142
4.9,-0.4741
4.901,-0.1735
4.902,0.4711
4.903,1.8532
4.904,-1.1095
4.905,-3.8812
4.906,-3.8812
4.907,-3.8812
4.908,-3.5631
4.909,-3.274
4.91,-3.0112
4.911,-2.2944
4.912,-2.0772
4.913,-1.4849
4.914,-1.3054
4.915,-1.1423
4.916,-0.9939
4.917,-0.8592
4.918,-0.7367
4.919,-0.6254
4.92,-0.5241
4.921,-0.6162
4.922,-0.5325
4.923,-0.4565
4.924,-0.5257
4.925,-0.4629
4.926,-0.4058
4.927,-0.4578
4.928,-0.4106
4.929,-0.4534
4.93,-0.4144
4.931,-0.4499
4.932,-0.4177
4.933,-0.447
4.934,-0.5268
4.935,-0.551
4.936,-0.573
4.937,-0.5929
4.938,-0.6111
4.939,-0.6607
4.94,-0.7057
4.941,-0.7193
4.942,-0.7317
4.943,-0.7206
4.944,-0.7103
4.945,-0.701
4.946,-0.7262
4.947,-0.6021
4.948,-0.6406
4.949,-0.6197
4.95,-0.5243
4.951,-0.3192
4.952,0.1208
4.953,-0.0678
4.954,-0.9255
4.955,-2.7648
4.956,-3.5532
4.957,-2.8364
4.958,-2.6192
4.959,-2.4218
4.96,-1.8833
4.961,-1.7201
4.962,-1.5718
4.963,-1.1673
4.964,-1.0449
4.965,-0.9335
4.966,-0.8323
4.967,-0.7402
4.968,-0.6565
4.969,-0.5805
4.97,-0.6497
4.971,-0.5869
4.972,-0.644
4.973,-0.592
4.974,-0.6393
4.975,-0.5964
4.976,-0.6354
4.977,-0.5999
4.978,-0.5677
4.979,-0.597
4.98,-0.5704
4.981,-0.5463
4.982,-0.5682
4.983,-0.5882
4.984,-0.6063
4.985,-0.6228
4.986,-0.6378
4.987,-0.7061
4.988,-0.7435
4.989,-0.7999
4.99,-0.7691
4.991,-0.7971
4.992,-0.7887
4.993,-0.7656
4.994,-0.7447
4.995,-0.7385
4.996,-0.7328
4.997,-0.7067
4.998,-0.616
4.999,-0.6493
5,-0.6536
5.001,-0.5944
5.002,-0.4673
5.003,-0.1941
5.004,0.3916
5.005,-0.8649
5.006,-3.558
5.007,-3.8812
5.008,-3.5312
5.009,-3.2132
5.01,-2.9241
5.011,-2.6613
5.012,-1.9444
5.013,-1.7273
5.014,-1.5299
5.015,-1.3505
5.016,-1.1873
5.017,-1.039
5.018,-0.9042
5.019,-0.7817
5.02,-0.6704
5.021,-0.5691
5.022,-0.6612
5.023,-0.5776
5.024,-0.6536
5.025,-0.5843
5.026,-0.5215
5.027,-0.5787
5.028,-0.5267
5.029,-0.4794
5.03,-0.4366
5.031,-0.4756
5.032,-0.4401
5.033,-0.4723
5.034,-0.5602
5.035,-0.5867
5.036,-0.6109
5.037,-0.6329
5.038,-0.6528
5.039,-0.7074
5.04,-0.757
5.041,-0.772
5.042,-0.7585
5.043,-0.7211
5.044,-0.7323
5.045,-0.722
5.046,-0.7127
5.047,-0.6874
5.048,-0.6797
5.049,-0.6058
5.05,-0.6689
5.051,-0.7281
5.052,-0.8129
5.053,-0.8017
5.054,-0.8324
5.055,-0.6924
5.056,-0.3917
5.057,0.0809
5.058,-0.8627
5.059,-1.2671
5.06,0.5722
5.061,1.8865
5.062,2.1254
5.063,5.3843
5.064,2.1242
5.065,1.7008
5.066,1.3159
5.067,1.6658
5.068,1.9839
5.069,2.273
5.07,2.5358
5.071,3.2526
5.072,3.4698
5.073,3.6672
5.074,3.8466
5.075,4.0098
5.076,4.4549
5.077,4.5897
5.078,4.7122
5.079,4.6008
5.08,4.7021
5.081,4.7942
5.082,4.8779
5.083,4.8019
5.084,4.8711
5.085,4.8083
5.086,4.7512
5.087,4.8032
5.088,4.7559
5.089,4.7131
5.09,4.6741
5.091,4.6386
5.092,4.6708
5.093,4.6415
5.094,4.668
5.095,4.6439
5.096,4.6219
5.097,4.6419
5.098,4.66
5.099,4.6435
5.1,-0.5208
5.101,-0.5961
5.102,-0.4457
5.103,-0.1451
5.104,0.4995
5.105,1.8815
5.106,-0.6861
5.107,-3.8356
5.108,-3.4122
5.109,-3.7971
5.11,-2.7474
5.111,-2.4293
5.112,-2.1402
5.113,-1.8774
5.114,-1.6385
5.115,-1.4213
5.116,-1.2239
5.117,-1.0445
5.118,-0.8813
5.119,-0.733
5.12,-0.8678
5.121,-0.7453
5.122,-0.634
5.123,-0.7352
5.124,-0.6431
5.125,-0.5594
5.126,-0.6354
5.127,-0.5662
5.128,-0.5034
5.129,-0.5605
5.13,-0.5085
5.131,-0.4613
5.132,-0.5041
5.133,-0.5431
5.134,-0.5787
5.135,-0.6109
5.136,-0.6402
5.137,-0.6667
5.138,-0.6909
5.139,-0.7568
5.14,-0.7369
5.141,-0.755
5.142,-0.7715
5.143,-0.7264
5.144,-0.7129
5.145,-0.7253
5.146,-0.7365
5.147,-0.7057
5.148,-0.6777
5.149,-0.703
5.15,-0.7107
5.151,-0.6614
5.152,-0.7103
5.153,-0.742
5.154,-0.6554
5.155,-0.4686
5.156,-0.0685
5.157,0.7891
5.158,2.1379
5.159,4.831
5.16,2.1366
5.161,1.7867
5.162,1.4686
5.163,1.7578
5.164,2.0205
5.165,2.7374
5.166,2.9545
5.167,3.5469
5.168,3.7263
5.169,3.8895
5.17,4.0378
5.171,4.1726
5.172,4.2951
5.173,4.6292
5.174,4.7305
5.175,4.8226
5.176,4.7389
5.177,4.8149
5.178,4.8841
5.179,4.9469
5.18,5.004
5.181,4.952
5.182,4.9993
5.183,4.9564
5.184,4.9174
5.185,4.8819
5.186,4.8497
5.187,4.8204
5.188,4.7938
5.189,4.7697
5.19,4.7477
5.191,4.7277
5.192,4.7459
5.193,4.7294
5.194,4.7144
5.195,4.7279
5.196,4.7155
5.197,4.7492
5.198,4.7184
5.199,4.7091
5.2,4.6838
5.201,4.6144
5.202,-0.6688
5.203,-0.7341
5.204,-0.7764
5.205,-0.6609
5.206,-0.4124
5.207,0.1204
5.208,1.2623
5.209,0.7727
5.21,-1.4534
5.211,-3.6799
5.212,-3.8812
5.213,-3.6184
5.214,-3.3794
5.215,-2.7278
5.216,-2.1354
5.217,-1.956
5.218,-1.7928
5.219,-1.3477
5.22,-1.2129
5.221,-1.0904
5.222,-0.9791
5.223,-0.8779
5.224,-0.7858
5.225,-0.7021
5.226,-0.6261
5.227,-0.5569
5.228,-0.4941
5.229,-0.4369
5.23,-0.3849
5.231,-0.4322
5.232,-0.3893
5.233,-0.4283
5.234,-0.4639
5.235,-0.4316
5.236,-0.5195
5.237,-0.5461
5.238,-0.6673
5.239,-0.9095
5.24,-0.8129
5.241,-0.7836
5.242,-0.757
5.243,-0.7328
5.244,-0.6669
5.245,-0.647
5.246,-0.6288
5.247,-0.5792
5.248,-0.6243
5.249,-0.6107
5.25,-0.5983
5.251,-0.6319
5.252,-0.6422
5.253,-0.6277
5.254,-0.6744
5.255,-0.5981
5.256,-0.4441
5.257,-0.1138
5.258,0.5954
5.259,1.3048
5.26,-0.0773
5.261,-3.04
5.262,-3.4633
5.263,-3.0784
5.264,-2.7285
5.265,-2.4105
5.266,-2.1213
5.267,-1.8586
5.268,-1.6196
5.269,-1.4025
5.27,-1.2051
5.271,-1.0256
5.272,-0.8625
5.273,-0.7142
5.274,-0.8489
5.275,-0.7264
5.276,-0.6151
5.277,-0.5138
5.278,-0.6059
5.279,-0.5223
5.28,-0.4463
5.281,-0.5155
5.282,-0.4527
5.283,-0.5098
5.284,-0.4578
5.285,-0.5051
5.286,-0.5479
5.287,-0.5869
5.288,-0.6224
5.289,-0.6547
5.29,-0.6254
5.291,-0.6519
5.292,-0.7246
5.293,-0.7026
5.294,-0.6827
5.295,-0.6645
5.296,-0.681
5.297,-0.666
5.298,-0.6252
5.299,-0.6376
5.3,-0.6713
5.301,-0.5173
5.302,-0.187
5.303,-0.8962
5.304,-2.5115
5.305,-2.2076
5.306,-1.9313
5.307,-1.8476
5.308,-0.7057
5.309,1.7427
5.31,2.0927
5.311,1.7746
5.312,-2.563
5.313,-3.8812
5.314,-3.8812
5.315,-3.3688
5.316,-2.9032
5.317,-2.4798
5.318,-2.095
5.319,-1.745
5.32,-1.427
5.321,-1.1379
5.322,-1.4006
5.323,-1.1617
5.324,-0.9445
5.325,-0.7471
5.326,-0.5677
5.327,-0.4045
5.328,-0.5528
5.329,-0.4181
5.33,-0.5406
5.331,-0.4293
5.332,-0.328
5.333,-0.4201
5.334,-0.3364
5.335,-0.4124
5.336,-0.4816
5.337,-0.5444
5.338,-0.4873
5.339,-0.5393
5.34,-0.5865
5.341,-0.6294
5.342,-0.5904
5.343,-0.6259
5.344,-0.5937
5.345,-0.623
5.346,-0.6495
5.347,-0.6254
5.348,-0.6034
5.349,-0.6233
5.35,-0.6415
5.351,-0.6579
5.352,-0.7332
5.353,-0.774
5.354,-0.7865
5.355,-0.7354
5.356,-0.7918
5.357,-0.7405
5.358,-0.6005
5.359,-0.2998
5.36,0.3447
5.361,1.7268
5.362,0.7393
5.363,-1.9538
5.364,-3.8784
5.365,-3.8812
5.366,-3.5631
5.367,-3.274
5.368,-2.4855
5.369,-2.2466
5.37,-2.0294
5.371,-1.832
5.372,-1.6526
5.373,-1.163
5.374,-1.0146
5.375,-0.8799
5.376,-0.7574
5.377,-0.646
5.378,-0.5448
5.379,-0.4527
5.38,-0.5364
5.381,-0.4604
5.382,-0.3912
5.383,-0.454
5.384,-0.3968
5.385,-0.4488
5.386,-0.4961
5.387,-0.5389
5.388,-0.4999
5.389,-0.5355
5.39,-0.5677
5.391,-0.597
5.392,-0.6235
5.393,-0.5994
5.394,-0.5774
5.395,-0.5973
5.396,-0.6155
5.397,-0.599
5.398,-0.584
5.399,-0.6248
5.4,-0.6124
5.401,-0.646
5.402,-0.7178
5.403,-0.7645
5.404,-0.7729
5.405,-0.796
5.406,-0.7603
5.407,-0.7673
5.408,-0.7735
5.409,-0.6869
5.41,-0.5001
5.411,-0.1
5.412,0.7576
5.413,1.3707
5.414,2.1507
5.415,3.6708
5.416,2.1502
5.417,1.9528
5.418,1.7733
5.419,1.6102
5.42,1.7585
5.421,2.163
5.422,2.776
5.423,3.1102
5.424,3.6168
5.425,3.8931
5.426,4.1444
5.427,4.3725
5.428,4.5801
5.429,4.7687
5.43,4.9401
5.431,4.9921
5.432,5.0394
5.433,5.1681
5.434,5.1291
5.435,5.1646
5.436,5.1324
5.437,5.1617
5.438,5.1351
5.439,5.0624
5.44,5.0844
5.441,5.0645
5.442,5.0463
5.443,5.0628
5.444,5.0478
5.445,5.0342
5.446,4.9969
5.447,5.0306
5.448,5.0203
5.449,4.9923
5.45,4.95
5.451,4.9116
5.452,4.8766
5.453,4.8577
5.454,4.829
5.455,4.7503
5.456,4.7166
5.457,-0.7076
5.458,-0.7588
5.459,-0.7495
5.46,-0.6224
5.461,-0.3492
5.462,0.2365
5.463,1.493
5.464,-1.2001
5.465,-3.8812
5.466,-3.8812
5.467,-3.5631
5.468,-3.274
5.469,-3.0112
5.47,-2.2944
5.471,-2.0772
5.472,-1.8798
5.473,-1.7004
5.474,-1.2107
5.475,-1.0624
5.476,-0.9277
5.477,-0.8052
5.478,-0.6938
5.479,-0.5926
5.48,-0.5005
5.481,-0.5842
5.482,-0.5082
5.483,-0.439
5.484,-0.5018
5.485,-0.4446
5.486,-0.4966
5.487,-0.5439
5.488,-0.5867
5.489,-0.5477
5.49,-0.5832
5.491,-0.6155
5.492,-0.5862
5.493,-0.6127
5.494,-0.5886
5.495,-0.6105
5.496,-0.5906
5.497,-0.5724
5.498,-0.5889
5.499,-0.6039
5.5,-0.6175
5.501,-0.6299
5.502,-0.7089
5.503,-0.7806
5.504,-0.79
5.505,-0.7984
5.506,-0.8215
5.507,-0.8006
5.508,-0.7933
5.509,-0.787
5.51,-0.7004
5.511,-0.5137
5.512,-0.1136
5.513,0.7441
5.514,1.8477
5.515,-0.3783
5.516,-3.8775
5.517,-3.8812
5.518,-3.4578
5.519,-3.0729
5.52,-2.723
5.521,-2.405
5.522,-2.1158
5.523,-1.8531
5.524,-1.6141
5.525,-1.397
5.526,-1.1996
5.527,-1.0201
5.528,-0.857
5.529,-0.7087
5.53,-0.5739
5.531,-0.4514
5.532,-0.5627
5.533,-0.4615
5.534,-0.5536
5.535,-0.4699
5.536,-0.5459
5.537,-0.4767
5.538,-0.5395
5.539,-0.5966
5.54,-0.5446
5.541,-0.5918
5.542,-0.6347
5.543,-0.5957
5.544,-0.5602
5.545,-0.5924
5.546,-0.6217
5.547,-0.2216
5.548,0.6361
5.549,-1.2032
5.55,-1.9917
5.551,-1.7527
5.552,-1.9699
5.553,-1.7725
5.554,-1.5931
5.555,-1.4299
5.556,-1.2816
5.557,-1.1468
5.558,-1.0243
5.559,-0.8951
5.56,-0.7837
5.561,-0.6825
5.562,0.6996
5.563,2.082
5.564,2.2615
5.565,4.71
5.566,3.6602
5.567,2.0698
5.568,1.7806
5.569,2.0434
5.57,2.2824
5.571,2.934
5.572,3.1314
5.573,3.6699
5.574,3.8331
5.575,4.2782
5.576,4.413
5.577,4.5355
5.578,4.8696
5.579,4.9709
5.58,5.063
5.581,5.1467
5.582,5.2227
5.583,5.2919
5.584,5.2291
5.585,5.1719
5.586,5.2239
5.587,5.1767
5.588,5.2196
5.589,5.1806
5.59,5.145
5.591,5.1128
5.592,5.1421
5.593,5.1155
5.594,5.1397
5.595,5.1177
5.596,5.0978
5.597,5.1159
5.598,5.0994
5.599,5.0844
5.6,5.0709
5.601,5.0584
5.602,5.0247
5.603,4.994
5.604,4.9099
5.605,4.8988
5.606,4.868
5.607,4.8773
5.608,4.835
5.609,4.8581
5.61,-0.7149
5.611,-0.7358
5.612,-0.7169
5.613,-0.6303
5.614,-0.4435
5.615,-0.0434
5.616,0.1279
5.617,-0.6521
5.618,-2.324
5.619,-3.519
5.62,-2.8673
5.621,-2.6699
5.622,-2.4905
5.623,-2.0008
5.624,-1.8525
5.625,-1.4481
5.626,-1.3256
5.627,-1.2142
5.628,-0.9103
5.629,-0.8182
5.63,-0.7345
5.631,-0.6585
5.632,-0.5893
5.633,-0.5265
5.634,-0.5836
5.635,-0.5316
5.636,-0.5788
5.637,-0.536
5.638,-0.575
5.639,-0.6105
5.64,-0.5783
5.641,-0.6076
5.642,-0.6341
5.643,-0.61
5.644,-0.588
5.645,-0.608
5.646,-0.6261
5.647,-0.5765
5.648,-0.5915
5.649,-0.605
5.65,-0.6175
5.651,-0.6512
5.652,-0.6819
5.653,-0.7473
5.654,-0.7726
5.655,-0.7803
5.656,-0.8152
5.657,-0.7836
5.658,-0.8123
5.659,-0.8072
5.66,-0.7929
5.661,-0.7105
5.662,-0.7147
5.663,-0.7264
5.664,-0.6728
5.665,-0.5572
5.666,-0.3088
5.667,0.2241
5.668,-0.9178
5.669,-3.3663
5.67,-3.7162
5.671,-3.3981
5.672,-3.109
5.673,-2.3205
5.674,-2.0816
5.675,-1.8644
5.676,-1.667
5.677,-1.4876
5.678,-0.998
5.679,-1.1463
5.68,-0.7418
5.681,-0.6193
5.682,-0.7306
5.683,-0.6294
5.684,-0.5373
5.685,-0.621
5.686,-0.545
5.687,-0.6142
5.688,-0.5514
5.689,-0.6085
5.69,-0.5565
5.691,-0.6038
5.692,-0.5609
5.693,-0.5999
5.694,-0.5644
5.695,-0.5966
5.696,-0.5673
5.697,-0.5408
5.698,-0.5649
5.699,-0.5869
5.7,-0.6069
5.701,-0.625
5.702,-0.6415
5.703,-0.6565
5.704,-0.7248
5.705,-0.787
5.706,-0.7982
5.707,-0.788
5.708,-0.816
5.709,-0.7907
5.71,-0.783
5.711,-0.7761
5.712,-0.6937
5.713,-0.7125
5.714,-0.6722
5.715,-0.5935
5.716,-0.4241
5.717,-0.0603
5.718,0.7197
5.719,-0.9522
5.72,-3.581
5.721,-3.2311
5.722,-2.9131
5.723,-2.624
5.724,-2.3612
5.725,-2.1222
5.726,-1.9051
5.727,-1.7077
5.728,-1.1692
5.729,-1.006
5.73,-0.8577
5.731,-0.723
5.732,-0.6005
5.733,-0.7118
5.734,-0.6105
5.735,-0.5184
5.736,-0.6021
5.737,-0.5261
5.738,-0.5953
5.739,-0.6581
5.74,-0.601
5.741,-0.653
5.742,-0.6058
5.743,-0.5629
5.744,-0.3677
5.745,-0.3322
5.746,-0.4289
5.747,-0.3996
5.748,-0.4794
5.749,-0.5036
5.75,-0.5695
5.751,-0.6296
5.752,-0.6477
5.753,-0.7305
5.754,-0.8057
5.755,-0.8193
5.756,-0.8317
5.757,-0.8654
5.758,-0.8757
5.759,-0.8663
5.76,-0.8411
5.761,-0.8026
5.762,-0.8096
5.763,-0.7442
5.764,-0.7253
5.765,-0.6387
5.766,-0.452
5.767,-0.0519
5.768,0.8058
5.769,-0.0524
5.77,-1.7244
5.771,-3.8753
5.772,-3.5862
5.773,-3.3234
5.774,-2.6066
5.775,-2.3894
5.776,-2.192
5.777,-1.6535
5.778,-1.4903
5.779,-1.342
5.78,-1.2073
5.781,-0.8396
5.782,-0.7283
5.783,-0.627
5.784,-0.7191
5.785,-0.6354
5.786,-0.5594
5.787,-0.6287
5.788,-0.5658
5.789,-0.623
5.79,-0.571
5.791,-0.6182
5.792,-0.5754
5.793,0.0104
5.794,1.2669
5.795,-1.4263
5.796,-1.8111
5.797,-2.1611
5.798,-1.843
5.799,-1.5539
5.8,-1.2911
5.801,-1.0522
5.802,-1.2693
5.803,-1.072
5.804,-0.8925
5.805,-0.7294
5.806,-0.8777
5.807,-0.7429
5.808,-0.8654
5.809,-0.7541
5.81,-0.6528
5.811,-0.5607
5.812,-0.6444
5.813,-0.5684
5.814,-0.5142
5.815,-0.5834
5.816,-0.3948
5.817,0.4628
5.818,2.057
5.819,2.2741
5.82,5.2368
5.821,6.507
5.822,2.2728
5.823,1.7094
5.824,1.1971
5.825,1.6627
5.826,2.0861
5.827,2.471
5.828,2.8209
5.829,3.1389
5.83,3.428
5.831,3.6908
5.832,3.9298
5.833,4.1469
5.834,4.3443
5.835,4.5238
5.836,4.3606
5.837,4.5089
5.838,4.6437
5.839,4.5212
5.84,4.6325
5.841,4.5313
5.842,4.6234
5.843,4.5397
5.844,4.6157
5.845,4.6849
5.846,4.6221
5.847,4.6792
5.848,4.6272
5.849,4.58
5.85,4.6228
5.851,4.5838
5.852,4.5483
5.853,4.4516
5.854,4.4223
5.855,4.4489
5.856,4.4247
5.857,4.3588
5.858,4.3388
5.859,4.3207
5.86,4.3372
5.861,4.3522
5.862,4.3657
5.863,4.3284
5.864,4.4073
5.865,-0.5962
5.866,-0.627
5.867,-0.6363
5.868,-0.5093
5.869,-0.2361
5.87,0.3497
5.871,1.6061
5.872,1.0676
5.873,1.8837
5.874,0.845
5.875,-1.1783
5.876,-3.781
5.877,-3.8812
5.878,-3.8812
5.879,-3.8812
5.88,-3.6184
5.881,-2.9015
5.882,-2.6844
5.883,-2.092
5.884,-1.9126
5.885,-1.423
5.886,-1.2746
5.887,-1.1399
5.888,-0.7722
5.889,-0.6609
5.89,-0.5596
5.891,-0.4675
5.892,-0.5512
5.893,-0.4752
5.894,-0.406
5.895,-0.3432
5.896,-0.2861
5.897,-0.2341
5.898,-0.2813
5.899,-0.2385
5.9,-0.2775
5.901,-0.313
5.902,-0.3452
5.903,-0.4331
5.904,-0.4596
5.905,-0.4838
5.906,-0.5497
5.907,-0.5298
5.908,-0.5843
5.909,-0.6008
5.91,-0.5858
5.911,-0.5994
5.912,-0.6118
5.913,-0.6006
5.914,-0.5904
5.915,-0.6184
5.916,-0.5611
5.917,-0.6202
5.918,-0.6279
5.919,-0.5228
5.92,-0.297
5.921,0.1871
5.922,-0.8511
5.923,-3.0771
5.924,-3.3952
5.925,-3.1061
5.926,-2.8433
5.927,-2.1265
5.928,-1.9093
5.929,-1.7119
5.93,-1.5325
5.931,-1.3693
5.932,-1.221
5.933,-1.0862
5.934,-0.9637
5.935,-0.8524
5.936,-0.7512
5.937,-0.659
5.938,-0.7427
5.939,-0.6667
5.94,-0.5975
5.941,-0.6603
5.942,-0.6032
5.943,-0.6552
5.944,-0.608
5.945,-0.5651
5.946,-0.6041
5.947,-0.5686
5.948,-0.5364
5.949,-0.5657
5.95,-0.5922
5.951,-0.6164
5.952,-0.6384
5.953,-0.6583
5.954,-0.7129
5.955,-0.7625
5.956,-0.7775
5.957,-0.764
5.958,-0.8013
5.959,-0.7676
5.96,-0.7574
5.961,-0.748
5.962,-0.7396
5.963,-0.7473
5.964,-0.6984
5.965,-0.7046
5.966,-0.7103
5.967,-0.6534
5.968,-0.69
5.969,-0.7616
5.97,-0.6076
5.971,-0.2773
5.972,0.4319
5.973,1.952
5.974,-0.0033
5.975,-3.8812
5.976,-3.8812
5.977,-3.8812
5.978,-3.4155
5.979,-2.9922
5.98,-2.6073
5.981,-2.2574
5.982,-1.9393
5.983,-1.6502
5.984,-1.3874
5.985,-1.1485
5.986,-0.9313
5.987,-0.7339
5.988,-0.9134
5.989,-0.7502
5.99,-0.6019
5.991,-0.4672
5.992,-0.5897
5.993,-0.4783
5.994,-0.5796
5.995,-0.4875
5.996,-0.4038
5.997,-0.4798
5.998,-0.4106
5.999,-0.4734
6,-0.4163
6.001,-0.4683
6.002,-0.5155
6.003,-0.5583
6.004,-0.5973
6.005,-0.6329
6.006,-0.6006
6.007,-0.6299
6.008,-0.7098
6.009,-0.7339
6.01,-0.668
6.011,-0.6481
6.012,-0.6662
6.013,-0.7158
6.014,-0.6708
6.015,-0.6299
6.016,-0.6673
6.017,-0.7237
6.018,-0.6878
6.019,-0.7391
6.02,-0.599
6.021,-0.2983
6.022,0.3462
6.023,1.7283
6.024,1.9257
6.025,-0.7674
6.026,-3.8812
6.027,-3.8812
6.028,-3.8812
6.029,-3.4963
6.03,-3.1464
6.031,-2.8283
6.032,-1.9609
6.033,-1.6982
6.034,-1.4592
6.035,-1.2421
6.036,-1.0447
6.037,-0.8652
6.038,-0.7021
6.039,1.5239
6.04,0.5698
6.041,-2.6111
6.042,-2.1878
6.043,-1.8029
6.044,-1.453
6.045,-1.1349
6.046,-1.4241
6.047,-1.1613
6.048,-0.9224
6.049,-0.7052
6.05,-0.5078
6.051,-0.6872
6.052,-0.5241
6.053,-0.6724
6.054,-0.5376
6.055,-0.6601
6.056,-0.5488
6.057,-0.6501
6.058,-0.558
6.059,-0.6417
6.06,-0.5657
6.061,-0.4965
6.062,-0.5593
6.063,-0.5021
6.064,-0.5541
6.065,-0.5069
6.066,-0.5497
6.067,-0.5887
6.068,-0.6243
6.069,-0.5933
6.07,-0.6255
6.071,-0.5376
6.072,-0.1376
6.073,0.7201
6.074,2.0689
6.075,1.1713
6.076,-1.2772
6.077,-3.7266
6.078,-3.4086
6.079,-3.1194
6.08,-2.8567
6.081,-2.6177
6.082,-1.9661
6.083,-1.7687
6.084,-1.5892
6.085,-1.4261
6.086,-1.2778
6.087,-1.143
6.088,-1.0205
6.089,-0.9092
6.09,-0.8079
6.091,-0.7158
6.092,-0.6321
6.093,-0.5561
6.094,-0.4869
6.095,-0.5497
6.096,-0.4926
6.097,-0.4406
6.098,-0.4878
6.099,-0.445
6.1,-0.484
6.101,-0.5195
6.102,-0.5517
6.103,-0.581
6.104,-0.6076
6.105,-0.6318
6.106,-0.6537
6.107,-0.6338
6.108,-0.7248
6.109,-0.7413
6.11,-0.6962
6.111,-0.6827
6.112,-0.6951
6.113,-0.7063
6.114,-0.6345
6.115,-0.6439
6.116,-0.6354
6.117,-0.6893
6.118,-0.7804
6.119,-0.7929
6.12,-0.7266
6.121,-0.7603
6.122,-0.7706
6.123,-0.6305
6.124,-0.3298
6.125,0.3147
6.126,1.3282
6.127,2.0026
6.128,0.6538
6.129,-2.0393
6.13,-3.8812
6.131,-3.8812
6.132,-3.8812
6.133,-3.592
6.134,-3.3293
6.135,-2.6124
6.136,-2.3953
6.137,-1.8029
6.138,-1.6235
6.139,-1.4603
6.14,-1.312
6.141,-0.9075
6.142,-0.785
6.143,-0.6737
6.144,-0.5724
6.145,-0.4803
6.146,-0.3967
6.147,-0.3207
6.148,-0.3899
6.149,-0.3271
6.15,-0.2699
6.151,-0.322
6.152,-0.3692
6.153,-0.412
6.154,-0.451
6.155,-0.4866
6.156,-0.5188
6.157,-0.4895
6.158,-0.516
6.159,-0.5402
6.16,-0.5182
6.161,-0.5382
6.162,-0.5563
6.163,-0.5728
6.164,-0.5578
6.165,-0.5713
6.166,-0.5838
6.167,-0.6175
6.168,-0.6482
6.169,-0.6389
6.17,-0.7153
6.171,-0.7178
6.172,-0.7486
6.173,-0.7953
6.174,-0.6682
6.175,-0.395
6.176,0.1907
6.177,1.4472
6.178,1.2678
6.179,-1.1807
6.18,-3.6301
6.181,-3.8812
6.182,-3.8812
6.183,-3.6184
6.184,-2.9015
6.185,-2.6844
6.186,-2.092
6.187,-1.9126
6.188,-1.423
6.189,-1.2746
6.19,-1.1399
6.191,-1.0174
6.192,-0.9061
6.193,-0.8048
6.194,-0.7127
6.195,-0.4615
6.196,-0.5375
6.197,-0.4683
6.198,-0.4054
6.199,-0.3483
6.2,-0.4003
6.201,-0.4476
6.202,-0.4047
6.203,-0.4437
6.204,-0.4792
6.205,-0.5115
6.206,-0.5994
6.207,-0.5195
6.208,-0.5922
6.209,-0.6142
6.21,-0.5942
6.211,-0.5761
6.212,-0.5926
6.213,-0.6076
6.214,-0.5668
6.215,-0.6041
6.216,-0.5929
6.217,-0.6442
6.218,-0.6536
6.219,-0.7299
6.22,-0.7607
6.221,-0.7887
6.222,-0.7479
6.223,-0.7902
6.224,-0.7825
6.225,-0.6774
6.226,-0.4516
6.227,0.0325
6.228,1.0707
6.229,1.2191
6.23,-0.8043
6.231,-3.8812
6.232,-3.8812
6.233,-3.4963
6.234,-3.1464
6.235,-2.8283
6.236,-2.5392
6.237,-2.2764
6.238,-1.5596
6.239,-1.3424
6.24,-1.145
6.241,-1.3245
6.242,-0.8348
6.243,-0.9831
6.244,-0.5787
6.245,-0.7012
6.246,-0.5898
6.247,-0.4886
6.248,-0.3965
6.249,-0.4802
6.25,-0.4042
6.251,-0.4734
6.252,-0.4106
6.253,-0.582
6.254,-0.738
6.255,-0.6907
6.256,-0.7336
6.257,-0.6946
6.258,-0.659
6.259,-0.6268
6.26,-0.5975
6.261,-0.571
6.262,-0.5468
6.263,-0.5688
6.264,-0.5087
6.265,-0.5268
6.266,-0.5433
6.267,-0.5884
6.268,-0.6019
6.269,-0.6144
6.27,-0.6481
6.271,-0.6583
6.272,-0.7237
6.273,-0.6966
6.274,-0.705
6.275,-0.6666
6.276,-0.5615
6.277,-0.3357
6.278,0.1484
6.279,-0.8898
6.28,-3.1158
6.281,-3.4338
6.282,-3.1447
6.283,-2.8819
6.284,-1.2091
6.285,2.0498
6.286,-2.142
6.287,-3.8324
6.288,-2.2955
6.289,-2.7611
6.29,-2.3378
6.291,-1.9529
6.292,-1.603
6.293,-1.2849
6.294,-0.9958
6.295,-0.733
6.296,-0.972
6.297,-0.7548
6.298,-0.5574
6.299,-0.378
6.3,-0.5411
6.301,-0.3928
6.302,-0.5276
6.303,-0.4051
6.304,-0.5164
6.305,-0.6177
6.306,-0.5256
6.307,-0.6092
6.308,-0.5333
6.309,-0.6025
6.31,-0.5397
6.311,-0.5968
6.312,-0.5448
6.313,-0.592
6.314,-0.5492
6.315,-0.5882
6.316,-0.5527
6.317,-0.5849
6.318,-0.6142
6.319,-0.6407
6.32,-0.7134
6.321,-0.7354
6.322,-0.7955
6.323,-0.7773
6.324,-0.7354
6.325,-0.785
6.326,-0.6797
6.327,-0.4747
6.328,-0.0347
6.329,0.9089
6.33,2.1229
6.331,4.5714
6.332,2.122
6.333,1.8039
6.334,1.5148
6.335,1.7775
6.336,2.0165
6.337,2.6682
6.338,2.8655
6.339,3.4041
6.34,3.5672
6.341,4.0123
6.342,4.1471
6.343,4.2696
6.344,4.6038
6.345,4.705
6.346,4.7971
6.347,4.8808
6.348,4.9568
6.349,4.8876
6.35,4.9504
6.351,5.0075
6.352,4.9555
6.353,4.9083
6.354,4.8654
6.355,4.9044
6.356,4.8689
6.357,4.9011
6.358,4.8132
6.359,4.8398
6.36,4.8156
6.361,4.8376
6.362,4.8176
6.363,4.8358
6.364,4.8522
6.365,4.8372
6.366,4.7964
6.367,4.8088
6.368,4.7525
6.369,4.7422
6.37,4.6955
6.371,4.6364
6.372,4.6133
6.373,4.5924
6.374,4.6113
6.375,-0.7728
6.376,-0.7784
6.377,-0.7629
6.378,-0.6913
6.379,-0.5373
6.38,-0.207
6.381,0.5022
6.382,-1.0179
6.383,-3.8423
6.384,-3.8812
6.385,-3.5312
6.386,-3.2132
6.387,-2.9241
6.388,-2.6613
6.389,-1.9444
6.39,-1.7273
6.391,-1.5299
6.392,-1.3505
6.393,-1.1873
6.394,-1.039
6.395,-0.9042
6.396,-0.7817
6.397,-0.6704
6.398,-0.5691
6.399,-0.477
6.4,-0.5607
6.401,-0.4847
6.402,-0.5539
6.403,-0.4911
6.404,-0.5483
6.405,-0.4963
6.406,-0.5435
6.407,-0.5864
6.408,-0.6254
6.409,-0.5898
6.41,-0.5576
6.411,-0.5869
6.412,-0.5604
6.413,-0.5845
6.414,-0.5626
6.415,-0.5825
6.416,-0.6006
6.417,-0.6171
6.418,-0.6321
6.419,-0.673
6.42,-0.7601
6.421,-0.7713
6.422,-0.7815
6.423,-0.8096
6.424,-0.7843
6.425,-0.8227
6.426,-0.7376
6.427,-0.7446
6.428,-0.7634
6.429,-0.6768
6.43,-0.49
6.431,-0.09
6.432,0.7677
6.433,-1.0716
6.434,-3.8812
6.435,-3.4963
6.436,-3.1464
6.437,-2.8283
6.438,-2.5392
6.439,-2.2764
6.44,-2.0375
6.441,-1.8203
6.442,-1.6229
6.443,-1.0844
6.444,-0.9213
6.445,-0.7729
6.446,-0.9077
6.447,-0.7852
6.448,-0.6739
6.449,-0.5726
6.45,-0.4805
6.451,-0.5642
6.452,-0.4882
6.453,-0.5574
6.454,-0.4946
6.455,-0.5517
6.456,-0.6038
6.457,-0.5565
6.458,-0.5994
6.459,-0.5604
6.46,-0.5959
6.461,-0.5637
6.462,-0.5929
6.463,-0.6195
6.464,-0.5953
6.465,-0.5734
6.466,-0.5933
6.467,-0.6114
6.468,-0.6279
6.469,-0.673
6.47,-0.7413
6.471,-0.7786
6.472,-0.7898
6.473,-0.8205
6.474,-0.7925
6.475,-0.8178
6.476,-0.8101
6.477,-0.7273
6.478,-0.7343
6.479,-0.7405
6.48,-0.6539
6.481,-0.4672
6.482,-0.0671
6.483,0.7906
6.484,-1.0487
6.485,-3.8812
6.486,-3.4963
6.487,-3.1464
6.488,-2.8283
6.489,-2.5392
6.49,-2.2764
6.491,-2.0375
6.492,-1.8203
6.493,-1.228
6.494,-1.0485
6.495,-0.8854
6.496,-1.0337
6.497,-0.6292
6.498,-0.5067
6.499,-0.618
6.5,-0.5168
6.501,-0.6089
6.502,-0.5252
6.503,-0.6012
6.504,-0.532
6.505,-0.5948
6.506,-0.5376
6.507,-0.5897
6.508,-0.6369
6.509,-0.594
6.51,-0.555
6.511,-0.5906
6.512,-0.5583
6.513,-0.5876
6.514,-0.5611
6.515,-0.5853
6.516,-0.5633
6.517,-0.6233
6.518,-0.6415
6.519,-0.6579
6.52,-0.7332
6.521,-0.7468
6.522,-0.7592
6.523,-0.7929
6.524,-0.7826
6.525,-0.8293
6.526,-0.8041
6.527,-0.781
6.528,-0.7061
6.529,-0.7131
6.53,-0.6177
6.531,-0.4126
6.532,-0.8526
6.533,-1.7961
6.534,0.2272
6.535,2.2512
6.536,6.1946
6.537,6.758
6.538,2.1469
6.539,1.527
6.54,0.9636
6.541,1.476
6.542,1.9416
6.543,2.3649
6.544,2.7498
6.545,3.0997
6.546,3.4178
6.547,3.7069
6.548,3.9697
6.549,3.7307
6.55,3.9479
6.551,4.1453
6.552,4.3247
6.553,4.1616
6.554,4.3099
6.555,4.4447
6.556,4.3222
6.557,4.4335
6.558,4.3322
6.559,4.4243
6.56,4.3406
6.561,4.4166
6.562,4.3474
6.563,4.4102
6.564,4.4674
6.565,4.4154
6.566,4.3681
6.567,4.3253
6.568,4.2863
6.569,4.2507
6.57,4.2185
6.571,4.2478
6.572,4.168
6.573,4.0953
6.574,4.1173
6.575,4.0572
6.576,4.1118
6.577,4.1282
6.578,4.1433
6.579,-0.6417
6.58,-0.6552
6.581,-0.4933
6.582,-0.163
6.583,0.5462
6.584,2.0663
6.585,0.1109
6.586,-3.8324
6.587,-3.269
6.588,-3.7814
6.589,-3.3157
6.59,-2.8924
6.591,-2.5075
6.592,-2.1576
6.593,-1.8395
6.594,-1.5504
6.595,-1.2876
6.596,-1.0487
6.597,-0.8315
6.598,-0.6341
6.599,-0.8136
6.6,-0.6504
6.601,-0.5021
6.602,-0.6369
6.603,-0.5144
6.604,-0.6257
6.605,-0.5245
6.606,-0.6166
6.607,-0.5329
6.608,-0.6089
6.609,-0.5397
6.61,-0.6025
6.611,-0.5453
6.612,-0.5973
6.613,-0.5501
6.614,-0.5929
6.615,-0.5539
6.616,-0.5895
6.617,-0.6217
6.618,-0.651
6.619,-0.6244
6.62,-0.6486
6.621,-0.7587
6.622,-0.7786
6.623,-0.7967
6.624,-0.7803
6.625,-0.8253
6.626,-0.7845
6.627,-0.772
6.628,-0.7609
6.629,-0.7711
6.63,-0.6805
6.631,-0.6338
6.632,-0.6085
6.633,-0.493
6.634,-0.2445
6.635,0.2883
6.636,1.4302
6.637,-1.0183
6.638,-3.8812
6.639,-3.8812
6.64,-3.4963
6.641,-3.1464
6.642,-2.8283
6.643,-2.5392
6.644,-2.2764
6.645,-1.5596
6.646,-1.3424
6.647,-1.145
6.648,-0.9656
6.649,-0.8024
6.65,-0.6541
6.651,-0.7889
6.652,-0.6664
6.653,-0.555
6.654,-0.6563
6.655,-0.5642
6.656,-0.6479
6.657,-0.5719
6.658,-0.5027
6.659,-0.5655
6.66,-0.5084
6.661,-0.4564
6.662,-0.5036
6.663,-0.5464
6.664,-0.5074
6.665,-0.4719
6.666,-0.5041
6.667,-0.5334
6.668,-0.56
6.669,-0.5842
6.67,-0.6061
6.671,-0.6261
6.672,-0.6807
6.673,-0.7634
6.674,-0.7484
6.675,-0.762
6.676,-0.7495
6.677,-0.7383
6.678,-0.7281
6.679,-0.7187
6.68,-0.7272
6.681,-0.6021
6.682,-0.6559
6.683,-0.649
6.684,-0.5536
6.685,-0.3485
6.686,0.0915
6.687,1.035
6.688,-0.9883
6.689,-3.8812
6.69,-3.8812
6.691,-3.4963
6.692,-3.1464
6.693,-2.8283
6.694,-2.5392
6.695,-2.2764
6.696,-1.5596
6.697,-1.3424
6.698,-1.145
6.699,-0.9656
6.7,-0.8024
6.701,-0.6541
6.702,-0.7889
6.703,-0.6664
6.704,-0.555
6.705,-0.6563
6.706,-0.5642
6.707,-0.6479
6.708,-0.5719
6.709,-0.5027
6.71,-0.5655
6.711,-0.5084
6.712,-0.4564
6.713,-0.5036
6.714,-0.4607
6.715,-0.4997
6.716,-0.5353
6.717,-0.503
6.718,-0.5909
6.719,-0.6175
6.72,-0.6417
6.721,-0.6197
6.722,-0.6797
6.723,-0.7343
6.724,-0.7508
6.725,-0.7658
6.726,-0.7793
6.727,-0.742
6.728,-0.7308
6.729,-0.7206
6.73,-0.7299
6.731,-0.6708
6.732,-0.6087
6.733,-0.6471
6.734,-0.696
6.735,-0.6006
6.736,-0.3956
6.737,0.0444
6.738,0.988
6.739,-1.0353
6.74,-3.638
6.741,-3.8812
6.742,-3.5631
6.743,-2.6957
6.744,-2.433
6.745,-2.194
6.746,-1.9769
6.747,-1.3845
6.748,-1.2051
6.749,-1.0419
6.75,-0.8936
6.751,-0.7588
6.752,-0.8813
6.753,-0.77
6.754,-0.6688
6.755,-0.5767
6.756,-0.6603
6.757,-0.5843
6.758,-0.6536
6.759,-0.5908
6.76,-0.5336
6.761,-0.4816
6.762,-0.5289
6.763,-0.4001
6.764,-0.2049
6.765,-0.3115
6.766,-0.3437
6.767,-0.4316
6.768,-0.5115
6.769,-0.5842
6.77,-0.6501
6.771,-0.67
6.772,-0.761
6.773,-0.7775
6.774,-0.7925
6.775,-0.8334
6.776,-0.6466
6.777,-0.2465
6.778,-1.1042
6.779,-2.2078
6.78,-2.0594
6.781,-1.9247
6.782,-1.557
6.783,-1.4224
6.784,-1.3111
6.785,-1.2098
6.786,0.1723
6.787,1.9498
6.788,2.1888
6.789,5.4477
6.79,6.8448
6.791,2.1871
6.792,1.5673
6.793,1.0039
6.794,0.4916
6.795,0.9572
6.796,1.3806
6.797,1.7655
6.798,2.1154
6.799,2.4334
6.8,2.7225
6.801,2.9853
6.802,3.2243
6.803,3.4414
6.804,3.6388
6.805,3.8182
6.806,3.6551
6.807,3.8034
6.808,3.9382
6.809,3.8157
6.81,3.927
6.811,4.0283
6.812,3.9362
6.813,4.0198
6.814,4.0958
6.815,4.0266
6.816,4.0894
6.817,4.0323
6.818,3.9803
6.819,3.9331
6.82,3.8902
6.821,3.8512
6.822,3.8157
6.823,3.7835
6.824,3.7542
6.825,3.7276
6.826,3.7518
6.827,3.7298
6.828,3.7498
6.829,3.6952
6.83,3.6787
6.831,3.6937
6.832,3.7346
6.833,3.747
6.834,-0.6409
6.835,-0.6746
6.836,-0.7259
6.837,-0.5858
6.838,-0.2851
6.839,0.3594
6.84,1.5573
6.841,-0.8912
6.842,-3.8812
6.843,-3.4578
6.844,-3.0729
6.845,-2.723
6.846,-2.405
6.847,-2.1158
6.848,-1.8531
6.849,-1.6141
6.85,-1.397
6.851,-1.1996
6.852,-1.0201
6.853,-0.857
6.854,-0.7087
6.855,-0.8434
6.856,-0.7209
6.857,-0.6096
6.858,-0.7109
6.859,-0.6188
6.86,-0.5351
6.861,-0.4591
6.862,-0.5283
6.863,-0.4655
6.864,-0.5226
6.865,-0.4706
6.866,-0.5179
6.867,-0.475
6.868,-0.514
6.869,-0.5496
6.87,-0.5818
6.871,-0.6111
6.872,-0.6376
6.873,-0.6618
6.874,-0.6838
6.875,-0.7438
6.876,-0.762
6.877,-0.7123
6.878,-0.6973
6.879,-0.6838
6.88,-0.7211
6.881,-0.6422
6.882,-0.6525
6.883,-0.6618
6.884,-0.7382
6.885,-0.6944
6.886,-0.7457
6.887,-0.755
6.888,-0.6279
6.889,-0.3547
6.89,0.231
6.891,1.4875
6.892,-1.2056
6.893,-3.8812
6.894,-3.5312
6.895,-3.2132
6.896,-2.9241
6.897,-2.6613
6.898,-1.9444
6.899,-1.7273
6.9,-1.5299
6.901,-1.3505
6.902,-1.1873
6.903,-1.039
6.904,-0.9042
6.905,-0.7817
6.906,-0.8931
6.907,-0.7918
6.908,-0.6997
6.909,-0.616
6.91,-0.54
6.911,-0.6092
6.912,-0.5464
6.913,-0.4893
6.914,-0.4373
6.915,-0.4845
6.916,-0.4417
6.917,-0.4807
6.918,-0.5162
6.919,-0.5485
6.92,-0.6363
6.921,-0.6098
6.922,-0.634
6.923,-0.6999
6.924,-0.7198
6.925,-0.738
6.926,-0.7215
6.927,-0.7065
6.928,-0.6929
6.929,-0.6805
6.93,-0.6916
6.931,-0.6404
6.932,-0.6497
6.933,-0.675
6.934,-0.7288
6.935,-0.7497
6.936,-0.7098
6.937,-0.7541
6.938,-0.7944
6.939,-0.7156
6.94,-0.5463
6.941,-0.1824
6.942,0.5976
6.943,-1.0743
6.944,-3.7032
6.945,-3.3533
6.946,-3.0352
6.947,-2.7461
6.948,-2.4833
6.949,-1.7665
6.95,-1.5493
6.951,-1.3519
6.952,-1.1725
6.953,-1.0093
6.954,-1.1576
6.955,-1.0229
6.956,-0.9004
6.957,-0.7891
6.958,-0.6878
6.959,-0.5957
6.96,-0.512
6.961,-0.588
6.962,-0.5188
6.963,-0.456
6.964,-0.5131
6.965,-0.4611
6.966,-0.5084
6.967,-0.4655
6.968,-0.5045
6.969,-0.54
6.97,-0.5723
6.971,-0.6016
6.972,-0.6281
6.973,-0.6523
6.974,-0.6742
6.975,-0.7343
6.976,-0.7162
6.977,-0.6997
6.978,-0.6847
6.979,-0.6711
6.98,-0.6836
6.981,-0.6499
6.982,-0.6396
6.983,-0.6677
6.984,-0.71
6.985,-0.7638
6.986,-0.7847
6.987,-0.7376
6.988,-0.7693
6.989,-0.729
6.99,-0.6503
6.991,-0.4809
6.992,-0.1171
6.993,0.663
6.994,0.7743
6.995,1.889
6.996,0.5535
6.997,-2.1396
6.998,-3.8812
6.999,-3.8812
7,-3.8812
7.001,-3.8812
7.002,-3.6184
7.003,-2.9015
7.004,-2.6844
7.005,-2.092
7.006,-1.9126
7.007,-1.423
7.008,-1.2746
7.009,-1.1399
7.01,-0.7722
7.011,-0.6609
7.012,-0.5596
7.013,-0.4675
7.014,-0.3838
7.015,-0.3079
7.016,-0.2386
7.017,-0.3014
7.018,-0.2443
7.019,-0.2963
7.02,-0.3436
7.021,-0.3007
7.022,0.285
7.023,1.374
7.024,-0.852
7.025,-1.8062
7.026,-1.5171
7.027,-1.2543
7.028,-1.4933
7.029,-1.2761
7.03,-1.0787
7.031,-0.8993
7.032,-0.7361
7.033,-0.5878
7.034,-0.7226
7.035,-0.6001
7.036,-0.7114
7.037,-0.6102
7.038,-0.5977
7.039,-0.6898
7.04,-0.6061
7.041,0.5357
7.042,2.0048
7.043,2.2022
7.044,4.8953
7.045,2.2009
7.046,1.851
7.047,2.169
7.048,2.4581
7.049,2.7209
7.05,3.4378
7.051,3.6549
7.052,3.8523
7.053,4.0317
7.054,4.1949
7.055,4.64
7.056,4.7748
7.057,4.8973
7.058,5.0086
7.059,5.1099
7.06,5.202
7.061,5.1183
7.062,5.1943
7.063,5.2635
7.064,5.3263
7.065,5.2692
7.066,5.3212
7.067,5.2739
7.068,5.3168
7.069,5.2778
7.07,5.1712
7.071,5.2034
7.072,5.1741
7.073,5.1476
7.074,5.1234
7.075,5.1014
7.076,5.0815
7.077,5.0996
7.078,5.0831
7.079,5.0982
7.08,5.0846
7.081,5.0971
7.082,5.0859
7.083,5.0551
7.084,5.0084
7.085,4.9832
7.086,4.9601
7.087,4.9251
7.088,4.9189
7.089,-0.7772
7.09,-0.8059
7.091,-0.7693
7.092,-0.6977
7.093,-0.5437
7.094,-0.2134
7.095,0.4958
7.096,1.6105
7.097,2.0557
7.098,0.0324
7.099,-3.727
7.1,-3.8812
7.101,-3.8812
7.102,-3.8812
7.103,-3.4963
7.104,-3.1464
7.105,-2.8283
7.106,-2.5392
7.107,-1.7507
7.108,-1.5118
7.109,-1.2946
7.11,-1.0972
7.111,-0.9178
7.112,-0.7546
7.113,-0.6063
7.114,-0.4715
7.115,-0.3491
7.116,-0.4604
7.117,-0.3591
7.118,-0.267
7.119,-0.3507
7.12,-0.2747
7.121,-0.3439
7.122,-0.4067
7.123,-0.4639
7.124,-0.4119
7.125,-0.4591
7.126,-0.5019
7.127,-0.4629
7.128,-0.4274
7.129,-0.4596
7.13,-0.4889
7.131,-0.4624
7.132,-0.5351
7.133,-0.5131
7.134,-0.5732
7.135,-0.5913
7.136,-0.6078
7.137,-0.6528
7.138,-0.6664
7.139,-0.7535
7.14,-0.7215
7.141,-0.7552
7.142,-0.7654
7.143,-0.6254
7.144,-0.3247
7.145,0.3198
7.146,1.7019
7.147,-1.2607
7.148,-3.8812
7.149,-3.8812
7.15,-3.5312
7.151,-3.2132
7.152,-2.9241
7.153,-2.1356
7.154,-1.8967
7.155,-1.6795
7.156,-1.4821
7.157,-1.3027
7.158,-1.1395
7.159,-0.9912
7.16,-0.8564
7.161,-0.7339
7.162,-0.6226
7.163,-0.5214
7.164,-0.6135
7.165,-0.5298
7.166,-0.4538
7.167,-0.523
7.168,-0.4602
7.169,-0.5173
7.17,-0.5693
7.171,-0.5221
7.172,-0.5649
7.173,-0.6039
7.174,-0.5684
7.175,-0.6006
7.176,-0.6299
7.177,-0.6034
7.178,-0.6276
7.179,-0.6056
7.18,-0.6255
7.181,-0.6074
7.182,-0.6239
7.183,-0.6389
7.184,-0.6525
7.185,-0.6898
7.186,-0.7462
7.187,-0.777
7.188,-0.805
7.189,-0.8134
7.19,-0.8057
7.191,-0.7779
7.192,-0.7988
7.193,-0.805
7.194,-0.7184
7.195,-0.5316
7.196,-0.1315
7.197,0.7261
7.198,1.0938
7.199,-0.5781
7.2,-3.685
7.201,-3.8812
7.202,-3.4963
7.203,-3.1464
7.204,-2.8283
7.205,-2.5392
7.206,-2.2764
7.207,-2.0375
7.208,-1.3858
7.209,-1.1884
7.21,-1.009
7.211,-0.8458
7.212,-0.6975
7.213,-0.5627
7.214,-0.4402
7.215,-0.5516
7.216,-0.4503
7.217,-0.3582
7.218,-0.4419
7.219,-0.5179
7.22,-0.4487
7.221,-0.5115
7.222,-0.4543
7.223,-0.5063
7.224,-0.5536
7.225,-0.5964
7.226,-0.5574
7.227,-0.5219
7.228,-0.5541
7.229,-0.5834
7.23,-0.5569
7.231,-0.5327
7.232,-0.5547
7.233,-0.5746
7.234,-0.5928
7.235,-0.6424
7.236,-0.6574
7.237,-0.6982
7.238,-0.7356
7.239,-0.792
7.24,-0.7817
7.241,-0.7911
7.242,-0.7515
7.243,-0.7599
7.244,-0.6444
7.245,-0.3959
7.246,0.1369
7.247,1.2788
7.248,2.0949
7.249,1.0561
7.25,-0.9672
7.251,-3.8812
7.252,-3.8812
7.253,-3.4963
7.254,-3.1464
7.255,-2.8283
7.256,-2.5392
7.257,-2.2764
7.258,-1.5596
7.259,-1.3424
7.26,-1.145
7.261,-0.9656
7.262,-0.8024
7.263,-0.6541
7.264,-0.5193
7.265,-0.6418
7.266,-0.5305
7.267,0.3815
7.268,2.2208
7.269,5.6385
7.27,4.2414
7.271,4.6647
7.272,4.2799
7.273,3.9299
7.274,4.248
7.275,4.5371
7.276,4.7999
7.277,5.0388
7.278,5.256
7.279,5.4534
7.28,5.2739
7.281,5.4371
7.282,5.5854
7.283,5.7202
7.284,5.5977
7.285,5.709
7.286,5.6077
7.287,5.5156
7.288,5.5993
7.289,5.5233
7.29,5.5925
7.291,5.5297
7.292,5.4726
7.293,-0.5384
7.294,-0.5904
7.295,-0.4487
7.296,0.1959
7.297,1.578
7.298,2.1703
7.299,3.4269
7.3,2.2844
7.301,2.7295
7.302,3.134
7.303,3.5017
7.304,3.613
7.305,3.9169
7.306,4.1932
7.307,4.4445
7.308,4.6726
7.309,4.8803
7.31,5.0689
7.311,5.126
7.312,5.282
7.313,5.3292
7.314,5.458
7.315,5.497
7.316,5.5325
7.317,5.5003
7.318,5.5295
7.319,5.503
7.32,5.4788
7.321,5.4569
7.322,5.4369
7.323,5.4188
7.324,5.4353
7.325,5.4202
7.326,5.4067
7.327,5.3942
7.328,5.4279
7.329,5.4177
7.33,5.4083
7.331,5.4336
7.332,5.4105
7.333,5.4175
7.334,5.3602
7.335,5.3063
7.336,5.2714
7.337,5.2525
7.338,5.2353
7.339,5.2302
7.34,5.2349
7.341,5.2307
7.342,5.2269
7.343,5.2375
7.344,-0.7339
7.345,-0.7435
7.346,-0.7522
7.347,-0.712
7.348,-0.6254
7.349,-0.4386
7.35,-0.0385
7.351,0.8192
7.352,1.9227
7.353,1.1808
7.354,-0.8425
7.355,-3.8812
7.356,-3.8812
7.357,-3.8812
7.358,-3.8812
7.359,-3.5631
7.36,-3.274
7.361,-2.4855
7.362,-2.2466
7.363,-1.5949
7.364,-1.3975
7.365,-1.2181
7.366,-1.0549
7.367,-0.6098
7.368,-0.475
7.369,-0.5975
7.37,-0.4862
7.371,-0.3849
7.372,-0.477
7.373,-0.3934
7.374,-0.3174
7.375,-0.3866
7.376,-0.3238
7.377,-0.3809
7.378,-0.3289
7.379,-0.2817
7.38,-0.3245
7.381,-0.2855
7.382,-0.321
7.383,-0.3533
7.384,-0.3826
7.385,-0.4624
7.386,-0.4866
7.387,-0.5525
7.388,-0.5724
7.389,-0.627
7.39,-0.6435
7.391,-0.6585
7.392,-0.7268
7.393,-0.7143
7.394,-0.7032
7.395,-0.6028
7.396,-0.6541
7.397,-0.6821
7.398,-0.555
7.399,-0.2819
7.4,0.3039
7.401,1.5604
7.402,1.0219
7.403,-1.4266
7.404,-3.876
7.405,-3.8812
7.406,-3.592
7.407,-3.3293
7.408,-2.6124
7.409,-2.3953
7.41,-2.1979
7.411,-1.6594
7.412,-1.4962
7.413,-1.0511
7.414,-0.9163
7.415,-0.7938
7.416,-0.6825
7.417,-0.5812
7.418,-0.4891
7.419,-0.5728
7.42,-0.4968
7.421,-0.566
7.422,-0.5032
7.423,-0.5604
7.424,-0.5084
7.425,-0.5556
7.426,-0.5127
7.427,-0.5517
7.428,-0.5162
7.429,-0.484
7.43,-0.5133
7.431,-0.4867
7.432,-0.5109
7.433,-0.5329
7.434,-0.5929
7.435,-0.6111
7.436,-0.6276
7.437,-0.6426
7.438,-0.7109
7.439,-0.7482
7.44,-0.7594
7.441,-0.7696
7.442,-0.7977
7.443,-0.7724
7.444,-0.7801
7.445,-0.7451
7.446,-0.679
7.447,-0.6852
7.448,-0.6796
7.449,-0.6008
7.45,-0.4314
7.451,-0.0676
7.452,-0.5356
7.453,-1.4792
7.454,-3.5025
7.455,-3.2134
7.456,-2.9506
7.457,-2.7117
7.458,-2.06
7.459,-1.8626
7.46,-1.6832
7.461,-1.52
7.462,-1.3717
7.463,-0.9672
7.464,-0.8447
7.465,-0.7334
7.466,-0.6321
7.467,-0.54
7.468,-0.6237
7.469,-0.5477
7.47,-0.6169
7.471,-0.5541
7.472,-0.6113
7.473,-0.6633
7.474,-0.616
7.475,-0.6589
7.476,-0.6199
7.477,-0.5843
7.478,-0.6166
7.479,-0.5873
7.48,-0.5607
7.481,-0.5366
7.482,-0.6025
7.483,-0.5825
7.484,-0.6006
7.485,-0.6171
7.486,-0.6622
7.487,-0.703
7.488,-0.7652
7.489,-0.7764
7.49,-0.7867
7.491,-0.796
7.492,-0.8044
7.493,-0.7814
7.494,-0.7744
7.495,-0.7555
7.496,-0.7383
7.497,-0.6739
7.498,-0.6373
7.499,-0.5657
7.5,-0.4117
7.501,-0.0814
7.502,0.6278
7.503,1.9453
7.504,-0.7479
7.505,-3.8812
7.506,-3.8812
7.507,-3.4578
7.508,-3.0729
7.509,-2.723
7.51,-2.405
7.511,-2.1158
7.512,-1.8531
7.513,0.7758
7.514,1.8255
7.515,-2.3099
7.516,-2.8733
7.517,-2.361
7.518,-1.8954
7.519,-1.472
7.52,-1.0871
7.521,-1.4371
7.522,-1.119
7.523,-0.8299
7.524,-0.5671
7.525,-0.8061
7.526,-0.5889
7.527,-0.3915
7.528,-0.571
7.529,-0.4078
7.53,-0.5561
7.531,-0.4214
7.532,-0.2989
7.533,-0.4102
7.534,-0.5115
7.535,-0.4194
7.536,-0.503
7.537,-0.579
7.538,-0.5098
7.539,-0.5726
7.54,-0.6298
7.541,-0.6818
7.542,-0.6345
7.543,-0.6774
7.544,-0.6384
7.545,-0.6739
7.546,-0.6417
7.547,-0.671
7.548,-0.5779
7.549,-0.6045
7.55,-0.4833
7.551,-0.1529
7.552,0.5562
7.553,2.0764
7.554,1.8592
7.555,1.2669
7.556,0.3693
7.557,-0.1204
7.558,-0.5655
7.559,-0.97
7.56,-1.8282
7.561,-0.1562
7.562,-1.8291
7.563,-3.7845
7.564,-3.8812
7.565,-3.8812
7.566,-3.8812
7.567,-3.8812
7.568,-3.7017
7.569,-2.8856
7.57,-2.4405
7.571,-2.036
7.572,-1.6683
7.573,-1.3342
7.574,-1.0302
7.575,-0.7539
7.576,-0.5027
7.577,-0.4267
7.578,-0.219
7.579,-0.1562
7.58,-0.0991
7.581,-0.0471
7.582,0.0001
7.583,0.043
7.584,0.004
7.585,-0.0315
7.586,-0.0638
7.587,-0.0931
7.588,-0.1729
7.589,-0.2456
7.59,-0.2676
7.591,-0.2875
7.592,-0.3421
7.593,-0.3586
7.594,-0.3436
7.595,-0.3844
7.596,-0.4217
7.597,-0.4329
7.598,-0.4227
7.599,-0.3948
7.6,-0.4415
7.601,-0.5179
7.602,-0.3639
7.603,-0.0336
7.604,0.6756
7.605,1.385
7.606,0.0029
7.607,-2.9598
7.608,-3.3831
7.609,-2.9982
7.61,-2.6483
7.611,-2.3303
7.612,-2.0411
7.613,-1.7784
7.614,-1.5394
7.615,-1.3223
7.616,-1.1249
7.617,-0.9454
7.618,-0.7823
7.619,-0.634
7.62,-0.7687
7.621,-0.6462
7.622,-0.7576
7.623,-0.6563
7.624,-0.5642
7.625,-0.6479
7.626,-0.5719
7.627,-0.6411
7.628,-0.5783
7.629,-0.6354
7.63,-0.5834
7.631,-0.5362
7.632,-0.579
7.633,-0.54
7.634,-0.5756
7.635,-0.6078
7.636,-0.6371
7.637,-0.6636
7.638,-0.7363
7.639,-0.7583
7.64,-0.8184
7.641,-0.8002
7.642,-0.8167
7.643,-0.8017
7.644,-0.7609
7.645,-0.7484
7.646,-0.7596
7.647,-0.7288
7.648,-0.7008
7.649,-0.7092
7.65,-0.6365
7.651,-0.675
7.652,-0.7239
7.653,-0.6285
7.654,-0.4234
7.655,0.0166
7.656,0.9602
7.657,-1.0632
7.658,-3.6658
7.659,-3.8812
7.66,-3.5631
7.661,-3.274
7.662,-3.0112
7.663,-2.2944
7.664,-2.0772
7.665,-1.8798
7.666,-1.3413
7.667,-1.1782
7.668,-1.0298
7.669,-0.8951
7.67,-0.7726
7.671,-0.6612
7.672,-0.7625
7.673,-0.6704
7.674,-0.5867
7.675,-0.6627
7.676,-0.5935
7.677,-0.5307
7.678,-0.4736
7.679,-0.5256
7.68,-0.4783
7.681,-0.4355
7.682,-0.4745
7.683,-0.439
7.684,-0.5356
7.685,-0.5649
7.686,-0.5915
7.687,-0.6157
7.688,-0.6376
7.689,-0.6576
7.69,-0.7121
7.691,-0.6957
7.692,-0.7407
7.693,-0.7272
7.694,-0.7147
7.695,-0.7035
7.696,-0.6933
7.697,-0.7026
7.698,-0.6435
7.699,-0.6512
7.7,-0.672
7.701,-0.6563
7.702,-0.7006
7.703,-0.7872
7.704,-0.6005
7.705,-0.2004
7.706,0.6573
7.707,1.7609
7.708,1.9092
7.709,2.044
7.71,0.2047
7.711,-3.7387
7.712,-3.8812
7.713,-3.8812
7.714,-3.8812
7.715,-3.4578
7.716,-3.0729
7.717,-2.723
7.718,-2.405
7.719,-1.5376
7.72,-1.2748
7.721,-1.0359
7.722,-1.253
7.723,-1.0557
7.724,-0.8762
7.725,-0.7131
7.726,-0.5647
7.727,-0.43
7.728,-0.3075
7.729,-0.4188
7.73,-0.3176
7.731,-0.2255
7.732,-0.3091
7.733,-0.2331
7.734,-0.3024
7.735,-0.3652
7.736,-0.4223
7.737,-0.3703
7.738,-0.4175
7.739,-0.5463
7.74,-0.5073
7.741,-0.5428
7.742,-0.575
7.743,-0.5457
7.744,-0.5723
7.745,-0.5964
7.746,-0.5745
7.747,-0.5944
7.748,-0.6125
7.749,-0.5961
7.75,-0.6111
7.751,-0.6519
7.752,-0.6233
7.753,-0.6856
7.754,-0.7872
7.755,-0.8281
7.756,-0.8405
7.757,-0.8517
7.758,-0.8824
7.759,-0.7424
7.76,-0.4417
7.761,-1.0862
7.762,-2.0997
7.763,-0.0764
7.764,1.9476
7.765,2.2104
7.766,5.7952
7.767,6.3076
7.768,7.7047
7.769,7.2813
7.77,3.0472
7.771,2.4838
7.772,1.9714
7.773,1.5058
7.774,1.0825
7.775,1.4674
7.776,1.8173
7.777,2.1353
7.778,3.0027
7.779,3.2655
7.78,3.9823
7.781,4.1995
7.782,4.3969
7.783,4.5763
7.784,4.4132
7.785,4.5615
7.786,4.6962
7.787,4.5737
7.788,4.6851
7.789,4.5838
7.79,4.6759
7.791,4.5922
7.792,4.6682
7.793,4.599
7.794,4.6618
7.795,4.6047
7.796,4.5527
7.797,4.5999
7.798,4.5571
7.799,4.5961
7.8,4.5606
7.801,4.4639
7.802,4.4346
7.803,-0.4878
7.804,-0.5677
7.805,-0.495
7.806,-0.1647
7.807,0.5445
7.808,2.0646
7.809,1.8475
7.81,-1.1152
7.811,-3.8812
7.812,-3.4963
7.813,-3.1464
7.814,-2.8283
7.815,-2.5392
7.816,-2.2764
7.817,-1.5596
7.818,-1.3424
7.819,-1.5398
7.82,-1.3603
7.821,-1.1972
7.822,-1.0489
7.823,-0.9141
7.824,-0.7916
7.825,-0.6803
7.826,-0.579
7.827,-0.4869
7.828,-0.5706
7.829,-0.4946
7.83,-0.5638
7.831,-0.501
7.832,-0.4439
7.833,-0.4959
7.834,-0.4487
7.835,-0.4915
7.836,-0.5305
7.837,-0.566
7.838,-0.5983
7.839,-0.6276
7.84,-0.6541
7.841,-0.6783
7.842,-0.7442
7.843,-0.7242
7.844,-0.7061
7.845,-0.6896
7.846,-0.6746
7.847,-0.6882
7.848,-0.6259
7.849,-0.6371
7.85,-0.6473
7.851,-0.7501
7.852,-0.7909
7.853,-0.8033
7.854,-0.7391
7.855,-0.7728
7.856,-0.8035
7.857,-0.6634
7.858,-0.3628
7.859,0.2817
7.86,1.2952
7.861,-0.7281
7.862,-3.8812
7.863,-3.4578
7.864,-3.0729
7.865,-2.723
7.866,-2.405
7.867,-2.1158
7.868,-1.8531
7.869,-1.6141
7.87,-1.397
7.871,-1.1996
7.872,-1.0201
7.873,-0.857
7.874,-0.7087
7.875,-0.8434
7.876,-0.7209
7.877,-0.6096
7.878,-0.5084
7.879,-0.6005
7.88,-0.5168
7.881,-0.4408
7.882,-0.51
7.883,-0.4472
7.884,-0.5043
7.885,-0.5563
7.886,-0.5091
7.887,-0.5519
7.888,-0.5909
7.889,-0.6265
7.89,-0.5942
7.891,-0.6235
7.892,-0.7034
7.893,-0.7275
7.894,-0.6616
7.895,-0.6417
7.896,-0.6598
7.897,-0.6763
7.898,-0.6312
7.899,-0.672
7.9,-0.7094
7.901,-0.7431
7.902,-0.7533
7.903,-0.7627
7.904,-0.805
7.905,-0.7427
7.906,-0.7966
7.907,-0.8035
7.908,-0.7081
7.909,-0.503
7.91,-0.063
7.911,0.8805
7.912,1.5549
7.913,2.1679
7.914,3.8399
7.915,2.167
7.916,1.9498
7.917,1.7525
7.918,1.573
7.919,1.7362
7.92,2.1813
7.921,2.8557
7.922,3.2233
7.923,3.5575
7.924,3.8615
7.925,4.1378
7.926,4.389
7.927,4.6171
7.928,4.6863
7.929,4.8749
7.93,4.9321
7.931,4.9841
7.932,5.1258
7.933,5.1686
7.934,5.1296
7.935,5.1652
7.936,5.1329
7.937,5.1036
7.938,5.0771
7.939,5.0529
7.94,5.031
7.941,5.011
7.942,4.9564
7.943,4.9729
7.944,4.9879
7.945,4.9744
7.946,4.9619
7.947,4.9282
7.948,4.959
7.949,4.9123
7.95,4.9039
7.951,4.8654
7.952,4.8305
7.953,4.8116
7.954,4.8059
7.955,4.7376
7.956,-0.7259
7.957,-0.7352
7.958,-0.7944
7.959,-0.6788
7.96,-0.4303
7.961,0.1025
7.962,1.2443
7.963,2.0604
7.964,0.428
7.965,-2.8309
7.966,-3.8812
7.967,-3.8812
7.968,-3.8812
7.969,-3.5312
7.97,-3.2132
7.971,-2.9241
7.972,-2.1356
7.973,-1.8967
7.974,-1.6795
7.975,-1.4821
7.976,-1.3027
7.977,-0.813
7.978,-0.6647
7.979,-0.53
7.98,-0.6525
7.981,-0.5411
7.982,-0.4399
7.983,-0.3478
7.984,-0.4314
7.985,-0.3555
7.986,-0.4247
7.987,-0.3619
7.988,-0.419
7.989,-0.471
7.99,-0.5182
7.991,-0.4754
7.992,-0.5144
7.993,-0.4789
7.994,-0.5111
7.995,-0.5404
7.996,-0.5138
7.997,-0.538
7.998,-0.516
7.999,-0.536
8,-0.5541
8.001,-0.6038
8.002,-0.6188
8.003,-0.6596
8.004,-0.697
8.005,-0.5276
8.006,-0.1637
8.007,-2.8206
8.008,-2.1446
8.009,-2.0525
8.01,-1.8013
8.011,-0.8116
8.012,1.2117
8.013,2.0791
8.014,2.3419
8.015,4.0147
8.016,2.494
8.017,2.2966
8.018,2.8352
8.019,2.9983
8.02,3.4434
8.021,3.8479
8.022,4.2156
8.023,4.5498
8.024,4.651
8.025,4.9273
8.026,5.1785
8.027,5.2545
8.028,5.4622
8.029,5.525
8.03,5.5821
8.031,5.6341
8.032,5.7758
8.033,5.733
8.034,5.772
8.035,5.7365
8.036,5.7042
8.037,5.6749
8.038,5.7015
8.039,5.6773
8.04,5.6114
8.041,5.6314
8.042,5.5768
8.043,5.5933
8.044,5.6083
8.045,5.5947
8.046,5.5823
8.047,5.5935
8.048,5.6037
8.049,5.5757
8.05,5.5841
8.051,5.5457
8.052,5.5248
8.053,5.4548
8.054,5.4268
8.055,5.4184
8.056,5.3646
8.057,5.3854
8.058,-0.7544
8.059,-0.7861
8.06,-0.6995
8.061,-0.5127
8.062,-0.1127
8.063,0.745
8.064,2.0938
8.065,1.9143
8.066,-0.5342
8.067,-3.6836
8.068,-3.8812
8.069,-3.8812
8.07,-3.5312
8.071,-3.2132
8.072,-2.9241
8.073,-2.6613
8.074,-1.9444
8.075,-1.7273
8.076,-1.5299
8.077,-1.3505
8.078,-0.8608
8.079,-0.7125
8.08,-0.5777
8.081,-0.4553
8.082,-0.5666
8.083,-0.4653
8.084,-0.3732
8.085,-0.4569
8.086,-0.3809
8.087,-0.4501
8.088,-0.5129
8.089,-0.4558
8.09,-0.5078
8.091,-0.4606
8.092,-0.5034
8.093,-0.5424
8.094,-0.5069
8.095,-0.5391
8.096,-0.5098
8.097,-0.5364
8.098,-0.5122
8.099,-0.5342
8.1,-0.5541
8.101,-0.5723
8.102,-0.6219
8.103,-0.6369
8.104,-0.6504
8.105,-0.7127
8.106,-0.7916
8.107,-0.8019
8.108,-0.8112
8.109,-0.7339
8.11,-0.7592
8.111,-0.7054
8.112,-0.6003
8.113,-0.3745
8.114,0.1096
8.115,1.1478
8.116,-1.0782
8.117,-3.8812
8.118,-3.8812
8.119,-3.5312
8.12,-3.2132
8.121,-2.9241
8.122,-2.6613
8.123,-2.4224
8.124,-1.7707
8.125,-1.5733
8.126,-1.3939
8.127,-1.2307
8.128,-1.0824
8.129,-0.9476
8.13,-0.8251
8.131,-0.7138
8.132,-0.6125
8.133,-0.5204
8.134,-0.4368
8.135,-0.5127
8.136,-0.4435
8.137,-0.5063
8.138,-0.4492
8.139,-0.5012
8.14,-0.5485
8.141,-0.5913
8.142,-0.5523
8.143,-0.5878
8.144,-0.5556
8.145,-0.5263
8.146,-0.5528
8.147,-0.577
8.148,-0.555
8.149,-0.575
8.15,-0.5931
8.151,-0.6096
8.152,-0.6547
8.153,-0.6682
8.154,-0.7305
8.155,-0.7642
8.156,-0.7949
8.157,-0.8043
8.158,-0.8127
8.159,-0.805
8.16,-0.742
8.161,-0.735
8.162,-0.7288
8.163,-0.6422
8.164,-0.4554
8.165,-0.0553
8.166,0.8023
8.167,0.1893
8.168,-1.4827
8.169,-3.8812
8.17,-3.8812
8.171,-3.5631
8.172,-3.274
8.173,-2.4855
8.174,-2.2466
8.175,-2.0294
8.176,-1.832
8.177,-1.2935
8.178,-1.1304
8.179,-0.982
8.18,-0.8473
8.181,-0.7248
8.182,-0.6135
8.183,-0.5122
8.184,-0.6043
8.185,-0.5206
8.186,-0.4446
8.187,-0.5138
8.188,-0.451
8.189,-0.5082
8.19,-0.5602
8.191,-0.5129
8.192,-0.5558
8.193,-0.5168
8.194,-0.5523
8.195,-0.5201
8.196,-0.5494
8.197,-0.5228
8.198,-0.4986
8.199,-0.5646
8.2,-0.5446
8.201,-0.5992
8.202,-0.6157
8.203,-0.6307
8.204,-0.6442
8.205,-0.7314
8.206,-0.7878
8.207,-0.7775
8.208,-0.7869
8.209,-0.8121
8.21,-0.7737
8.211,-0.7164
8.212,-0.7094
8.213,-0.614
8.214,-0.4089
8.215,0.0311
8.216,0.9746
8.217,2.1886
8.218,4.6371
8.219,2.1877
8.22,1.8696
8.221,1.5805
8.222,1.8433
8.223,2.5601
8.224,2.7773
8.225,3.3696
8.226,3.5491
8.227,3.7122
8.228,4.1574
8.229,4.2921
8.23,4.4146
8.231,4.7488
8.232,4.85
8.233,4.9421
8.234,4.8585
8.235,4.9345
8.236,5.0037
8.237,4.9409
8.238,4.998
8.239,4.946
8.24,4.8988
8.241,4.9416
8.242,4.9026
8.243,4.9381
8.244,4.9703
8.245,4.941
8.246,4.9145
8.247,4.9387
8.248,5.0046
8.249,4.9044
8.25,5.1776
8.251,5.7634
8.252,5.3446
8.253,4.2028
8.254,5.3453
8.255,7.5714
8.256,7.2533
8.257,7.5424
8.258,5.7024
8.259,2.1176
8.26,1.6052
8.261,1.1396
8.262,-3.6094
8.263,-3.1861
8.264,-2.8012
8.265,2.4477
8.266,7.6972
8.267,-3.621
8.268,2.7996
8.269,2.0498
8.27,2.7317
8.271,2.1119
8.272,2.6753
8.273,3.1876
8.274,3.6533
8.275,4.0766
8.276,4.4615
8.277,4.8114
8.278,5.1295
8.279,5.4186
8.28,5.1558
8.281,5.3948
8.282,5.6119
8.283,5.8093
8.284,5.6299
8.285,5.793
8.286,5.6447
8.287,5.7795
8.288,5.657
8.289,5.5457
8.29,5.6469
8.291,5.3706
8.292,5.2869
8.293,5.3629
8.294,5.4321
8.295,5.3693
8.296,5.4265
8.297,5.4785
8.298,5.5257
8.299,5.4829
8.3,5.4439
8.301,5.4083
8.302,5.3761
8.303,5.3468
8.304,5.3203
8.305,5.2961
8.306,5.2741
8.307,5.2941
8.308,5.2395
8.309,5.1899
8.31,5.2049
8.311,5.2185
8.312,5.2309
8.313,-0.6395
8.314,-0.6283
8.315,-0.4743
8.316,-0.144
8.317,0.5652
8.318,2.0853
8.319,-1.1736
8.32,-3.5023
8.321,-3.079
8.322,-2.6941
8.323,-2.3442
8.324,-2.6622
8.325,-2.3731
8.326,-1.5846
8.327,-1.3457
8.328,-1.1285
8.329,-1.3259
8.33,-1.1465
8.331,-0.9833
8.332,-0.835
8.333,-0.7002
8.334,-0.5777
8.335,-0.6891
8.336,-0.5878
8.337,-0.6799
8.338,-0.5962
8.339,-0.6722
8.34,-0.603
8.341,-0.6658
8.342,-0.6087
8.343,-0.6607
8.344,-0.6135
8.345,-0.6563
8.346,-0.6173
8.347,-0.6528
8.348,-0.6206
8.349,-0.6499
8.35,-0.6233
8.351,-0.6475
8.352,-0.7134
8.353,-0.7334
8.354,-0.7515
8.355,-0.768
8.356,-0.813
8.357,-0.7995
8.358,-0.8119
8.359,-0.8231
8.36,-0.8129
8.361,-0.7848
8.362,-0.7764
8.363,-0.7841
8.364,-0.6878
8.365,-0.6389
8.366,-0.6578
8.367,-0.5712
8.368,-0.3844
8.369,0.0157
8.37,0.8734
8.371,0.7509
8.372,1.9769
8.373,0.5079
8.374,-2.4548
8.375,-3.725
8.376,-3.8812
8.377,-3.8812
8.378,-3.8812
8.379,-3.592
8.38,-2.8036
8.381,-2.5646
8.382,-1.913
8.383,-1.7156
8.384,-1.1771
8.385,-1.0139
8.386,-0.8656
8.387,-0.7308
8.388,-0.6083
8.389,-0.497
8.39,-0.5983
8.391,-0.5062
8.392,-0.4225
8.393,-0.3465
8.394,-0.2773
8.395,-0.3401
8.396,-0.2829
8.397,-0.335
8.398,-0.2877
8.399,-0.2449
8.4,-0.2839
8.401,-0.3194
8.402,-0.4161
8.403,-0.4454
8.404,-0.4719
8.405,-0.4961
8.406,-0.6061
8.407,-0.5862
8.408,-0.6043
8.409,-0.6208
8.41,-0.6358
8.411,-0.6222
8.412,-0.6347
8.413,-0.6459
8.414,-0.6356
8.415,-0.5897
8.416,-0.6363
8.417,-0.6279
8.418,-0.5124
8.419,-0.2639
8.42,0.2689
8.421,1.4108
8.422,1.2476
8.423,1.9896
8.424,-0.0337
8.425,-3.7931
8.426,-3.8812
8.427,-3.8812
8.428,-3.8812
8.429,-3.4963
8.43,-3.1464
8.431,-2.8283
8.432,-1.9609
8.433,-1.6982
8.434,-1.4592
8.435,-1.2421
8.436,-1.0447
8.437,-0.8652
8.438,-0.7021
8.439,-0.5538
8.44,-0.6885
8.441,-0.566
8.442,-0.4547
8.443,-0.3534
8.444,-0.4455
8.445,-0.3619
8.446,-0.2859
8.447,-0.3551
8.448,-0.2923
8.449,-0.3494
8.45,-0.2974
8.451,-0.3447
8.452,-0.3875
8.453,-0.4265
8.454,-0.462
8.455,-0.5587
8.456,-0.588
8.457,-0.6146
8.458,-0.6387
8.459,-0.6168
8.46,-0.6367
8.461,-0.6186
8.462,-0.6351
8.463,-0.6501
8.464,-0.6636
8.465,-0.6263
8.466,-0.5904
8.467,-0.6468
8.468,-0.4928
8.469,-0.1625
8.47,0.5467
8.471,2.0668
8.472,-1.1921
8.473,-3.5208
8.474,-3.0975
8.475,-2.7126
8.476,-2.3627
8.477,-2.0446
8.478,-1.7555
8.479,-1.4927
8.48,-1.7317
8.481,-1.08
8.482,-1.2774
8.483,-1.098
8.484,-0.9348
8.485,-0.7865
8.486,-0.6517
8.487,-0.7742
8.488,-0.6629
8.489,-0.5616
8.49,-0.6537
8.491,-0.5701
8.492,-0.646
8.493,-0.5768
8.494,-0.6396
8.495,-0.5825
8.496,0.1975
8.497,1.8695
8.498,-1.7154
8.499,-2.2277
8.5,-1.7621
8.501,-2.1854
8.502,-1.8005
8.503,-1.4506
8.504,-1.1326
8.505,-1.4217
8.506,-1.1589
8.507,-0.92
8.508,-1.1371
8.509,-0.9397
8.51,-0.7603
8.511,-0.5972
8.512,-0.7455
8.513,-0.6107
8.514,-0.7332
8.515,-0.6219
8.516,-0.5206
8.517,-0.545
8.518,-0.6371
8.519,-0.3859
8.52,0.756
8.521,2.225
8.522,5.1877
8.523,-3.8484
8.524,7.7667
8.525,4.6173
8.526,5.8875
8.527,7.8121
8.528,4.6627
8.529,2.5457
8.53,2.1608
8.531,1.8109
8.532,1.4928
8.533,1.2037
8.534,1.9921
8.535,2.2311
8.536,2.8828
8.537,3.0801
8.538,3.6187
8.539,3.7818
8.54,3.9301
8.541,4.3346
8.542,4.4571
8.543,4.5684
8.544,4.6697
8.545,4.7618
8.546,4.8455
8.547,4.9215
8.548,4.9907
8.549,4.9279
8.55,4.985
8.551,4.933
8.552,4.8858
8.553,4.8429
8.554,4.8039
8.555,4.7684
8.556,4.7362
8.557,4.7069
8.558,4.627
8.559,4.6029
8.56,4.6248
8.561,4.6049
8.562,4.5867
8.563,4.5703
8.564,4.5552
8.565,4.5417
8.566,4.5292
8.567,4.5181
8.568,-0.5508
8.569,-0.6226
8.57,-0.4825
8.571,-0.1819
8.572,0.4627
8.573,1.8447
8.574,2.0421
8.575,0.7855
8.576,-1.663
8.577,-3.8812
8.578,-3.8812
8.579,-3.592
8.58,-3.3293
8.581,-2.6124
8.582,-2.3953
8.583,-2.1979
8.584,-1.6594
8.585,-1.4962
8.586,-1.3479
8.587,-1.2131
8.588,-0.8454
8.589,-0.7341
8.59,-0.6329
8.591,-0.725
8.592,-0.6413
8.593,-0.5653
8.594,-0.4961
8.595,-0.4333
8.596,-0.4904
8.597,-0.4384
8.598,-0.3912
8.599,-0.434
8.6,-0.395
8.601,-0.4305
8.602,-0.4628
8.603,-0.5507
8.604,-0.5772
8.605,-0.6014
8.606,-0.6233
8.607,-0.6034
8.608,-0.6579
8.609,-0.7076
8.61,-0.6926
8.611,-0.679
8.612,-0.6417
8.613,-0.6528
8.614,-0.6836
8.615,-0.6369
8.616,-0.6622
8.617,-0.6852
8.618,-0.7484
8.619,-0.6915
8.62,-0.7678
8.621,-0.7986
8.622,-0.6585
8.623,-0.3578
8.624,0.2867
8.625,1.6688
8.626,-0.8989
8.627,-3.8812
8.628,-3.8812
8.629,-3.8812
8.63,-3.5312
8.631,-3.2132
8.632,-2.3458
8.633,-2.0831
8.634,-1.8441
8.635,-1.6269
8.636,-1.4296
8.637,-1.2501
8.638,-1.087
8.639,-0.9387
8.64,-0.8039
8.641,-0.6814
8.642,-0.7927
8.643,-0.6915
8.644,-0.5994
8.645,-0.5157
8.646,-0.4397
8.647,-0.5089
8.648,-0.4461
8.649,-0.389
8.65,-0.441
8.651,-0.4882
8.652,-0.5311
8.653,-0.5701
8.654,-0.5345
8.655,-0.6312
8.656,-0.6019
8.657,-0.6285
8.658,-0.6526
8.659,-0.6746
8.66,-0.6547
8.661,-0.6728
8.662,-0.6563
8.663,-0.6713
8.664,-0.6849
8.665,-0.6226
8.666,-0.6563
8.667,-0.6871
8.668,-0.7524
8.669,-0.7609
8.67,-0.7405
8.671,-0.7482
8.672,-0.7832
8.673,-0.6878
8.674,-0.4827
8.675,-0.0427
8.676,-0.4829
8.677,-1.3406
8.678,-3.1799
8.679,-3.4426
8.68,-2.7258
8.681,-2.5086
8.682,-2.3112
8.683,-1.7727
8.684,-1.6095
8.685,-1.4612
8.686,-1.3265
8.687,-1.204
8.688,-1.0926
8.689,-0.9914
8.69,-0.8993
8.691,-0.8156
8.692,-0.7396
8.693,-0.6704
8.694,-0.6076
8.695,-0.5505
8.696,-0.6025
8.697,-0.5552
8.698,-0.5124
8.699,-0.4734
8.7,-0.5089
8.701,-0.5411
8.702,-0.5704
8.703,-0.597
8.704,-0.6211
8.705,-0.6431
8.706,-0.6631
8.707,-0.7176
8.708,-0.7341
8.709,-0.7491
8.71,-0.7356
8.711,-0.7231
8.712,-0.6894
8.713,-0.7202
8.714,-0.6922
8.715,-0.633
8.716,-0.6561
8.717,-0.6911
8.718,-0.7484
8.719,-0.7561
8.72,-0.7911
8.721,-0.7413
8.722,-0.7856
8.723,-0.699
8.724,-0.5122
8.725,-0.1121
8.726,0.7456
8.727,2.0943
8.728,0.8377
8.729,-1.6108
8.73,-3.8812
8.731,-3.8812
8.732,-3.592
8.733,-3.3293
8.734,-2.6124
8.735,-2.3953
8.736,-2.1979
8.737,-1.6594
8.738,-1.4962
8.739,-1.3479
8.74,-1.2131
8.741,-0.8454
8.742,0.8265
8.743,2.0214
8.744,-1.2375
8.745,-1.7031
8.746,-2.1265
8.747,-1.7416
8.748,-1.3917
8.749,-1.0736
8.75,-0.7845
8.751,-1.0472
8.752,-0.8083
8.753,-0.5911
8.754,-0.7885
8.755,-0.6091
8.756,-0.7722
8.757,-0.6239
8.758,-0.4891
8.759,-0.6116
8.76,-0.5003
8.761,-0.6016
8.762,-0.5095
8.763,-0.5931
8.764,-0.5171
8.765,-0.4479
8.766,-0.5107
8.767,-0.4536
8.768,-0.5056
8.769,-0.6473
8.77,-0.6045
8.771,-0.6435
8.772,-0.6109
8.773,-0.7175
8.774,-0.6852
8.775,-0.2452
8.776,0.6983
8.777,2.182
8.778,5.1447
8.779,3.0276
8.78,1.8729
8.781,2.2228
8.782,2.5409
8.783,2.83
8.784,3.0928
8.785,3.3317
8.786,3.9834
8.787,4.1808
8.788,4.3602
8.789,4.5234
8.79,4.6717
8.791,4.8065
8.792,4.929
8.793,5.0403
8.794,5.1415
8.795,5.2337
8.796,5.15
8.797,5.226
8.798,5.2952
8.799,5.6096
8.8,5.5524
8.801,5.5004
8.802,5.3587
8.803,5.3159
8.804,5.1989
8.805,5.1633
8.806,5.1311
8.807,5.1018
8.808,5.0753
8.809,5.0026
8.81,5.0245
8.811,5.0445
8.812,5.0264
8.813,5.0099
8.814,5.0249
8.815,5.0385
8.816,5.0509
8.817,5.0172
8.818,5.007
8.819,4.979
8.82,4.9537
8.821,4.946
8.822,4.9251
8.823,-0.8204
8.824,-0.8266
8.825,-0.8323
8.826,-0.7535
8.827,-0.5842
8.828,-0.2203
8.829,0.5597
8.83,0.8939
8.831,-0.6263
8.832,-3.8812
8.833,-3.8812
8.834,-3.4578
8.835,-3.0729
8.836,-2.723
8.837,-2.405
8.838,-2.1158
8.839,-1.8531
8.84,-1.6141
8.841,-1.397
8.842,-1.1996
8.843,-1.0201
8.844,-0.857
8.845,-0.7087
8.846,-0.5739
8.847,-0.4514
8.848,-0.5627
8.849,-0.4615
8.85,-0.3694
8.851,-0.4531
8.852,-0.3771
8.853,-0.4463
8.854,-0.5091
8.855,-0.452
8.856,-0.504
8.857,-0.5512
8.858,-0.594
8.859,-0.555
8.86,-0.5906
8.861,-0.5583
8.862,-0.5876
8.863,-0.5611
8.864,-0.5853
8.865,-0.5633
8.866,-0.5832
8.867,-0.6014
8.868,-0.651
8.869,-0.636
8.87,-0.6768
8.871,-0.7391
8.872,-0.7728
8.873,-0.824
