0,-0.0078
0.001,-0.0056
0.002,0.0034
0.003,0.0195
0.004,0.0261
0.005,0.0281
0.006,0.0446
0.007,0.0556
0.008,0.0375
0.009,0.001
0.01,-0.0145
0.011,-0.0288
0.012,-0.0416
0.013,-0.0378
0.014,-0.0484
0.015,-0.0453
0.016,-0.0482
0.017,-0.0457
0.018,-0.0433
0.019,-0.0499
0.02,-0.0398
0.021,-0.0343
0.022,-0.0294
0.023,-0.025
0.024,-0.0182
0.025,-0.0217
0.026,-0.0296
0.027,-0.0325
0.028,-0.0279
0.029,-0.0272
0.03,-0.0233
0.031,-0.02
0.032,-0.0105
0.033,-0.0037
0.034,0.0023
0.035,-0.001
0.036,0.0039
0.037,0.0085
0.038,0.016
0.039,0.0151
0.04,0.016
0.041,0.0137
0.042,0.0083
0.043,0.0065
0.044,0.0034
0.045,0.0018
0.046,-0.0058
0.047,-0.0228
0.048,-0.0252
0.049,-0.0274
0.05,-0.0213
0.051,-0.021
0.052,-0.0191
0.053,-0.0208
0.054,-0.0133
0.055,-0.0065
0.056,-0.0076
0.057,0.0027
0.058,0.0177
0.059,0.0116
0.06,-0.0012
0.061,0.0071
0.062,0.0027
0.063,0.0232
0.064,0.0202
0.065,-0.0039
0.066,-0.0264
0.067,-0.0294
0.068,-0.0319
0.069,-0.0296
0.07,-0.0274
0.071,-0.0213
0.072,-0.0231
0.073,-0.0215
0.074,-0.014
0.075,-0.0153
0.076,-0.0118
0.077,-0.0107
0.078,-0.0177
0.079,-0.0149
0.08,-0.0142
0.081,-0.0257
0.082,-0.034
0.083,-0.0325
0.084,-0.0257
0.085,-0.0173
0.086,-0.0162
0.087,-0.0112
0.088,-0.0085
0.089,-0.0078
0.09,-0.0025
0.091,-0.003
0.092,0.0001
0.093,-0.0015
0.094,-0.0019
0.095,-0.007
0.096,-0.0089
0.097,-0.0094
0.098,-0.0111
0.099,-0.0123
0.1,-0.0081
0.101,-0.0087
0.102,-0.0092
0.103,-0.0017
0.104,-0.0006
0.105,0.0146
0.106,0.0256
0.107,0.0276
0.108,0.0257
0.109,0.0008
0.11,-0.0241
0.111,-0.0402
0.112,0.0043
0.113,0.0232
0.114,0.0175
0.115,0.0019
0.116,-0.0219
0.117,-0.0261
0.118,-0.0299
0.119,-0.0405
0.12,-0.0374
0.121,-0.0404
0.122,-0.0378
0.123,-0.0354
0.124,-0.0332
0.125,-0.0393
0.126,-0.0374
0.127,-0.0325
0.128,-0.034
0.129,-0.0352
0.13,-0.0341
0.131,-0.033
0.132,-0.0239
0.133,-0.0274
0.134,-0.0217
0.135,-0.0167
0.136,-0.0122
0.137,-0.0114
0.138,-0.0092
0.139,-0.0138
0.14,-0.0133
0.141,-0.0094
0.142,-0.0091
0.143,-0.0069
0.144,-0.0096
0.145,-0.0131
0.146,-0.0118
0.147,-0.0138
0.148,-0.0089
0.149,-0.007
0.15,-0.0026
0.151,-0.0065
0.152,-0.0052
0.153,0.0018
0.154,0.0021
0.155,0.0083
0.156,0.0223
0.157,0.0444
0.158,0.0356
0.159,0.0061
0.16,-0.0134
0.161,-0.0169
0.162,-0.0264
0.163,-0.0294
0.164,-0.0268
0.165,-0.0292
0.166,-0.0314
0.167,-0.0253
0.168,-0.0199
0.169,-0.0182
0.17,-0.0167
0.171,-0.0155
0.172,-0.007
0.173,-0.0059
0.174,-0.0089
0.175,-0.0061
0.176,-0.0069
0.177,-0.0091
0.178,-0.0085
0.179,-0.008
0.18,-0.0085
0.181,-0.0131
0.182,-0.01
0.183,-0.0127
0.184,-0.0114
0.185,-0.0118
0.186,-0.0145
0.187,-0.0134
0.188,-0.0123
0.189,-0.0122
0.19,-0.0153
0.191,-0.0091
0.192,-0.01
0.193,-0.0076
0.194,-0.0069
0.195,-0.0144
0.196,-0.0134
0.197,-0.0144
0.198,-0.0052
0.199,-0.0017
0.2,0.0016
0.201,0.0025
0.202,-0.0039
0.203,-0.0032
0.204,-0.0004
0.205,-0.012
0.206,-0.0103
0.207,0.0001
0.208,0.0124
0.209,0.0041
0.21,-0.0184
0.211,-0.0409
0.212,-0.0497
0.213,-0.0471
0.214,-0.0495
0.215,-0.0385
0.216,-0.0365
0.217,-0.0237
0.218,-0.0188
0.219,-0.0144
0.22,-0.0103
0.221,-0.0069
0.222,-0.0036
0.223,-0.0065
0.224,-0.0037
0.225,-0.0094
0.226,-0.0101
0.227,-0.0134
0.228,-0.0178
0.229,-0.0162
0.23,-0.0195
0.231,-0.0173
0.232,-0.0184
0.233,-0.0173
0.234,-0.0162
0.235,-0.0182
0.236,-0.0175
0.237,-0.0134
0.238,-0.0083
0.239,-0.0065
0.24,-0.0059
0.241,-0.0098
0.242,-0.0094
0.243,-0.0081
0.244,-0.0092
0.245,-0.0118
0.246,-0.0122
0.247,-0.0076
0.248,-0.0001
0.249,-0.007
0.25,-0.0098
0.251,-0.0074
0.252,-0.0081
0.253,-0.0048
0.254,-0.0004
0.255,-0.0107
0.256,-0.0091
0.257,-0.0015
0.258,0.0155
0.259,0.0226
0.26,0.0248
0.261,0.0268
0.262,-0.0006
0.263,-0.0202
0.264,-0.0308
0.265,-0.034
0.266,-0.0427
0.267,-0.0349
0.268,-0.042
0.269,-0.0354
0.27,-0.0294
0.271,-0.0275
0.272,-0.0226
0.273,-0.0211
0.274,-0.0171
0.275,-0.0111
0.276,-0.01
0.277,-0.0109
0.278,-0.0136
0.279,-0.0112
0.28,-0.0105
0.281,-0.0138
0.282,-0.0133
0.283,-0.0127
0.284,-0.0072
0.285,-0.0125
0.286,-0.0023
0.287,0.0052
0.288,0.0065
0.289,0.01
0.29,0.0043
0.291,0.0034
0.292,0.0025
0.293,0.0018
0.294,-0.0067
0.295,-0.0123
0.296,-0.0173
0.297,-0.0257
0.298,-0.0224
0.299,-0.0274
0.3,-0.0246
0.301,-0.0171
0.302,-0.02
0.303,-0.0136
0.304,-0.0012
0.305,-0.003
0.306,-0.018
0.307,-0.0263
0.308,-0.0248
0.309,-0.0208
0.31,-0.0023
0.311,0.0111
0.312,0.0182
0.313,0.0116
0.314,-0.0065
0.315,-0.0332
0.316,-0.0581
0.317,-0.0612
0.318,-0.07
0.319,-0.0834
0.32,-0.081
0.321,-0.0656
0.322,-0.0515
0.323,-0.0387
0.324,-0.0272
0.325,-0.0197
0.326,-0.0074
0.327,-0.0025
0.328,0.005
0.329,0.0091
0.33,0.0102
0.331,0.0159
0.332,0.027
0.333,0.0285
0.334,0.0298
0.335,0.0287
0.336,0.0343
0.337,0.0294
0.338,0.0248
0.339,0.034
0.34,0.0351
0.341,0.0318
0.342,0.0226
0.343,0.0166
0.344,0.0087
0.345,0.0018
0.346,-0.0085
0.347,-0.018
0.348,-0.0169
0.349,-0.0136
0.35,-0.0127
0.351,-0.0136
0.352,-0.008
0.353,-0.0118
0.354,-0.0123
0.355,-0.0067
0.356,-0.012
0.357,-0.0122
0.358,-0.0127
0.359,-0.0096
0.36,-0.0012
0.361,0.0173
0.362,0.0094
0.363,-0.0074
0.364,-0.0274
0.365,-0.0352
0.366,-0.0329
0.367,-0.0307
0.368,-0.0286
0.369,-0.0305
0.37,-0.0321
0.371,-0.0307
0.372,-0.0319
0.373,-0.0308
0.374,-0.0206
0.375,-0.0246
0.376,-0.0235
0.377,-0.0224
0.378,-0.0253
0.379,-0.0281
0.38,-0.0241
0.381,-0.0294
0.382,-0.0299
0.383,-0.0255
0.384,-0.0217
0.385,-0.0213
0.386,-0.021
0.387,-0.0147
0.388,-0.0045
0.389,-0.0004
0.39,0.008
0.391,0.0113
0.392,0.0142
0.393,0.0188
0.394,0.0113
0.395,-0.0039
0.396,-0.0061
0.397,-0.0041
0.398,-0.0023
0.399,-0.0105
0.4,-0.0091
0.401,-0.005
0.402,-0.0061
0.403,-0.0118
0.404,-0.0048
0.405,-0.0021
0.406,-0.0078
0.407,-0.0056
0.408,-0.0151
0.409,-0.0145
0.41,-0.005
0.411,0.01
0.412,0.0402
0.413,0.0966
0.414,0.0889
0.415,0.068
0.416,0.0492
0.417,0.0549
0.418,0.0393
0.419,0.0345
0.42,0.0473
0.421,0.0435
0.422,0.047
0.423,0.0375
0.424,0.0168
0.425,0.0034
0.426,-0.0134
0.427,-0.0288
0.428,-0.0389
0.429,-0.0517
0.43,-0.0667
0.431,-0.0728
0.432,-0.0783
0.433,-0.0865
0.434,-0.094
0.435,-0.0953
0.436,-0.0869
0.437,-0.0858
0.438,-0.0849
0.439,-0.0858
0.44,-0.0733
0.441,-0.0459
0.442,-0.0341
0.443,-0.0376
0.444,-0.0345
0.445,-0.0374
0.446,-0.04
0.447,-0.0471
0.448,-0.0449
0.449,-0.047
0.45,-0.0341
0.451,-0.0259
0.452,-0.0303
0.453,-0.0263
0.454,-0.0228
0.455,-0.0171
0.456,-0.0101
0.457,-0.0186
0.458,-0.0334
0.459,-0.0429
0.46,-0.0449
0.461,-0.0431
0.462,-0.0415
0.463,-0.0219
0.464,-0.0297
0.465,-0.0614
0.466,-0.083
0.467,-0.0869
0.468,-0.0903
0.469,-0.0935
0.47,-0.1142
0.471,-0.1116
0.472,-0.1092
0.473,-0.0893
0.474,-0.0543
0.475,-0.021
0.476,0.0093
0.477,0.0448
0.478,0.0878
0.479,0.1513
0.48,0.1261
0.481,0.1184
0.482,0.1114
0.483,0.1052
0.484,0.088
0.485,0.0931
0.486,0.0598
0.487,0.0296
0.488,0.01
0.489,0.0065
0.49,0.0096
0.491,0.0126
0.492,-0.0008
0.493,-0.0129
0.494,-0.0151
0.495,-0.0292
0.496,-0.0457
0.497,-0.0523
0.498,-0.0462
0.499,-0.0297
0.5,-0.0231
0.501,-0.0252
0.502,-0.0307
0.503,-0.0356
0.504,-0.04
0.505,-0.044
0.506,-0.0524
0.507,-0.0492
0.508,-0.0541
0.509,-0.0605
0.51,-0.0502
0.511,-0.0543
0.512,-0.0427
0.513,-0.0312
0.514,-0.0268
0.515,-0.0308
0.516,-0.0493
0.517,-0.0896
0.518,-0.1068
0.519,-0.1017
0.52,-0.1065
0.521,-0.0936
0.522,-0.0819
0.523,-0.0713
0.524,-0.0682
0.525,-0.0594
0.526,-0.0515
0.527,-0.0394
0.528,-0.0329
0.529,-0.0188
0.53,-0.0059
0.531,0.0157
0.532,0.0305
0.533,0.0547
0.534,0.0642
0.535,0.073
0.536,0.0755
0.537,0.0732
0.538,0.071
0.539,0.0569
0.54,0.0587
0.541,0.0472
0.542,0.0367
0.543,0.0327
0.544,0.0267
0.545,0.0234
0.546,0.0224
0.547,0.0215
0.548,0.0223
0.549,0.0307
0.55,0.0386
0.551,0.0254
0.552,0.0162
0.553,0.0146
0.554,0.0102
0.555,0.0061
0.556,0.0027
0.557,-0.003
0.558,-0.0039
0.559,-0.0142
0.56,-0.0101
0.561,-0.0166
0.562,-0.02
0.563,-0.0052
0.564,0.0008
0.565,0.0173
0.566,0.0239
0.567,0.0058
0.568,-0.0063
0.569,-0.0173
0.57,-0.0153
0.571,-0.0171
0.572,-0.0188
0.573,-0.0083
0.574,-0.0096
0.575,-0.0061
0.576,-0.0094
0.577,-0.0123
0.578,-0.0169
0.579,-0.0145
0.58,-0.0107
0.581,-0.0074
0.582,-0.008
0.583,-0.0085
0.584,-0.003
0.585,-0.0069
0.586,-0.0036
0.587,0.0008
0.588,0.0047
0.589,0.005
0.59,-0.001
0.591,-0.0067
0.592,-0.0074
0.593,-0.008
0.594,-0.0149
0.595,-0.0252
0.596,-0.0292
0.597,-0.0281
0.598,-0.0383
0.599,-0.0343
0.6,-0.0231
0.601,-0.0188
0.602,-0.0255
0.603,-0.0316
0.604,-0.0259
0.605,-0.0189
0.606,-0.0217
0.607,-0.0193
0.608,-0.0092
0.609,-0.0133
0.61,-0.0167
0.611,-0.02
0.612,-0.0202
0.613,-0.0173
0.614,-0.007
0.615,0.0135
0.616,0.0223
0.617,0.0301
0.618,0.0373
0.619,0.0219
0.62,-0.0083
0.621,-0.0125
0.622,-0.0164
0.623,-0.0199
0.624,-0.0167
0.625,-0.0197
0.626,-0.0118
0.627,-0.0189
0.628,-0.0211
0.629,-0.0191
0.63,-0.01
0.631,0.0016
0.632,0.0001
0.633,-0.0067
0.634,-0.0127
0.635,-0.0116
0.636,-0.0186
0.637,-0.0231
0.638,-0.0208
0.639,-0.0215
0.64,-0.0153
0.641,-0.0112
0.642,-0.0134
0.643,-0.0153
0.644,-0.0235
0.645,-0.0246
0.646,-0.0217
0.647,-0.0226
0.648,-0.0283
0.649,-0.0305
0.65,-0.0286
0.651,-0.0255
0.652,-0.0217
0.653,-0.0171
0.654,-0.014
0.655,-0.0101
0.656,-0.0114
0.657,-0.0101
0.658,-0.0039
0.659,-0.0012
0.66,0.0113
0.661,0.0131
0.662,0.018
0.663,0.0252
0.664,0.0177
0.665,0.0217
0.666,0.0278
0.667,0.0356
0.668,0.0204
0.669,-0.0127
0.67,-0.046
0.671,-0.0502
0.672,-0.0464
0.673,-0.0499
0.674,-0.053
0.675,-0.0501
0.676,-0.0422
0.677,-0.0398
0.678,-0.0332
0.679,-0.0312
0.68,-0.0294
0.681,-0.031
0.682,-0.0235
0.683,-0.0195
0.684,-0.0111
0.685,-0.01
0.686,-0.0109
0.687,-0.01
0.688,-0.0076
0.689,-0.0054
0.69,0.0008
0.691,0.0032
0.692,0.001
0.693,0.0072
0.694,0.0032
0.695,0.001
0.696,-0.0065
0.697,-0.0074
0.698,-0.0101
0.699,-0.0061
0.7,-0.0083
0.701,-0.005
0.702,-0.0032
0.703,-0.0048
0.704,-0.0103
0.705,-0.0142
0.706,-0.0147
0.707,-0.0191
0.708,-0.0208
0.709,-0.0133
0.71,-0.01
0.711,-0.0169
0.712,-0.0215
0.713,-0.0239
0.714,-0.0217
0.715,-0.021
0.716,-0.0147
0.717,-0.0023
0.718,0.0252
0.719,0.029
0.72,0.0041
0.721,-0.012
0.722,-0.0208
0.723,-0.0233
0.724,-0.0257
0.725,-0.0191
0.726,-0.0252
0.727,-0.027
0.728,-0.0286
0.729,-0.0301
0.73,-0.0341
0.731,-0.033
0.732,-0.0341
0.733,-0.0332
0.734,-0.023
0.735,-0.0217
0.736,-0.0228
0.737,-0.0195
0.738,-0.0145
0.739,-0.0173
0.74,-0.018
0.741,-0.0142
0.742,-0.016
0.743,-0.0142
0.744,-0.0169
0.745,-0.0215
0.746,-0.0221
0.747,-0.0283
0.748,-0.0259
0.749,-0.0237
0.75,-0.0204
0.751,-0.0186
0.752,-0.0112
0.753,-0.0063
0.754,0.0001
0.755,0.0025
0.756,0.0003
0.757,0.0065
0.758,0.0058
0.759,0.0019
0.76,0.0001
0.761,-0.003
0.762,-0.0103
0.763,-0.0094
0.764,-0.0085
0.765,-0.0078
0.766,0.0014
0.767,0.0149
0.768,0.0387
0.769,0.0549
0.77,0.04
0.771,0.0105
0.772,0.0067
0.773,0.0032
0.774,0.0001
0.775,-0.0028
0.776,-0.0107
0.777,-0.0178
0.778,-0.02
0.779,-0.0301
0.78,-0.0246
0.781,-0.0296
0.782,-0.031
0.783,-0.0297
0.784,-0.0286
0.785,-0.0319
0.786,-0.025
0.787,-0.0222
0.788,-0.0263
0.789,-0.0301
0.79,-0.0283
0.791,-0.0213
0.792,-0.0241
0.793,-0.0264
0.794,-0.0303
0.795,-0.02
0.796,-0.0156
0.797,-0.0252
0.798,-0.0263
0.799,-0.0274
0.8,-0.0283
0.801,-0.0255
0.802,-0.018
0.803,-0.0131
0.804,-0.0103
0.805,-0.0028
0.806,-0.0019
0.807,0.0027
0.808,0.0067
0.809,0.0045
0.81,-0.0017
0.811,-0.0074
0.812,-0.0112
0.813,-0.0131
0.814,-0.0087
0.815,-0.0125
0.816,-0.0136
0.817,-0.0133
0.818,-0.0101
0.819,-0.0039
0.82,0.0007
0.821,0.0131
0.822,0.0149
0.823,-0.01
0.824,-0.0206
0.825,-0.0301
0.826,-0.0272
0.827,-0.0193
0.828,-0.0264
0.829,-0.0242
0.83,-0.0222
0.831,-0.0204
0.832,-0.0155
0.833,-0.014
0.834,-0.0072
0.835,-0.0083
0.836,-0.0186
0.837,-0.0281
0.838,-0.0246
0.839,-0.0213
0.84,-0.0144
0.841,-0.008
0.842,-0.0023
0.843,-0.003
0.844,-0.0076
0.845,-0.0058
0.846,-0.0074
0.847,-0.0008
0.848,0.0131
0.849,0.0191
0.85,0.0173
0.851,0.0091
0.852,0.0076
0.853,0.0008
0.854,0.0193
0.855,0.0596
0.856,0.0653
0.857,0.0497
0.858,0.0354
0.859,0.0138
0.86,-0.0058
0.861,-0.0164
0.862,-0.0325
0.863,-0.0354
0.864,-0.0488
0.865,-0.0512
0.866,-0.0534
0.867,-0.0546
0.868,-0.0446
0.869,-0.0318
0.87,-0.0235
0.871,-0.007
0.872,-0.0136
0.873,-0.0398
0.874,-0.0433
0.875,-0.0528
0.876,-0.0499
0.877,-0.0524
0.878,-0.0501
0.879,-0.0479
0.88,-0.0459
0.881,-0.0404
0.882,-0.0354
0.883,-0.034
0.884,-0.0299
0.885,-0.031
0.886,-0.0231
0.887,-0.0182
0.888,-0.0098
0.889,-0.0087
0.89,-0.0096
0.891,-0.0087
0.892,-0.0094
0.893,-0.0101
0.894,-0.0107
0.895,-0.0089
0.896,-0.0072
0.897,0.0003
0.898,-0.003
0.899,-0.0059
0.9,-0.005
0.901,-0.0026
0.902,-0.0065
0.903,-0.0059
0.904,-0.0091
0.905,-0.0028
0.906,-0.0103
0.907,-0.0133
0.908,-0.0069
0.909,-0.0076
0.91,-0.0006
0.911,0.0003
0.912,-0.0054
0.913,-0.0107
0.914,-0.0182
0.915,-0.0191
0.916,-0.0255
0.917,-0.0215
0.918,-0.0166
0.919,-0.0204
0.92,-0.0142
0.921,-0.0017
0.922,0.0221
0.923,0.0252
0.924,0.0104
0.925,-0.0138
0.926,-0.0169
0.927,-0.0199
0.928,-0.0173
0.929,-0.0197
0.93,-0.0219
0.931,-0.0158
0.932,-0.025
0.933,-0.0167
0.934,-0.0182
0.935,0.0023
0.936,0.0409
0.937,0.0461
0.938,0.0413
0.939,0.0371
0.94,0.0254
0.941,0.0148
0.942,0.0116
0.943,0.0029
0.944,-0.005
0.945,-0.0171
0.946,-0.0193
0.947,-0.0294
0.948,-0.0312
0.949,-0.0329
0.95,-0.0372
0.951,-0.036
0.952,-0.0394
0.953,-0.0383
0.954,-0.0272
0.955,-0.0228
0.956,-0.0268
0.957,-0.0257
0.958,-0.0178
0.959,-0.0188
0.96,-0.016
0.961,-0.0217
0.962,-0.0224
0.963,-0.0242
0.964,-0.0248
0.965,-0.0164
0.966,-0.0052
0.967,-0.0127
0.968,-0.0167
0.969,-0.0188
0.97,-0.0248
0.971,-0.01
0.972,-0.0039
0.973,0.0126
0.974,0.0104
0.975,-0.0199
0.976,-0.0501
0.977,-0.0618
0.978,-0.0583
0.979,-0.0488
0.98,-0.0459
0.981,-0.038
0.982,-0.0308
0.983,-0.0242
0.984,-0.0222
0.985,-0.0204
0.986,-0.0188
0.987,-0.0112
0.988,-0.01
0.989,-0.0089
0.99,-0.001
0.991,0.0082
0.992,0.0047
0.993,0.0126
0.994,0.0096
0.995,-0.0006
0.996,0.0007
0.997,0.0018
0.998,-0.0061
0.999,-0.0091
1,-0.0063
1.001,-0.0087
1.002,-0.0109
1.003,-0.0103
1.004,-0.0085
1.005,-0.0023
1.006,0.0018
1.007,0.0025
1.008,-0.0008
1.009,-0.0026
1.01,-0.0021
1.011,-0.0087
1.012,-0.0114
1.013,-0.0107
1.014,-0.0145
1.015,-0.0083
1.016,-0.0107
1.017,-0.0054
1.018,0.0008
1.019,0.0133
1.02,0.012
1.021,0.0138
1.022,0.0155
1.023,0.0199
1.024,0.0404
1.025,0.0375
1.026,0.0133
1.027,-0.016
1.028,-0.0277
1.029,-0.0383
1.03,-0.0415
1.031,-0.0385
1.032,-0.036
1.033,-0.0431
1.034,-0.0409
1.035,-0.0349
1.036,-0.0294
1.037,-0.031
1.038,-0.0235
1.039,-0.0167
1.04,-0.0178
1.041,-0.0008
1.042,0.0016
1.043,-0.0184
1.044,-0.021
1.045,-0.0233
1.046,-0.0255
1.047,-0.0235
1.048,-0.0363
1.049,-0.0347
1.05,-0.0303
1.051,-0.0263
1.052,-0.0228
1.053,-0.0149
1.054,-0.0058
1.055,-0.0023
1.056,-0.0034
1.057,-0.0025
1.058,0.0003
1.059,0.001
1.06,-0.0012
1.061,-0.0045
1.062,-0.0076
1.063,-0.0025
1.064,-0.003
1.065,-0.0061
1.066,-0.01
1.067,-0.0067
1.068,-0.0045
1.069,-0.0056
1.07,-0.0098
1.071,-0.0107
1.072,-0.0034
1.073,0.0058
1.074,0.0118
1.075,0.0221
1.076,0.0261
1.077,0.025
1.078,0.0283
1.079,0.0171
1.08,-0.0054
1.081,-0.0279
1.082,-0.0367
1.083,-0.0393
1.084,-0.0369
1.085,-0.0259
1.086,-0.0118
1.087,-0.0026
1.088,0.0023
1.089,-0.0021
1.09,-0.0034
1.091,-0.0045
1.092,-0.0034
1.093,-0.0025
1.094,-0.0109
1.095,-0.012
1.096,-0.0149
1.097,-0.0158
1.098,-0.0215
1.099,-0.0285
1.1,-0.0275
1.101,-0.0283
1.102,-0.0261
1.103,-0.0255
1.104,-0.025
1.105,-0.0188
1.106,-0.0131
1.107,-0.0015
1.108,-0.0065
1.109,-0.014
1.11,-0.01
1.111,-0.0111
1.112,-0.0167
1.113,-0.0177
1.114,-0.0222
1.115,-0.0215
1.116,-0.0222
1.117,-0.0228
1.118,-0.0233
1.119,-0.025
1.12,-0.0204
1.121,-0.0134
1.122,-0.0048
1.123,-0.0021
1.124,0.0104
1.125,0.0195
1.126,0.0179
1.127,0.0193
1.128,0.0043
1.129,-0.0138
1.13,-0.0307
1.131,-0.0329
1.132,-0.0389
1.133,-0.0407
1.134,-0.0424
1.135,-0.038
1.136,-0.0367
1.137,-0.0378
1.138,-0.0275
1.139,-0.0153
1.14,-0.0136
1.141,-0.0092
1.142,-0.008
1.143,-0.0019
1.144,-0.0052
1.145,-0.0101
1.146,-0.0092
1.147,-0.01
1.148,-0.0122
1.149,-0.0103
1.15,-0.0047
1.151,-0.0162
1.152,-0.0112
1.153,-0.0008
1.154,0.0005
1.155,0.0065
1.156,-0.0014
1.157,0.0016
1.158,0.0043
1.159,-0.0014
1.16,-0.0006
1.161,-0.0081
1.162,-0.0131
1.163,-0.0122
1.164,-0.0178
1.165,-0.0156
1.166,-0.0246
1.167,-0.0307
1.168,-0.0318
1.169,-0.0327
1.17,-0.0318
1.171,-0.0261
1.172,-0.0222
1.173,-0.0129
1.174,-0.0067
1.175,-0.0026
1.176,0.0089
1.177,0.0338
1.178,0.0373
1.179,0.0278
1.18,0.001
1.181,-0.0096
1.182,-0.0191
1.183,-0.0221
1.184,-0.0142
1.185,-0.0166
1.186,-0.0144
1.187,-0.0123
1.188,-0.0105
1.189,-0.0155
1.19,-0.008
1.191,-0.0012
1.192,-0.0096
1.193,-0.0085
1.194,-0.0134
1.195,-0.0199
1.196,-0.0222
1.197,-0.023
1.198,-0.0211
1.199,-0.0167
1.2,-0.014
1.201,-0.0107
1.202,-0.0103
1.203,-0.0142
1.204,-0.0155
1.205,-0.0167
1.206,-0.014
1.207,-0.0175
1.208,-0.0114
1.209,-0.0138
1.21,-0.0177
1.211,-0.0195
1.212,-0.0189
1.213,-0.0274
1.214,-0.0459
1.215,-0.0325
1.216,-0.0349
1.217,-0.0195
1.218,-0.0094
1.219,-0.0076
1.22,-0.0026
1.221,0.0109
1.222,0.0127
1.223,0.0144
1.224,0.0135
1.225,0.0149
1.226,0.019
1.227,0.0224
1.228,0.0395
1.229,0.0323
1.23,0.017
1.231,-0.0052
1.232,-0.02
1.233,-0.0279
1.234,-0.0303
1.235,-0.0237
1.236,-0.0056
1.237,0.0065
1.238,0.0087
1.239,0.0067
1.24,0.0085
1.241,0.0268
1.242,0.0245
1.243,0.0135
1.244,0.0074
1.245,-0.0091
1.246,-0.02
1.247,-0.0261
1.248,-0.0316
1.249,-0.0398
1.25,-0.0473
1.251,-0.046
1.252,-0.0449
1.253,-0.046
1.254,-0.049
1.255,-0.0444
1.256,-0.042
1.257,-0.0367
1.258,-0.0334
1.259,-0.0352
1.26,-0.0336
1.261,-0.034
1.262,-0.0336
1.263,-0.0347
1.264,-0.0336
1.265,-0.0332
1.266,-0.0305
1.267,-0.0294
1.268,-0.0239
1.269,-0.0123
1.27,-0.0107
1.271,-0.0063
1.272,-0.0076
1.273,-0.0041
1.274,-0.0008
1.275,-0.0026
1.276,-0.0056
1.277,-0.0047
1.278,0.0078
1.279,0.006
1.28,0.021
1.281,0.0109
1.282,-0.0166
1.283,-0.0362
1.284,-0.0396
1.285,-0.0365
1.286,-0.0277
1.287,-0.0144
1.288,-0.0167
1.289,-0.0189
1.29,-0.021
1.291,-0.0191
1.292,-0.0208
1.293,-0.0193
1.294,-0.0206
1.295,-0.0266
1.296,-0.0323
1.297,-0.0231
1.298,-0.0221
1.299,-0.021
1.3,-0.014
1.301,-0.0112
1.302,-0.012
1.303,-0.0019
1.304,0.0186
1.305,0.0631
1.306,0.082
1.307,0.0647
1.308,0.0596
1.309,0.0358
1.31,0.023
1.311,0.0034
1.312,-0.0144
1.313,-0.0239
1.314,-0.0268
1.315,-0.0347
1.316,-0.0418
1.317,-0.0484
1.318,-0.0504
1.319,-0.0486
1.32,-0.0437
1.321,-0.0393
1.322,-0.0325
1.323,-0.0241
1.324,-0.0162
1.325,-0.0153
1.326,-0.0114
1.327,-0.016
1.328,-0.0069
1.329,0.0067
1.33,0.0232
1.331,0.0254
1.332,0.0153
1.333,-0.0085
1.334,-0.0246
1.335,-0.0334
1.336,-0.036
1.337,-0.0383
1.338,-0.0405
1.339,-0.0466
1.34,-0.0484
1.341,-0.0402
1.342,-0.0416
1.343,-0.0457
1.344,-0.0422
1.345,-0.0455
1.346,-0.0464
1.347,-0.0418
1.348,-0.0394
1.349,-0.051
1.35,-0.0726
1.351,-0.0874
1.352,-0.0741
1.353,-0.0717
1.354,-0.0429
1.355,0.0005
1.356,0.0408
1.357,0.0774
1.358,0.1107
1.359,0.1235
1.36,0.1274
1.361,0.1096
1.362,0.0935
1.363,0.0906
1.364,0.0772
1.365,0.0701
1.366,0.0501
1.367,0.0151
1.368,0.0008
1.369,0.005
1.37,0.0012
1.371,0.0118
1.372,0.0213
1.373,0.0065
1.374,0.0039
1.375,-0.0032
1.376,-0.0054
1.377,-0.0151
1.378,-0.0252
1.379,-0.005
1.38,-0.0076
1.381,-0.0004
1.382,0.0149
1.383,-0.0072
1.384,-0.034
1.385,-0.0517
1.386,-0.0678
1.387,-0.0766
1.388,-0.09
1.389,-0.0828
1.39,-0.0806
1.391,-0.0665
1.392,-0.0684
1.393,-0.0799
1.394,-0.0874
1.395,-0.1024
1.396,-0.1085
1.397,-0.1176
1.398,-0.1127
1.399,-0.1112
1.4,-0.1017
1.401,-0.0905
1.402,-0.0861
1.403,-0.0794
1.404,-0.0632
1.405,-0.0567
1.406,-0.0506
1.407,-0.0488
1.408,-0.0338
1.409,-0.0156
1.41,0.0063
1.411,0.027
1.412,0.0404
1.413,0.0572
1.414,0.0638
1.415,0.0578
1.416,0.0596
1.417,0.0613
1.418,0.0598
1.419,0.0503
1.42,0.0563
1.421,0.0552
1.422,0.0441
1.423,0.0397
1.424,0.0384
1.425,0.03
1.426,0.031
1.427,0.0179
1.428,0.0098
1.429,0.008
1.43,-0.0003
1.431,0.0223
1.432,0.0254
1.433,0.0283
1.434,0.0309
1.435,0.0041
1.436,-0.0208
1.437,-0.0239
1.438,-0.0327
1.439,-0.0301
1.44,-0.0277
1.441,-0.0255
1.442,-0.0275
1.443,-0.0221
1.444,-0.027
1.445,-0.0314
1.446,-0.0274
1.447,-0.0239
1.448,-0.0182
1.449,-0.0173
1.45,-0.0164
1.451,-0.014
1.452,-0.0133
1.453,-0.0058
1.454,-0.0048
1.455,-0.0094
1.456,-0.0087
1.457,-0.0034
1.458,0.0069
1.459,0.0113
1.46,0.0072
1.461,-0.0039
1.462,-0.0083
1.463,-0.0123
1.464,-0.0158
1.465,-0.0101
1.466,-0.0151
1.467,-0.0215
1.468,-0.0175
1.469,-0.0197
1.47,-0.0215
1.471,-0.0221
1.472,-0.0193
1.473,-0.0169
1.474,-0.0191
1.475,-0.0188
1.476,-0.0169
1.477,-0.0166
1.478,-0.0193
1.479,-0.0173
1.48,-0.0184
1.481,-0.0129
1.482,-0.0014
1.483,0.0202
1.484,0.0115
1.485,-0.0072
1.486,-0.0241
1.487,-0.0307
1.488,-0.0286
1.489,-0.0268
1.49,-0.0285
1.491,-0.0149
1.492,-0.0204
1.493,-0.0221
1.494,-0.0235
1.495,-0.0195
1.496,-0.0184
1.497,-0.0151
1.498,-0.016
1.499,-0.0133
1.5,-0.014
1.501,-0.0133
1.502,-0.0087
1.503,-0.0105
1.504,-0.0089
1.505,-0.0101
1.506,-0.008
1.507,-0.0017
1.508,0.0047
1.509,0.0007
1.51,-0.0032
1.511,-0.0107
1.512,-0.0098
1.513,-0.0144
1.514,-0.0151
1.515,-0.0158
1.516,-0.0177
1.517,-0.012
1.518,-0.0158
1.519,-0.0177
1.52,-0.0094
1.521,-0.0083
1.522,-0.0112
1.523,-0.0122
1.524,-0.0114
1.525,-0.0107
1.526,-0.0125
1.527,-0.0156
1.528,-0.0184
1.529,-0.0171
1.53,-0.021
1.531,-0.0167
1.532,-0.0083
1.533,0.0102
1.534,-0.0032
1.535,-0.0153
1.536,-0.0043
1.537,0.0098
1.538,0.0226
1.539,0.0276
1.54,0.014
1.541,-0.0098
1.542,-0.0323
1.543,-0.0352
1.544,-0.0378
1.545,-0.0354
1.546,-0.0376
1.547,-0.0356
1.548,-0.0264
1.549,-0.0281
1.55,-0.0237
1.551,-0.0197
1.552,-0.0231
1.553,-0.0199
1.554,-0.0169
1.555,-0.0105
1.556,-0.0065
1.557,-0.0026
1.558,-0.0021
1.559,-0.0052
1.56,-0.0036
1.561,-0.0101
1.562,-0.0111
1.563,-0.0151
1.564,-0.0158
1.565,-0.0177
1.566,-0.0171
1.567,-0.0166
1.568,-0.0169
1.569,-0.0173
1.57,-0.0162
1.571,-0.0127
1.572,-0.014
1.573,-0.0112
1.574,-0.0094
1.575,-0.0083
1.576,-0.0063
1.577,-0.0105
1.578,-0.0123
1.579,-0.0072
1.58,-0.0105
1.581,-0.0114
1.582,-0.0133
1.583,-0.0048
1.584,0.0137
1.585,0.0378
1.586,0.0217
1.587,-0.0109
1.588,-0.0237
1.589,-0.0199
1.59,-0.0233
1.591,-0.0264
1.592,-0.0235
1.593,-0.0314
1.594,-0.0338
1.595,-0.0272
1.596,-0.0252
1.597,-0.0233
1.598,-0.0184
1.599,-0.0199
1.6,-0.0211
1.601,-0.0127
1.602,-0.0116
1.603,-0.0107
1.604,-0.0134
1.605,-0.0059
1.606,-0.0069
1.607,-0.0096
1.608,-0.0056
1.609,-0.0094
1.61,-0.0061
1.611,-0.0105
1.612,-0.0133
1.613,-0.0087
1.614,-0.0131
1.615,-0.0147
1.616,-0.0134
1.617,-0.0131
1.618,-0.012
1.619,-0.0078
1.62,-0.0061
1.621,-0.0048
1.622,-0.0017
1.623,-0.0021
1.624,0.0005
1.625,0.0023
1.626,0.0025
1.627,-0.0017
1.628,-0.0061
1.629,-0.0023
1.63,0.0032
1.631,0.0071
1.632,0.0164
1.633,0.0146
1.634,0.0228
1.635,0.0376
1.636,0.0397
1.637,0.0268
1.638,0.0019
1.639,-0.023
1.64,-0.0261
1.641,-0.029
1.642,-0.0316
1.643,-0.034
1.644,-0.0405
1.645,-0.0385
1.646,-0.0404
1.647,-0.0387
1.648,-0.0372
1.649,-0.036
1.65,-0.0349
1.651,-0.0382
1.652,-0.0332
1.653,-0.0268
1.654,-0.0228
1.655,-0.0175
1.656,-0.01
1.657,-0.007
1.658,-0.0025
1.659,-0.01
1.66,-0.0091
1.661,-0.0136
1.662,-0.0129
1.663,-0.0199
1.664,-0.0171
1.665,-0.0164
1.666,-0.0125
1.667,-0.0131
1.668,-0.0149
1.669,-0.0155
1.67,-0.0089
1.671,-0.0116
1.672,-0.0092
1.673,-0.0131
1.674,-0.0069
1.675,-0.0061
1.676,-0.0069
1.677,-0.0101
1.678,-0.0133
1.679,-0.0171
1.68,-0.0167
1.681,-0.0199
1.682,-0.0226
1.683,-0.0173
1.684,-0.0123
1.685,-0.0021
1.686,0.0175
1.687,0.0254
1.688,0.0278
1.689,0.0212
1.69,-0.005
1.691,-0.0156
1.692,-0.0252
1.693,-0.0222
1.694,-0.0356
1.695,-0.0332
1.696,-0.0354
1.697,-0.0374
1.698,-0.0356
1.699,-0.0274
1.7,-0.0259
1.701,-0.0272
1.702,-0.0261
1.703,-0.0228
1.704,-0.0199
1.705,-0.0114
1.706,-0.0103
1.707,-0.0054
1.708,-0.0045
1.709,-0.0085
1.71,-0.0078
1.711,-0.0096
1.712,-0.0114
1.713,-0.0153
1.714,-0.0107
1.715,-0.0101
1.716,-0.0085
1.717,-0.0089
1.718,-0.0019
1.719,-0.0048
1.72,-0.0094
1.721,-0.007
1.722,0.0014
1.723,0.0025
1.724,0.0054
1.725,0.0063
1.726,0.0071
1.727,0.0018
1.728,-0.0045
1.729,-0.0085
1.73,-0.0107
1.731,-0.0153
1.732,-0.0197
1.733,-0.0213
1.734,-0.0144
1.735,-0.0147
1.736,-0.0078
1.737,0.0074
1.738,0.0228
1.739,0.0208
1.74,-0.0067
1.741,-0.0263
1.742,-0.0297
1.743,-0.0266
1.744,-0.0354
1.745,-0.038
1.746,-0.0404
1.747,-0.0338
1.748,-0.0358
1.749,-0.034
1.75,-0.029
1.751,-0.0246
1.752,-0.0233
1.753,-0.0199
1.754,-0.021
1.755,-0.0118
1.756,-0.0107
1.757,0.0041
1.758,0.0142
1.759,0.005
1.76,0.01
1.761,0.0115
1.762,0.0047
1.763,-0.0037
1.764,-0.0048
1.765,0.0104
1.766,0.0435
1.767,0.1056
1.768,0.0972
1.769,0.0895
1.77,0.0686
1.771,0.0624
1.772,0.0567
1.773,0.0411
1.774,0.0459
1.775,0.0331
1.776,0.0213
1.777,0.0036
1.778,0.0067
1.779,-0.014
1.78,-0.0219
1.781,-0.0387
1.782,-0.0541
1.783,-0.0682
1.784,-0.0737
1.785,-0.0869
1.786,-0.0951
1.787,-0.0907
1.788,-0.0867
1.789,-0.0682
1.79,-0.0656
1.791,-0.0876
1.792,-0.1024
1.793,-0.105
1.794,-0.1026
1.795,-0.1004
1.796,-0.0944
1.797,-0.0816
1.798,-0.0832
1.799,-0.0728
1.8,-0.0632
1.801,-0.0572
1.802,-0.047
1.803,-0.0402
1.804,-0.0318
1.805,-0.0285
1.806,-0.0215
1.807,-0.0188
1.808,-0.0131
1.809,-0.0078
1.81,-0.0083
1.811,-0.0065
1.812,-0.0103
1.813,-0.0091
1.814,-0.0122
1.815,-0.0101
1.816,-0.0158
1.817,-0.0101
1.818,-0.0094
1.819,-0.0004
1.82,0.008
1.821,0.0047
1.822,0.0018
1.823,0.0008
1.824,0.0049
1.825,0.0071
1.826,0.0065
1.827,0.0047
1.828,0.0019
1.829,-0.0014
1.83,-0.0017
1.831,-0.0037
1.832,-0.0072
1.833,-0.003
1.834,-0.0025
1.835,-0.0028
1.836,0.001
1.837,-0.0012
1.838,0.005
1.839,0.019
1.84,0.0331
1.841,0.0422
1.842,0.0272
1.843,0.005
1.844,-0.0156
1.845,-0.0235
1.846,-0.0307
1.847,-0.0285
1.848,-0.0305
1.849,-0.025
1.85,-0.02
1.851,-0.0215
1.852,-0.0175
1.853,-0.0164
1.854,-0.0107
1.855,-0.0098
1.856,-0.0144
1.857,-0.0136
1.858,-0.0098
1.859,-0.0116
1.86,-0.0047
1.861,-0.0092
1.862,-0.01
1.863,-0.0138
1.864,-0.0063
1.865,-0.0034
1.866,-0.0098
1.867,-0.0058
1.868,0.0012
1.869,0.0058
1.87,-0.0017
1.871,0.0012
1.872,0.0003
1.873,0.001
1.874,-0.0012
1.875,0.0021
1.876,-0.001
1.877,-0.0061
1.878,-0.0136
1.879,-0.0186
1.88,-0.0195
1.881,-0.0202
1.882,-0.0087
1.883,-0.0136
1.884,-0.0092
1.885,-0.0105
1.886,-0.0094
1.887,-0.01
1.888,-0.0067
1.889,0.0065
1.89,0.0193
1.891,0.0276
1.892,0.029
1.893,0.0085
1.894,-0.0122
1.895,-0.0255
1.896,-0.0327
1.897,-0.0261
1.898,-0.0281
1.899,-0.0263
1.9,-0.0279
1.901,-0.0264
1.902,-0.0224
1.903,-0.0189
1.904,-0.0178
1.905,-0.0109
1.906,-0.0118
1.907,-0.0078
1.908,-0.0056
1.909,-0.0074
1.91,-0.0105
1.911,-0.01
1.912,-0.0123
1.913,-0.0145
1.914,-0.0134
1.915,-0.0109
1.916,-0.0134
1.917,-0.012
1.918,-0.0151
1.919,-0.014
1.92,-0.0122
1.921,-0.0096
1.922,-0.0056
1.923,-0.0028
1.924,-0.0041
1.925,-0.0072
1.926,-0.0092
1.927,-0.0089
1.928,-0.0144
1.929,-0.0136
1.93,-0.0142
1.931,-0.0136
1.932,-0.0074
1.933,-0.0081
1.934,-0.0043
1.935,-0.0076
1.936,-0.0081
1.937,-0.012
1.938,-0.0034
1.939,-0.0021
1.94,0.0049
1.941,0.014
1.942,0.0325
1.943,0.0191
1.944,-0.0028
1.945,-0.0296
1.946,-0.033
1.947,-0.0362
1.948,-0.0332
1.949,-0.0307
1.95,-0.033
1.951,-0.0308
1.952,-0.0288
1.953,-0.0123
1.954,-0.0014
1.955,-0.0034
1.956,-0.0052
1.957,-0.0069
1.958,-0.0054
1.959,-0.0041
1.96,-0.0153
1.961,-0.0228
1.962,-0.0215
1.963,-0.018
1.964,-0.0169
1.965,-0.012
1.966,-0.0184
1.967,-0.0191
1.968,-0.0213
1.969,-0.0167
1.97,-0.0162
1.971,-0.0111
1.972,-0.0105
1.973,-0.0136
1.974,-0.0074
1.975,-0.0098
1.976,-0.0091
1.977,-0.0123
1.978,-0.0155
1.979,-0.0103
1.98,-0.0098
1.981,-0.0129
1.982,-0.0191
1.983,-0.0231
1.984,-0.0193
1.985,-0.0175
1.986,-0.0131
1.987,-0.0136
1.988,-0.0149
1.989,-0.0107
1.99,-0.0085
1.991,-0.0023
1.992,0.0116
1.993,0.0298
1.994,0.0321
1.995,-0.001
1.996,-0.0248
1.997,-0.029
1.998,-0.0329
1.999,-0.0363
2,-0.0332
2.001,-0.0362
2.002,-0.0336
2.003,-0.0264
2.004,-0.0242
2.005,-0.0182
2.006,-0.0164
2.007,-0.0114
2.008,-0.01
2.009,-0.0112
2.01,-0.0101
2.011,-0.0158
2.012,-0.0188
2.013,-0.0123
2.014,-0.0164
2.015,-0.0156
2.016,-0.0067
2.017,-0.0078
2.018,-0.0045
2.019,-0.0015
2.02,-0.008
2.021,-0.0087
2.022,-0.0034
2.023,-0.0001
2.024,0.0094
2.025,0.0135
2.026,-0.0001
2.027,-0.0056
2.028,-0.0171
2.029,-0.0186
2.03,-0.0199
2.031,-0.0188
2.032,-0.0155
2.033,-0.0125
2.034,-0.0134
2.035,-0.0158
2.036,-0.0151
2.037,-0.0197
2.038,-0.014
2.039,-0.0118
2.04,-0.0166
2.041,-0.0091
2.042,0.0061
2.043,0.0171
2.044,0.0272
2.045,0.029
2.046,0.0175
2.047,-0.005
2.048,-0.0275
2.049,-0.0363
2.05,-0.0338
2.051,-0.0362
2.052,-0.0296
2.053,-0.0275
2.054,-0.0257
2.055,-0.0208
2.056,-0.0133
2.057,-0.0092
2.058,-0.0058
2.059,-0.0069
2.06,-0.0098
2.061,-0.0089
2.062,-0.0065
2.063,-0.0103
2.064,-0.0149
2.065,-0.0118
2.066,-0.0134
2.067,-0.0122
2.068,-0.0118
2.069,-0.008
2.07,-0.0076
2.071,-0.0089
2.072,-0.005
2.073,-0.0047
2.074,-0.0069
2.075,-0.0048
2.076,-0.0045
2.077,-0.0078
2.078,-0.0116
2.079,-0.0149
2.08,-0.0162
2.081,-0.0173
2.082,-0.0147
2.083,-0.0158
2.084,-0.0125
2.085,-0.0112
2.086,-0.0085
2.087,-0.0096
2.088,-0.0063
2.089,-0.0001
2.09,-0.001
2.091,-0.0063
2.092,-0.0087
2.093,-0.0003
2.094,0.01
2.095,0.014
2.096,0.0201
2.097,0.0098
2.098,-0.008
2.099,-0.0299
2.1,-0.0387
2.101,-0.0413
2.102,-0.0437
2.103,-0.0459
2.104,-0.0358
2.105,-0.0266
2.106,-0.025
2.107,-0.0206
2.108,-0.0193
2.109,-0.0204
2.11,-0.0193
2.111,-0.0184
2.112,-0.0211
2.113,-0.0188
2.114,-0.0149
2.115,-0.0155
2.116,-0.0149
2.117,-0.0111
2.118,-0.0098
2.119,-0.0047
2.12,-0.0065
2.121,-0.0047
2.122,-0.0063
2.123,-0.003
2.124,-0.0043
2.125,-0.0039
2.126,-0.0074
2.127,-0.0105
2.128,-0.016
2.129,-0.0182
2.13,-0.0149
2.131,-0.0105
2.132,-0.0111
2.133,-0.0114
2.134,-0.0092
2.135,-0.0081
2.136,-0.01
2.137,-0.0059
2.138,-0.0072
2.139,-0.0076
2.14,-0.0114
2.141,-0.0059
2.142,-0.0085
2.143,-0.0123
2.144,-0.0021
2.145,0.0115
2.146,0.017
2.147,0.0186
2.148,-0.0039
2.149,-0.0264
2.15,-0.0352
2.151,-0.0378
2.152,-0.0354
2.153,-0.0376
2.154,-0.0316
2.155,-0.0261
2.156,-0.0211
2.157,-0.0197
2.158,-0.0156
2.159,-0.0122
2.16,-0.0065
2.161,-0.0094
2.162,-0.0103
2.163,-0.0195
2.164,-0.0206
2.165,-0.0081
2.166,-0.0164
2.167,-0.0089
2.168,-0.0021
2.169,0.0014
2.17,0.0003
2.171,-0.0006
2.172,-0.0034
2.173,-0.001
2.174,0.0012
2.175,-0.0021
2.176,-0.0003
2.177,0.0003
2.178,-0.0072
2.179,-0.0129
2.18,-0.0158
2.181,-0.0149
2.182,-0.0142
2.183,-0.0149
2.184,-0.0167
2.185,-0.0136
2.186,-0.0153
2.187,-0.0098
2.188,-0.0028
2.189,-0.0019
2.19,-0.0026
2.191,-0.0019
2.192,-0.0094
2.193,-0.01
2.194,-0.0091
2.195,-0.0006
2.196,-0.0017
2.197,0.0135
2.198,0.0157
2.199,-0.0025
2.2,-0.0193
2.201,-0.0259
2.202,-0.0279
2.203,-0.0297
2.204,-0.0281
2.205,-0.0206
2.206,-0.0193
2.207,-0.0182
2.208,-0.0103
2.209,-0.0153
2.21,-0.0144
2.211,-0.0167
2.212,-0.0221
2.213,-0.0202
2.214,-0.0221
2.215,-0.0204
2.216,-0.0158
2.217,-0.0189
2.218,-0.0138
2.219,-0.0133
2.22,-0.0114
2.221,-0.0076
2.222,-0.0001
2.223,-0.0012
2.224,-0.0041
2.225,-0.005
2.226,-0.0043
2.227,-0.0081
2.228,-0.0156
2.229,-0.0206
2.23,-0.0142
2.231,-0.0085
2.232,-0.0169
2.233,-0.018
2.234,-0.0151
2.235,-0.0123
2.236,-0.0116
2.237,-0.0063
2.238,-0.0058
2.239,-0.0063
2.24,-0.0101
2.241,-0.0069
2.242,-0.0111
2.243,-0.0138
2.244,-0.0195
2.245,-0.0182
2.246,-0.0112
2.247,0.0039
2.248,0.0239
2.249,0.0052
2.25,-0.0116
2.251,-0.0226
2.252,-0.0246
2.253,-0.0301
2.254,-0.0252
2.255,-0.0237
2.256,-0.0224
2.257,-0.0213
2.258,-0.0156
2.259,-0.0186
2.26,-0.014
2.261,-0.0164
2.262,-0.0171
2.263,-0.0177
2.264,-0.0182
2.265,-0.0177
2.266,-0.0131
2.267,-0.0112
2.268,-0.0186
2.269,-0.0054
2.27,0.0001
2.271,-0.0048
2.272,-0.0092
2.273,-0.0052
2.274,0.0008
2.275,-0.0003
2.276,-0.0032
2.277,-0.0041
2.278,-0.0081
2.279,-0.0074
2.28,-0.0149
2.281,-0.0178
2.282,-0.0224
2.283,-0.0299
2.284,-0.0349
2.285,-0.0285
2.286,-0.0341
2.287,-0.0334
2.288,-0.0301
2.289,-0.0296
2.29,-0.0279
2.291,-0.0292
2.292,-0.0362
2.293,-0.0431
2.294,-0.057
2.295,-0.0971
2.296,-0.0871
2.297,-0.0632
2.298,-0.034
2.299,0.0094
2.3,0.073
2.301,0.0982
2.302,0.1059
2.303,0.099
2.304,0.1178
2.305,0.1006
2.306,0.0851
2.307,0.0803
2.308,0.0675
2.309,0.0713
2.31,0.0464
2.311,0.0041
2.312,-0.0015
2.313,-0.0171
2.314,-0.0123
2.315,0.0005
2.316,0.0043
2.317,0.0149
2.318,0.0054
2.319,0.0025
2.32,0.005
2.321,-0.0118
2.322,-0.0228
2.323,-0.0208
2.324,-0.0299
2.325,-0.0349
2.326,-0.0363
2.327,-0.0376
2.328,-0.0512
2.329,-0.0493
2.33,-0.0643
2.331,-0.0744
2.332,-0.0909
2.333,-0.0843
2.334,-0.0541
2.335,0.0109
2.336,-0.0171
2.337,-0.0424
2.338,-0.0501
2.339,-0.0709
2.34,-0.0898
2.341,-0.0955
2.342,-0.111
2.343,-0.1158
2.344,-0.1116
2.345,-0.1154
2.346,-0.1191
2.347,-0.1085
2.348,-0.086
2.349,-0.0653
2.35,-0.0466
2.351,-0.0442
2.352,-0.0464
2.353,-0.0323
2.354,-0.0158
2.355,0.0041
2.356,0.0175
2.357,0.0296
2.358,0.0362
2.359,0.0382
2.36,0.04
2.361,0.0384
2.362,0.0369
2.363,0.0382
2.364,0.0347
2.365,0.029
2.366,0.0261
2.367,0.0252
2.368,0.0276
2.369,0.0283
2.37,0.025
2.371,0.0268
2.372,0.0353
2.373,0.0514
2.374,0.0536
2.375,0.0475
2.376,0.042
2.377,0.0371
2.378,0.0267
2.379,0.0199
2.38,0.0087
2.381,0.0102
2.382,0.0034
2.383,-0.005
2.384,-0.0107
2.385,-0.0116
2.386,-0.0144
2.387,-0.02
2.388,-0.0178
2.389,-0.016
2.39,-0.0191
2.391,-0.0219
2.392,-0.0264
2.393,-0.027
2.394,-0.0308
2.395,-0.0341
2.396,-0.0383
2.397,-0.029
2.398,-0.0285
2.399,-0.021
2.4,-0.0039
2.401,-0.0015
2.402,0.0094
2.403,0.0074
2.404,-0.0164
2.405,-0.0325
2.406,-0.0413
2.407,-0.0438
2.408,-0.0367
2.409,-0.0389
2.41,-0.0329
2.411,-0.031
2.412,-0.0327
2.413,-0.0283
2.414,-0.0242
2.415,-0.0253
2.416,-0.0242
2.417,-0.0173
2.418,-0.0219
2.419,-0.0144
2.42,-0.0114
2.421,-0.0105
2.422,-0.0081
2.423,-0.0043
2.424,0.0019
2.425,0.0043
2.426,0.0005
2.427,-0.0014
2.428,-0.007
2.429,-0.0109
2.43,-0.0127
2.431,-0.0145
2.432,-0.0061
2.433,0.0074
2.434,0.0056
2.435,0.0039
2.436,-0.0036
2.437,-0.0048
2.438,-0.0083
2.439,-0.0094
2.44,-0.0123
2.441,-0.0114
2.442,-0.0107
2.443,-0.01
2.444,-0.0162
2.445,-0.0237
2.446,-0.0228
2.447,-0.0274
2.448,-0.029
2.449,-0.0283
2.45,-0.0167
2.451,-0.0085
2.452,-0.0041
2.453,0.0109
2.454,0.0089
2.455,-0.0112
2.456,-0.0246
2.457,-0.0318
2.458,-0.0296
2.459,-0.0275
2.46,-0.0257
2.461,-0.0307
2.462,-0.0321
2.463,-0.0308
2.464,-0.0343
2.465,-0.0286
2.466,-0.0277
2.467,-0.0193
2.468,-0.016
2.469,-0.0091
2.47,-0.0118
2.471,-0.0094
2.472,-0.0041
2.473,-0.0036
2.474,0.0034
2.475,0.0025
2.476,0.0001
2.477,0.0008
2.478,-0.0037
2.479,-0.0094
2.48,-0.0101
2.481,-0.012
2.482,-0.0125
2.483,-0.0109
2.484,-0.0085
2.485,-0.0054
2.486,-0.0043
2.487,-0.0047
2.488,-0.0028
2.489,0.0005
2.49,-0.0047
2.491,-0.0001
2.492,0.0005
2.493,0.0021
2.494,-0.0054
2.495,-0.0087
2.496,-0.0136
2.497,-0.0145
2.498,-0.0169
2.499,-0.0158
2.5,-0.0151
2.501,-0.0089
2.502,0.0036
2.503,0.0164
2.504,0.0082
2.505,0.0007
2.506,-0.0144
2.507,-0.0244
2.508,-0.0226
2.509,-0.0275
2.51,-0.029
2.511,-0.0222
2.512,-0.0257
2.513,-0.0246
2.514,-0.0197
2.515,-0.0076
2.516,0.0074
2.517,-0.0067
2.518,-0.0158
2.519,-0.0175
2.52,-0.0219
2.521,-0.0151
2.522,-0.0116
2.523,-0.0127
2.524,-0.0078
2.525,-0.0087
2.526,-0.0094
2.527,-0.0116
2.528,-0.0134
2.529,-0.0191
2.53,-0.0184
2.531,-0.0151
2.532,-0.0169
2.533,-0.0153
2.534,-0.0149
2.535,-0.0098
2.536,-0.0131
2.537,-0.0188
2.538,-0.0166
2.539,-0.0103
2.54,-0.008
2.541,-0.0026
2.542,-0.0059
2.543,-0.0078
2.544,-0.0129
2.545,-0.0162
2.546,-0.0193
2.547,-0.0177
2.548,-0.021
2.549,-0.0178
2.55,-0.0144
2.551,-0.0206
2.552,-0.0103
2.553,0.0102
2.554,0.0309
2.555,0.0334
2.556,0.0213
2.557,0.0014
2.558,-0.012
2.559,-0.0241
2.56,-0.0263
2.561,-0.0323
2.562,-0.0305
2.563,-0.0321
2.564,-0.0277
2.565,-0.0264
2.566,-0.023
2.567,-0.0241
2.568,-0.027
2.569,-0.0261
2.57,-0.0204
2.571,-0.0166
2.572,-0.012
2.573,-0.0089
2.574,-0.0083
2.575,-0.0059
2.576,-0.0056
2.577,-0.0045
2.578,-0.007
2.579,-0.0103
2.58,-0.0092
2.581,-0.0111
2.582,-0.0114
2.583,-0.0147
2.584,-0.0078
2.585,-0.0107
2.586,-0.008
2.587,-0.0056
2.588,-0.0017
2.589,0.0016
2.59,-0.0003
2.591,0.0036
2.592,0.0003
2.593,-0.0028
2.594,-0.0091
2.595,-0.01
2.596,-0.0123
2.597,-0.0116
2.598,-0.0178
2.599,-0.0138
2.6,-0.0145
2.601,-0.0136
2.602,-0.0169
2.603,-0.0074
2.604,0.0076
2.605,0.0177
2.606,0.0159
2.607,0.0142
2.608,0.0217
2.609,0.0067
2.61,-0.0074
2.611,-0.0275
2.612,-0.0409
2.613,-0.0385
2.614,-0.0407
2.615,-0.0387
2.616,-0.0369
2.617,-0.0385
2.618,-0.0341
2.619,-0.0274
2.62,-0.0213
2.621,-0.0202
2.622,-0.0173
2.623,-0.0127
2.624,-0.0087
2.625,-0.0065
2.626,-0.0098
2.627,-0.0155
2.628,-0.0177
2.629,-0.0171
2.63,-0.0177
2.631,-0.0125
2.632,-0.0131
2.633,-0.0149
2.634,-0.0133
2.635,-0.0136
2.636,-0.014
2.637,-0.0078
2.638,-0.0105
2.639,-0.0098
2.64,-0.0014
2.641,-0.0025
2.642,-0.0094
2.643,-0.014
2.644,-0.0147
2.645,-0.0186
2.646,-0.0204
2.647,-0.0199
2.648,-0.0147
2.649,-0.0166
2.65,-0.0184
2.651,-0.0145
2.652,-0.0158
2.653,-0.0112
2.654,-0.0017
2.655,0.0188
2.656,0.0276
2.657,0.0354
2.658,0.0234
2.659,-0.0054
2.66,-0.0171
2.661,-0.0277
2.662,-0.0308
2.663,-0.0338
2.664,-0.0363
2.665,-0.0387
2.666,-0.0409
2.667,-0.0308
2.668,-0.029
2.669,-0.0208
2.67,-0.0222
2.671,-0.0155
2.672,-0.012
2.673,-0.0087
2.674,-0.0017
2.675,-0.0008
2.676,-0.0001
2.677,-0.0054
2.678,-0.0129
2.679,-0.012
2.68,-0.0129
2.681,-0.0122
2.682,-0.01
2.683,-0.0105
2.684,-0.0074
2.685,-0.0091
2.686,-0.0114
2.687,-0.0111
2.688,-0.0083
2.689,-0.0094
2.69,-0.0083
2.691,-0.0037
2.692,-0.0019
2.693,-0.0014
2.694,-0.0065
2.695,-0.0098
2.696,-0.0116
2.697,-0.0133
2.698,-0.0129
2.699,-0.0116
2.7,-0.0144
2.701,-0.0087
2.702,-0.008
2.703,-0.0107
2.704,-0.01
2.705,0.0003
2.706,0.0168
2.707,0.019
2.708,0.025
2.709,0.0268
2.71,0.0085
2.711,-0.0231
2.712,-0.036
2.713,-0.0398
2.714,-0.0433
2.715,-0.0402
2.716,-0.0431
2.717,-0.0352
2.718,-0.0376
2.719,-0.0354
2.72,-0.0294
2.721,-0.0275
2.722,-0.0193
2.723,-0.0149
2.724,-0.0109
2.725,-0.0074
2.726,-0.0085
2.727,-0.0076
2.728,-0.0085
2.729,-0.0125
2.73,-0.0118
2.731,-0.0072
2.732,-0.0054
2.733,-0.0037
2.734,-0.0034
2.735,-0.0037
2.736,-0.0048
2.737,-0.0037
2.738,-0.0041
2.739,-0.0056
2.74,-0.0025
2.741,-0.0045
2.742,-0.0026
2.743,-0.0074
2.744,-0.0156
2.745,-0.0145
2.746,-0.0175
2.747,-0.0184
2.748,-0.0177
2.749,-0.0155
2.75,-0.016
2.751,-0.0191
2.752,-0.0164
2.753,-0.014
2.754,-0.0129
2.755,-0.0059
2.756,-0.0069
2.757,-0.0041
2.758,-0.0048
2.759,-0.007
2.76,-0.0076
2.761,0.0019
2.762,0.006
2.763,-0.0101
2.764,-0.0167
2.765,-0.0026
2.766,0.0102
2.767,0.0118
2.768,-0.0107
2.769,-0.0202
2.77,-0.029
2.771,-0.0316
2.772,-0.0292
2.773,-0.027
2.774,-0.021
2.775,-0.0228
2.776,-0.0211
2.777,-0.0197
2.778,-0.0184
2.779,-0.0219
2.78,-0.0208
2.781,-0.0217
2.782,-0.0226
2.783,-0.0186
2.784,-0.0133
2.785,-0.0151
2.786,-0.0094
2.787,-0.0116
2.788,-0.007
2.789,-0.0065
2.79,-0.0037
2.791,-0.0041
2.792,-0.0045
2.793,-0.0091
2.794,-0.0122
2.795,-0.0116
2.796,-0.0129
2.797,-0.016
2.798,-0.018
2.799,-0.0199
2.8,-0.018
2.801,-0.0188
2.802,-0.0169
2.803,-0.0129
2.804,-0.0101
2.805,-0.0041
2.806,-0.0107
2.807,-0.0004
2.808,0.0201
2.809,0.0408
2.81,0.0274
2.811,-0.0043
2.812,-0.0171
2.813,-0.0288
2.814,-0.0253
2.815,-0.0285
2.816,-0.0314
2.817,-0.0235
2.818,-0.0211
2.819,-0.0189
2.82,-0.021
2.821,-0.0191
2.822,-0.0142
2.823,-0.0156
2.824,-0.0116
2.825,-0.0081
2.826,-0.0025
2.827,-0.0034
2.828,-0.0061
2.829,-0.0118
2.83,-0.0125
2.831,-0.012
2.832,-0.0138
2.833,-0.0155
2.834,-0.01
2.835,-0.0153
2.836,-0.012
2.837,-0.0138
2.838,-0.0122
2.839,-0.0089
2.84,-0.0085
2.841,-0.003
2.842,-0.01
2.843,-0.0054
2.844,-0.0111
2.845,-0.0133
2.846,-0.0151
2.847,-0.0182
2.848,-0.0177
2.849,-0.0164
2.85,-0.0133
2.851,-0.0144
2.852,-0.0094
2.853,-0.0127
2.854,-0.0133
2.855,-0.0105
2.856,-0.0092
2.857,-0.0059
2.858,0.001
2.859,0.0162
2.86,0.0272
2.861,0.0091
2.862,-0.0226
2.863,-0.0268
2.864,-0.0307
2.865,-0.0272
2.866,-0.0303
2.867,-0.0274
2.868,-0.0248
2.869,-0.0224
2.87,-0.0158
2.871,-0.0178
2.872,-0.0123
2.873,-0.0107
2.874,-0.0092
2.875,-0.008
2.876,-0.0114
2.877,-0.0081
2.878,-0.0131
2.879,-0.0158
2.88,-0.0134
2.881,-0.0204
2.882,-0.0158
2.883,-0.0166
2.884,-0.0127
2.885,-0.0145
2.886,-0.0114
2.887,-0.0087
2.888,-0.01
2.889,-0.0087
2.89,-0.0098
2.891,-0.0094
2.892,-0.0098
2.893,-0.0083
2.894,-0.0085
2.895,-0.0078
2.896,-0.0112
2.897,-0.0089
2.898,-0.0131
2.899,-0.0158
2.9,-0.0134
2.901,-0.0138
2.902,-0.0111
2.903,-0.0114
2.904,-0.0074
2.905,-0.0028
2.906,-0.0047
2.907,-0.0026
2.908,-0.0032
2.909,0.0043
2.91,0.0168
2.911,0.0118
2.912,0.0223
2.913,0.0127
2.914,-0.0058
2.915,-0.0299
2.916,-0.033
2.917,-0.0301
2.918,-0.0327
2.919,-0.0303
2.92,-0.0281
2.921,-0.0221
2.922,-0.0202
2.923,-0.0153
2.924,-0.0138
2.925,-0.0125
2.926,-0.0091
2.927,-0.0147
2.928,-0.0177
2.929,-0.0149
2.93,-0.0206
2.931,-0.0167
2.932,-0.0186
2.933,-0.0191
2.934,-0.0208
2.935,-0.0162
2.936,-0.0206
2.937,-0.0189
2.938,-0.0114
2.939,-0.0103
2.94,-0.0094
2.941,-0.001
2.942,-0.0021
2.943,-0.0012
2.944,-0.0058
2.945,-0.0065
2.946,-0.0134
2.947,-0.0125
2.948,-0.0101
2.949,-0.014
2.95,-0.0065
2.951,-0.0056
2.952,-0.0101
2.953,-0.0078
2.954,-0.0056
2.955,-0.005
2.956,-0.0032
2.957,-0.007
2.958,-0.0144
2.959,-0.0199
2.96,-0.0083
2.961,0.0067
2.962,0.0208
2.963,0.0116
2.964,-0.0133
2.965,-0.0239
2.966,-0.027
2.967,-0.0299
2.968,-0.0274
2.969,-0.0202
2.97,-0.018
2.971,-0.016
2.972,-0.0105
2.973,-0.0155
2.974,-0.008
2.975,-0.0092
2.976,-0.0103
2.977,-0.0114
2.978,-0.0184
2.979,-0.0211
2.98,-0.0171
2.981,-0.0178
2.982,-0.0116
2.983,-0.0123
2.984,-0.0101
2.985,-0.0134
2.986,-0.0116
2.987,-0.0089
2.988,-0.0023
2.989,-0.0014
2.99,-0.0006
2.991,0.0001
2.992,-0.0017
2.993,-0.0061
2.994,-0.0112
2.995,-0.0145
2.996,-0.0089
2.997,-0.0111
2.998,-0.0105
2.999,-0.0162
3,-0.0123
3.001,-0.0105
3.002,-0.0074
3.003,-0.0091
3.004,-0.0103
3.005,-0.0072
3.006,-0.0083
3.007,-0.0026
3.008,0.0082
3.009,-0.0078
3.01,-0.0153
3.011,-0.0221
3.012,-0.0186
3.013,-0.0129
3.014,0.0023
3.015,0.0089
3.016,-0.0052
3.017,-0.007
3.018,-0.0054
3.019,-0.001
3.02,0.003
3.021,-0.0155
3.022,-0.0341
3.023,-0.0413
3.024,-0.0347
3.025,-0.0327
3.026,-0.0345
3.027,-0.0329
3.028,-0.0314
3.029,-0.0246
3.03,-0.0235
3.031,-0.0202
3.032,-0.0211
3.033,-0.0184
3.034,-0.0109
3.035,-0.0118
3.036,-0.0127
3.037,-0.0087
3.038,-0.0048
3.039,-0.0015
3.04,-0.001
3.041,0.0029
3.042,-0.0037
3.043,-0.0047
3.044,-0.0122
3.045,-0.0112
3.046,-0.0122
3.047,-0.0145
3.048,-0.0184
3.049,-0.0189
3.05,-0.0171
3.051,-0.0166
3.052,-0.0169
3.053,-0.0127
3.054,-0.01
3.055,-0.0103
3.056,-0.0081
3.057,-0.0061
3.058,-0.008
3.059,-0.0083
3.06,-0.0166
3.061,-0.0158
3.062,-0.0116
3.063,-0.0021
3.064,0.0184
3.065,0.0096
3.066,-0.0037
3.067,-0.0206
3.068,-0.0272
3.069,-0.0292
3.07,-0.0347
3.071,-0.0231
3.072,-0.0246
3.073,-0.0151
3.074,-0.0211
3.075,-0.02
3.076,-0.0191
3.077,-0.0219
3.078,-0.0178
3.079,-0.0171
3.08,-0.0125
3.081,-0.0094
3.082,-0.0111
3.083,-0.0078
3.084,-0.0065
3.085,-0.0076
3.086,-0.008
3.087,-0.0025
3.088,-0.0017
3.089,0.0001
3.09,0.0032
3.091,-0.003
3.092,-0.0087
3.093,-0.0094
3.094,-0.014
3.095,-0.0197
3.096,-0.0158
3.097,-0.0177
3.098,-0.0171
3.099,-0.0155
3.1,-0.02
3.101,-0.0144
3.102,-0.0151
3.103,-0.0105
3.104,-0.0087
3.105,-0.0036
3.106,-0.0081
3.107,-0.0037
3.108,-0.0032
3.109,-0.0019
3.11,-0.0089
3.111,-0.0078
3.112,-0.0087
3.113,0.0052
3.114,0.0113
3.115,0.0168
3.116,0.0184
3.117,0.0199
3.118,-0.0006
3.119,-0.0274
3.12,-0.0308
3.121,-0.034
3.122,-0.0369
3.123,-0.0394
3.124,-0.0323
3.125,-0.0301
3.126,-0.0321
3.127,-0.0303
3.128,-0.0253
3.129,-0.021
3.13,-0.0197
3.131,-0.0186
3.132,-0.0175
3.133,-0.0145
3.134,-0.0118
3.135,-0.0094
3.136,-0.0087
3.137,-0.0054
3.138,0.0003
3.139,-0.0036
3.14,0.0027
3.141,0.0034
3.142,0.0012
3.143,-0.0034
3.144,-0.0091
3.145,-0.0112
3.146,-0.0158
3.147,-0.014
3.148,-0.0191
3.149,-0.0158
3.15,-0.0228
3.151,-0.0144
3.152,-0.0155
3.153,-0.0125
3.154,-0.008
3.155,-0.0087
3.156,-0.0065
3.157,-0.0047
3.158,-0.0052
3.159,-0.0069
3.16,-0.0056
3.161,-0.0098
3.162,-0.0114
3.163,-0.0142
3.164,-0.0067
3.165,0.0104
3.166,0.0224
3.167,0.0115
3.168,-0.0067
3.169,-0.0188
3.17,-0.0297
3.171,-0.0277
3.172,-0.0222
3.173,-0.0206
3.174,-0.0191
3.175,-0.0178
3.176,-0.0189
3.177,-0.0222
3.178,-0.0252
3.179,-0.0224
3.18,-0.02
3.181,-0.0222
3.182,-0.0189
3.183,-0.0145
3.184,-0.014
3.185,-0.0153
3.186,-0.014
3.187,-0.0151
3.188,-0.0109
3.189,-0.0103
3.19,-0.0037
3.191,-0.0028
3.192,-0.0004
3.193,-0.0043
3.194,-0.0025
3.195,-0.0056
3.196,-0.0107
3.197,-0.014
3.198,-0.0134
3.199,-0.0162
3.2,-0.0175
3.201,-0.0226
3.202,-0.0288
3.203,-0.0345
3.204,-0.0275
3.205,-0.0285
3.206,-0.0308
3.207,-0.0301
3.208,-0.0334
3.209,-0.0303
3.21,-0.033
3.211,-0.0343
3.212,-0.0374
3.213,-0.0437
3.214,-0.0499
3.215,-0.0638
3.216,-0.0376
3.217,-0.0199
3.218,-0.0103
3.219,-0.0015
3.22,0.0226
3.221,0.0583
3.222,0.0917
3.223,0.1045
3.224,0.1083
3.225,0.0906
3.226,0.081
3.227,0.0662
3.228,0.0636
3.229,0.066
3.23,0.0461
3.231,0.0166
3.232,-0.003
3.233,-0.0065
3.234,-0.0096
3.235,-0.0008
3.236,0.0018
3.237,-0.0151
3.238,0.0049
3.239,-0.003
3.24,-0.0054
3.241,-0.012
3.242,-0.0261
3.243,-0.0242
3.244,-0.0259
3.245,-0.0303
3.246,-0.0371
3.247,-0.0405
3.248,-0.0484
3.249,-0.0513
3.25,-0.0578
3.251,-0.0453
3.252,-0.0362
3.253,-0.0512
3.254,-0.0612
3.255,-0.0594
3.256,-0.0578
3.257,-0.0653
3.258,-0.0748
3.259,-0.0808
3.26,-0.0979
3.261,-0.105
3.262,-0.1116
3.263,-0.1176
3.264,-0.1154
3.265,-0.1026
3.266,-0.081
3.267,-0.0603
3.268,-0.0416
3.269,-0.044
3.27,-0.055
3.271,-0.053
3.272,-0.0548
3.273,-0.0433
3.274,-0.0237
3.275,0.0005
3.276,0.0166
3.277,0.0373
3.278,0.0451
3.279,0.0523
3.28,0.0589
3.281,0.0569
3.282,0.0587
3.283,0.0538
3.284,0.0552
3.285,0.0512
3.286,0.0501
3.287,0.0468
3.288,0.0497
3.289,0.0451
3.29,0.0411
3.291,0.0389
3.292,0.0343
3.293,0.0248
3.294,0.0126
3.295,0.0076
3.296,0.0001
3.297,-0.0039
3.298,-0.0074
3.299,-0.0107
3.3,-0.0098
3.301,-0.0107
3.302,-0.01
3.303,-0.0061
3.304,-0.0015
3.305,-0.0047
3.306,0.0038
3.307,0.0223
3.308,0.0301
3.309,0.0278
3.31,-0.001
3.311,-0.0285
3.312,-0.0319
3.313,-0.0351
3.314,-0.0321
3.315,-0.0371
3.316,-0.0396
3.317,-0.0325
3.318,-0.0081
3.319,-0.005
3.32,0.0038
3.321,0.0171
3.322,0.0003
3.323,-0.0241
3.324,-0.0336
3.325,-0.0365
3.326,-0.0391
3.327,-0.0415
3.328,-0.0393
3.329,-0.0372
3.33,-0.0354
3.331,-0.0305
3.332,-0.029
3.333,-0.025
3.334,-0.0215
3.335,-0.0182
3.336,-0.0153
3.337,-0.0125
3.338,-0.0069
3.339,-0.0076
3.34,-0.0014
3.341,-0.0054
3.342,-0.0015
3.343,-0.0118
3.344,-0.0103
3.345,-0.0144
3.346,-0.0109
3.347,-0.0098
3.348,-0.0089
3.349,-0.008
3.35,-0.0103
3.351,-0.0096
3.352,-0.0101
3.353,-0.0096
3.354,-0.008
3.355,-0.0067
3.356,-0.0045
3.357,-0.0056
3.358,-0.0067
3.359,-0.0122
3.36,-0.016
3.361,-0.0142
3.362,-0.016
3.363,-0.0222
3.364,-0.0182
3.365,-0.0204
3.366,-0.0188
3.367,-0.0142
3.368,-0.0047
3.369,0.0076
3.37,0.0159
3.371,0.0294
3.372,0.0239
3.373,0.0023
3.374,-0.0184
3.375,-0.0263
3.376,-0.0334
3.377,-0.0312
3.378,-0.0332
3.379,-0.0351
3.38,-0.0334
3.381,-0.0378
3.382,-0.0283
3.383,-0.0272
3.384,-0.0193
3.385,-0.0164
3.386,-0.0155
3.387,-0.0114
3.388,-0.0107
3.389,-0.0089
3.39,-0.0006
3.391,-0.0039
3.392,-0.0069
3.393,-0.0078
3.394,-0.0101
3.395,-0.014
3.396,-0.0134
3.397,-0.0091
3.398,-0.0164
3.399,-0.0173
3.4,-0.0145
3.401,-0.0122
3.402,-0.0069
3.403,-0.0087
3.404,-0.0069
3.405,-0.0041
3.406,-0.0074
3.407,-0.0052
3.408,-0.008
3.409,-0.0083
3.41,-0.0087
3.411,-0.0133
3.412,-0.0151
3.413,-0.0145
3.414,-0.014
3.415,-0.0153
3.416,-0.0122
3.417,-0.0078
3.418,-0.0074
3.419,-0.0017
3.42,0.0107
3.421,0.0199
3.422,0.0248
3.423,0.0204
3.424,0.0272
3.425,0.0137
3.426,-0.0138
3.427,-0.0334
3.428,-0.0369
3.429,-0.04
3.43,-0.0371
3.431,-0.0449
3.432,-0.0378
3.433,-0.0356
3.434,-0.0336
3.435,-0.0318
3.436,-0.0268
3.437,-0.0193
3.438,-0.0153
3.439,-0.0142
3.44,-0.0063
3.441,-0.0092
3.442,-0.0083
3.443,-0.0107
3.444,-0.0085
3.445,-0.0118
3.446,-0.0112
3.447,-0.0096
3.448,-0.012
3.449,-0.0116
3.45,-0.0105
3.451,-0.0048
3.452,-0.0041
3.453,-0.0034
3.454,-0.0052
3.455,-0.0034
3.456,-0.0006
3.457,0.0018
3.458,-0.0025
3.459,-0.0052
3.46,-0.0085
3.461,-0.0089
3.462,-0.0151
3.463,-0.0123
3.464,-0.01
3.465,-0.0122
3.466,-0.014
3.467,-0.0171
3.468,-0.0158
3.469,-0.0186
3.47,-0.0111
3.471,0.006
3.472,0.018
3.473,0.029
3.474,0.027
3.475,-0.0004
3.476,-0.0279
3.477,-0.0385
3.478,-0.0416
3.479,-0.0387
3.48,-0.0362
3.481,-0.0385
3.482,-0.0319
3.483,-0.0299
3.484,-0.0281
3.485,-0.0231
3.486,-0.0188
3.487,-0.0147
3.488,-0.0063
3.489,-0.0074
3.49,-0.0045
3.491,-0.0072
3.492,-0.0048
3.493,-0.0133
3.494,-0.0122
3.495,-0.0171
3.496,-0.0125
3.497,-0.0034
3.498,0.0127
3.499,-0.0026
3.5,-0.0087
3.501,-0.0142
3.502,-0.0125
3.503,-0.0081
3.504,-0.0069
3.505,-0.0103
3.506,-0.0047
3.507,-0.0056
3.508,-0.0065
3.509,-0.0058
3.51,-0.0096
3.511,-0.0129
3.512,-0.0111
3.513,-0.0149
3.514,-0.0162
3.515,-0.0193
3.516,-0.0147
3.517,-0.0116
3.518,-0.0144
3.519,-0.0129
3.52,-0.0142
3.521,-0.0072
3.522,0.008
3.523,0.019
3.524,0.0331
3.525,0.0276
3.526,0.0027
3.527,-0.0222
3.528,-0.0318
3.529,-0.0405
3.53,-0.038
3.531,-0.0356
3.532,-0.0334
3.533,-0.0314
3.534,-0.0296
3.535,-0.0279
3.536,-0.0204
3.537,-0.0164
3.538,-0.0103
3.539,-0.0114
3.54,-0.0065
3.541,-0.0129
3.542,-0.0072
3.543,-0.0142
3.544,-0.0114
3.545,-0.0155
3.546,-0.0147
3.547,-0.0166
3.548,-0.016
3.549,-0.0166
3.55,-0.0178
3.551,-0.0109
3.552,-0.0138
3.553,-0.0092
3.554,-0.0116
3.555,-0.0109
3.556,-0.0076
3.557,-0.0058
3.558,-0.0041
3.559,-0.0054
3.56,-0.0114
3.561,-0.0122
3.562,-0.01
3.563,-0.0133
3.564,-0.0177
3.565,-0.0138
3.566,-0.0125
3.567,-0.0122
3.568,-0.0133
3.569,-0.0129
3.57,-0.0129
3.571,-0.0074
3.572,-0.0004
3.573,0.0135
3.574,0.0276
3.575,0.0184
3.576,-0.0032
3.577,-0.018
3.578,-0.0259
3.579,-0.033
3.58,-0.0396
3.581,-0.0336
3.582,-0.0318
3.583,-0.0301
3.584,-0.0286
3.585,-0.0219
3.586,-0.0184
3.587,-0.0127
3.588,-0.0136
3.589,-0.0109
3.59,-0.0085
3.591,-0.0092
3.592,-0.0098
3.593,-0.0103
3.594,-0.0177
3.595,-0.0186
3.596,-0.0177
3.597,-0.0153
3.598,-0.0145
3.599,-0.0083
3.6,-0.0059
3.601,-0.0037
3.602,-0.0083
3.603,-0.0114
3.604,-0.0041
3.605,-0.007
3.606,-0.0006
3.607,-0.003
3.608,-0.0037
3.609,-0.007
3.61,-0.0089
3.611,-0.0105
3.612,-0.0129
3.613,-0.016
3.614,-0.0171
3.615,-0.0197
3.616,-0.0156
3.617,-0.0189
3.618,-0.0147
3.619,-0.0131
3.62,-0.0118
3.621,-0.0107
3.622,-0.0103
3.623,-0.0041
3.624,0.0098
3.625,0.0239
3.626,0.0257
3.627,0.0274
3.628,0.0049
3.629,-0.0308
3.63,-0.0451
3.631,-0.0409
3.632,-0.0448
3.633,-0.0341
3.634,-0.031
3.635,-0.034
3.636,-0.0261
3.637,-0.0237
3.638,-0.0171
3.639,-0.0111
3.64,-0.0056
3.641,-0.0039
3.642,-0.0054
3.643,-0.0094
3.644,-0.0083
3.645,-0.014
3.646,-0.0131
3.647,-0.0103
3.648,-0.0063
3.649,-0.0101
3.65,-0.0107
3.651,-0.0138
3.652,-0.0111
3.653,-0.0065
3.654,-0.0008
3.655,-0.0015
3.656,-0.0034
3.657,0.0023
3.658,-0.0047
3.659,-0.0056
3.66,-0.0112
3.661,-0.0134
3.662,-0.0089
3.663,-0.0133
3.664,-0.0149
3.665,-0.0173
3.666,-0.0151
3.667,-0.0162
3.668,-0.012
3.669,-0.0147
3.67,-0.0081
3.671,-0.0036
3.672,-0.0034
3.673,-0.0026
3.674,0.0089
3.675,0.0272
3.676,0.0343
3.677,0.0321
3.678,0.006
3.679,-0.0189
3.68,-0.0285
3.681,-0.0314
3.682,-0.0393
3.683,-0.0369
3.684,-0.0347
3.685,-0.0327
3.686,-0.0272
3.687,-0.0189
3.688,-0.0175
3.689,-0.0188
3.69,-0.0127
3.691,-0.0138
3.692,-0.0069
3.693,-0.0133
3.694,-0.0224
3.695,-0.0189
3.696,-0.02
3.697,-0.0191
3.698,-0.0164
3.699,-0.0171
3.7,-0.0178
3.701,-0.0145
3.702,-0.014
3.703,-0.0134
3.704,-0.0089
3.705,-0.0094
3.706,-0.0032
3.707,-0.0056
3.708,-0.0078
3.709,-0.0072
3.71,-0.0078
3.711,-0.0116
3.712,-0.0103
3.713,-0.0116
3.714,-0.0105
3.715,-0.0162
3.716,-0.0155
3.717,-0.0177
3.718,-0.0182
3.719,-0.0164
3.72,-0.0147
3.721,-0.0134
3.722,-0.0103
3.723,-0.007
3.724,-0.0091
3.725,-0.0109
3.726,-0.0054
3.727,0.0061
3.728,0.0144
3.729,0.0069
3.73,0.0164
3.731,0.0175
3.732,0.0005
3.733,-0.0215
3.734,-0.0363
3.735,-0.0389
3.736,-0.046
3.737,-0.0351
3.738,-0.0371
3.739,-0.0352
3.74,-0.0202
3.741,-0.0182
3.742,-0.02
3.743,-0.0085
3.744,0.005
3.745,-0.0114
3.746,-0.018
3.747,-0.02
3.748,-0.0219
3.749,-0.0235
3.75,-0.0191
3.751,-0.0178
3.752,-0.0167
3.753,-0.0134
3.754,-0.0085
3.755,-0.0094
3.756,-0.0037
3.757,-0.0015
3.758,-0.0034
3.759,-0.0015
3.76,-0.0089
3.761,-0.0138
3.762,-0.0147
3.763,-0.0123
3.764,-0.0131
3.765,-0.0125
3.766,-0.0094
3.767,-0.0111
3.768,-0.0098
3.769,-0.0094
3.77,-0.0091
3.771,-0.0041
3.772,-0.0036
3.773,-0.003
3.774,-0.007
3.775,-0.0076
3.776,-0.0001
3.777,0.017
3.778,0.029
3.779,0.0137
3.78,-0.0125
3.781,-0.0231
3.782,-0.0327
3.783,-0.0297
3.784,-0.0272
3.785,-0.0296
3.786,-0.0274
3.787,-0.0213
3.788,-0.0158
3.789,-0.0208
3.79,-0.0133
3.791,-0.012
3.792,-0.0085
3.793,-0.0142
3.794,-0.0171
3.795,-0.0125
3.796,-0.0034
3.797,-0.0023
3.798,-0.0012
3.799,0.0018
3.8,-0.0028
3.801,-0.0004
3.802,-0.0074
3.803,-0.0047
3.804,-0.0054
3.805,-0.0047
3.806,-0.0065
3.807,-0.0059
3.808,-0.0065
3.809,-0.0111
3.81,-0.0193
3.811,-0.0204
3.812,-0.0233
3.813,-0.0224
3.814,-0.0217
3.815,-0.0239
3.816,-0.0233
3.817,-0.0228
3.818,-0.02
3.819,-0.0155
3.82,-0.0173
3.821,-0.0145
3.822,-0.008
3.823,-0.0034
3.824,-0.0041
3.825,-0.0034
3.826,-0.0118
3.827,-0.0061
3.828,0.0071
3.829,0.0126
3.83,0.0208
3.831,-0.0017
3.832,-0.0242
3.833,-0.033
3.834,-0.0409
3.835,-0.0385
3.836,-0.0363
3.837,-0.0303
3.838,-0.0285
3.839,-0.0235
3.84,-0.016
3.841,-0.0147
3.842,-0.0136
3.843,-0.0103
3.844,-0.0153
3.845,-0.0162
3.846,-0.0186
3.847,-0.0164
3.848,-0.0145
3.849,-0.014
3.85,-0.0123
3.851,-0.0169
3.852,-0.0164
3.853,-0.0091
3.854,-0.0061
3.855,-0.0052
3.856,-0.0045
3.857,-0.0023
3.858,-0.0017
3.859,-0.0074
3.86,-0.0096
3.861,-0.0091
3.862,-0.0096
3.863,-0.0112
3.864,-0.0125
3.865,-0.0138
3.866,-0.0111
3.867,-0.0129
3.868,-0.0089
3.869,-0.0076
3.87,-0.0089
3.871,-0.0061
3.872,-0.0065
3.873,-0.0025
3.874,-0.0021
3.875,-0.0081
3.876,-0.007
3.877,-0.0078
3.878,0.0007
3.879,0.0131
3.88,0.0148
3.881,0.0223
3.882,0.0182
3.883,-0.0003
3.884,-0.0244
3.885,-0.0275
3.886,-0.0305
3.887,-0.0226
3.888,-0.025
3.889,-0.0272
3.89,-0.0252
3.891,-0.027
3.892,-0.0286
3.893,-0.0301
3.894,-0.0261
3.895,-0.0226
3.896,-0.0259
3.897,-0.0268
3.898,-0.0204
3.899,-0.018
3.9,-0.0127
3.901,-0.0109
3.902,-0.0127
3.903,-0.0122
3.904,-0.0047
3.905,-0.0036
3.906,-0.0026
3.907,0.0001
3.908,-0.0056
3.909,-0.0109
3.91,-0.0103
3.911,-0.016
3.912,-0.0138
3.913,-0.0156
3.914,-0.0138
3.915,-0.0133
3.916,-0.0145
3.917,-0.0167
3.918,-0.0112
3.919,-0.0091
3.92,-0.0085
3.921,-0.0129
3.922,-0.0101
3.923,-0.0069
3.924,-0.0008
3.925,-0.0048
3.926,-0.0026
3.927,-0.0078
3.928,-0.0072
3.929,-0.0003
3.93,0.01
3.931,0.014
3.932,0.0201
3.933,0.0168
3.934,0.0016
3.935,-0.0272
3.936,-0.031
3.937,-0.0275
3.938,-0.0307
3.939,-0.0277
3.94,-0.0252
3.941,-0.0228
3.942,-0.0206
3.943,-0.0186
3.944,-0.0241
3.945,-0.0224
3.946,-0.0149
3.947,-0.0136
3.948,-0.0171
3.949,-0.016
3.95,-0.0091
3.951,-0.01
3.952,-0.0076
3.953,-0.0069
3.954,-0.0063
3.955,-0.0058
3.956,-0.0052
3.957,-0.0039
3.958,-0.0052
3.959,-0.0032
3.96,-0.0089
3.961,-0.018
3.962,-0.0215
3.963,-0.0226
3.964,-0.0177
3.965,-0.0241
3.966,-0.0217
3.967,-0.021
3.968,-0.0215
3.969,-0.0184
3.97,-0.0167
3.971,-0.0144
3.972,-0.0112
3.973,-0.0058
3.974,-0.0036
3.975,-0.0081
3.976,-0.0076
3.977,-0.0127
3.978,-0.018
3.979,-0.0134
3.98,-0.0078
3.981,-0.0085
3.982,-0.0067
3.983,-0.0061
3.984,-0.0056
3.985,-0.0059
3.986,-0.0037
3.987,-0.0026
3.988,-0.0076
3.989,0.0027
3.99,-0.0017
3.991,-0.0112
3.992,-0.0173
3.993,-0.0003
3.994,0.0021
3.995,0.0131
3.996,0.0111
3.997,-0.0091
3.998,-0.0385
3.999,-0.0424
4,-0.0459
4.001,-0.0363
4.002,-0.0334
4.003,-0.0308
4.004,-0.0188
4.005,-0.0166
4.006,-0.0105
4.007,-0.005
4.008,-0.0034
4.009,-0.0019
4.01,-0.0114
4.011,-0.0125
4.012,-0.0182
4.013,-0.0191
4.014,-0.0145
4.015,-0.0122
4.016,-0.0144
4.017,-0.0149
4.018,-0.0131
4.019,-0.008
4.02,-0.0047
4.021,-0.0052
4.022,-0.0058
4.023,-0.007
4.024,-0.0028
4.025,-0.0001
4.026,-0.0034
4.027,-0.0094
4.028,-0.0118
4.029,-0.0122
4.03,-0.0083
4.031,-0.0078
4.032,0.0018
4.033,0.0168
4.034,0.0188
4.035,0.0096
4.036,0.0146
4.037,0.019
4.038,0.0012
4.039,-0.0208
4.04,-0.0296
4.041,-0.0321
4.042,-0.0345
4.043,-0.0367
4.044,-0.0387
4.045,-0.0405
4.046,-0.0356
4.047,-0.0281
4.048,-0.0294
4.049,-0.0259
4.05,-0.0248
4.051,-0.0219
4.052,-0.0173
4.053,-0.0116
4.054,-0.0078
4.055,-0.0032
4.056,-0.0014
4.057,0.0038
4.058,-0.0008
4.059,0.001
4.06,-0.0028
4.061,-0.0032
4.062,-0.0083
4.063,-0.0145
4.064,-0.0153
4.065,-0.0145
4.066,-0.0164
4.067,-0.012
4.068,-0.0125
4.069,-0.0138
4.07,-0.0096
4.071,-0.0058
4.072,-0.007
4.073,-0.0067
4.074,-0.0028
4.075,-0.0015
4.076,0.0036
4.077,0.0082
4.078,0.005
4.079,-0.0001
4.08,0.0039
4.081,-0.0023
4.082,0.0052
4.083,0.0164
4.084,0.0208
4.085,0.0195
4.086,0.0083
4.087,-0.0142
4.088,-0.0303
4.089,-0.0274
4.09,-0.0299
4.091,-0.0323
4.092,-0.0345
4.093,-0.0405
4.094,-0.0424
4.095,-0.0407
4.096,-0.0451
4.097,-0.0464
4.098,-0.0524
4.099,-0.0422
4.1,-0.0435
4.101,-0.04
4.102,-0.0367
4.103,-0.0358
4.104,-0.0312
4.105,-0.0255
4.106,-0.0277
4.107,-0.031
4.108,-0.0405
4.109,-0.0611
4.11,-0.0759
4.111,-0.0572
4.112,-0.0501
4.113,-0.0169
4.114,0.0261
4.115,0.0549
4.116,0.081
4.117,0.1048
4.118,0.1091
4.119,0.1052
4.12,0.0874
4.121,0.0906
4.122,0.0757
4.123,0.0732
4.124,0.0611
4.125,0.0367
4.126,0.0074
4.127,-0.0043
4.128,-0.0078
4.129,-0.0047
4.13,-0.0017
4.131,0.0061
4.132,-0.0125
4.133,-0.0004
4.134,0.0061
4.135,0.0122
4.136,0.014
4.137,-0.001
4.138,-0.0272
4.139,-0.0378
4.14,-0.0409
4.141,-0.0497
4.142,-0.0523
4.143,-0.0546
4.144,-0.0612
4.145,-0.0713
4.146,-0.0805
4.147,-0.0821
4.148,-0.0806
4.149,-0.0766
4.15,-0.0654
4.151,-0.0698
4.152,-0.0711
4.153,-0.0772
4.154,-0.0874
4.155,-0.0914
4.156,-0.0975
4.157,-0.0986
4.158,-0.0957
4.159,-0.0854
4.16,-0.0814
4.161,-0.0803
4.162,-0.0724
4.163,-0.0695
4.164,-0.0574
4.165,-0.0524
4.166,-0.042
4.167,-0.0297
4.168,-0.0147
4.169,0.0074
4.17,0.0223
4.171,0.0409
4.172,0.053
4.173,0.0684
4.174,0.0744
4.175,0.0726
4.176,0.071
4.177,0.0666
4.178,0.0571
4.179,0.051
4.18,0.0408
4.181,0.034
4.182,0.0281
4.183,0.0146
4.184,0.0054
4.185,0.0071
4.186,0.0296
4.187,0.0391
4.188,0.0303
4.189,0.0116
4.19,-0.0004
4.191,-0.0026
4.192,-0.0006
4.193,-0.0061
4.194,-0.0045
4.195,-0.0059
4.196,-0.0072
4.197,-0.0083
4.198,-0.0094
4.199,-0.0065
4.2,-0.0056
4.201,-0.0048
4.202,-0.0041
4.203,-0.0036
4.204,-0.0017
4.205,0.0021
4.206,0.0025
4.207,0.0029
4.208,-0.0034
4.209,-0.0025
4.21,-0.0116
4.211,-0.0127
4.212,-0.0206
4.213,-0.0215
4.214,-0.0224
4.215,-0.0133
4.216,-0.0144
4.217,-0.0155
4.218,-0.0125
4.219,-0.008
4.22,-0.0072
4.221,-0.0094
4.222,-0.0112
4.223,-0.0043
4.224,-0.007
4.225,-0.0111
4.226,-0.0149
4.227,-0.0131
4.228,-0.02
4.229,-0.021
4.23,-0.0217
4.231,-0.0224
4.232,-0.0257
4.233,-0.0231
4.234,-0.02
4.235,-0.0116
4.236,-0.0081
4.237,-0.016
4.238,-0.0091
4.239,0.0049
4.24,0.019
4.241,0.0245
4.242,0.0195
4.243,-0.003
4.244,-0.0323
4.245,-0.0362
4.246,-0.0396
4.247,-0.0365
4.248,-0.0394
4.249,-0.0369
4.25,-0.0345
4.251,-0.0367
4.252,-0.0347
4.253,-0.0292
4.254,-0.0242
4.255,-0.0167
4.256,-0.0155
4.257,-0.0094
4.258,-0.0105
4.259,-0.0076
4.26,-0.014
4.261,-0.0133
4.262,-0.0171
4.263,-0.0166
4.264,-0.0197
4.265,-0.0202
4.266,-0.0199
4.267,-0.0167
4.268,-0.0122
4.269,-0.014
4.27,-0.0112
4.271,-0.0067
4.272,-0.0061
4.273,0.0012
4.274,0.0003
4.275,-0.0061
4.276,-0.0085
4.277,-0.0107
4.278,-0.014
4.279,-0.0158
4.28,-0.0197
4.281,-0.0142
4.282,-0.0164
4.283,-0.0118
4.284,-0.0092
4.285,-0.0149
4.286,-0.0034
4.287,0.0149
4.288,0.0369
4.289,0.0281
4.29,0.0094
4.291,-0.0074
4.292,-0.0228
4.293,-0.0288
4.294,-0.0343
4.295,-0.0294
4.296,-0.0308
4.297,-0.0321
4.298,-0.0332
4.299,-0.0321
4.3,-0.0272
4.301,-0.0226
4.302,-0.0202
4.303,-0.0164
4.304,-0.0169
4.305,-0.0151
4.306,-0.0089
4.307,-0.0081
4.308,-0.0059
4.309,-0.0026
4.31,-0.0083
4.311,-0.0076
4.312,-0.007
4.313,-0.0052
4.314,-0.0114
4.315,-0.0122
4.316,-0.0144
4.317,-0.0098
4.318,-0.0116
4.319,-0.0167
4.32,-0.0149
4.321,-0.0105
4.322,-0.0111
4.323,-0.0078
4.324,-0.0074
4.325,-0.0019
4.326,-0.0089
4.327,-0.0025
4.328,-0.0048
4.329,-0.007
4.33,-0.0103
4.331,-0.0109
4.332,-0.0136
4.333,-0.0103
4.334,-0.0145
4.335,-0.0166
4.336,-0.0149
4.337,-0.0074
4.338,0.0096
4.339,0.0364
4.34,0.0398
4.341,0.0105
4.342,-0.0169
4.343,-0.0204
4.344,-0.0299
4.345,-0.0329
4.346,-0.0303
4.347,-0.0374
4.348,-0.0352
4.349,-0.0332
4.35,-0.0277
4.351,-0.0294
4.352,-0.0279
4.353,-0.0239
4.354,-0.0178
4.355,-0.01
4.356,-0.007
4.357,-0.0025
4.358,-0.0048
4.359,-0.0056
4.36,-0.0101
4.361,-0.0107
4.362,-0.0145
4.363,-0.0158
4.364,-0.0155
4.365,-0.0166
4.366,-0.0109
4.367,-0.0101
4.368,-0.0123
4.369,-0.0142
4.37,-0.0123
4.371,-0.0085
4.372,-0.0081
4.373,-0.0012
4.374,-0.0041
4.375,-0.005
4.376,-0.0074
4.377,-0.0096
4.378,-0.0091
4.379,-0.0072
4.38,-0.0134
4.381,-0.0111
4.382,-0.018
4.383,-0.0134
4.384,-0.0127
4.385,-0.0058
4.386,-0.007
4.387,-0.0116
4.388,0.0008
4.389,-0.001
4.39,0.0239
4.391,0.0204
4.392,0.0043
4.393,-0.0224
4.394,-0.033
4.395,-0.0362
4.396,-0.0332
4.397,-0.0307
4.398,-0.0283
4.399,-0.0305
4.4,-0.0244
4.401,-0.0226
4.402,-0.021
4.403,-0.0166
4.404,-0.0153
4.405,-0.0092
4.406,-0.0103
4.407,-0.0094
4.408,-0.0085
4.409,-0.0092
4.41,-0.0145
4.411,-0.0164
4.412,-0.0169
4.413,-0.0153
4.414,-0.0166
4.415,-0.0134
4.416,-0.0197
4.417,-0.0133
4.418,-0.0125
4.419,-0.0133
4.42,-0.007
4.421,-0.0014
4.422,-0.0036
4.423,-0.0003
4.424,-0.0008
4.425,-0.0036
4.426,-0.0059
4.427,-0.0081
4.428,-0.012
4.429,-0.0116
4.43,-0.0112
4.431,-0.0158
4.432,-0.0215
4.433,-0.0193
4.434,-0.0175
4.435,-0.0118
4.436,-0.014
4.437,-0.0158
4.438,-0.014
4.439,-0.0171
4.44,-0.0087
4.441,0.0098
4.442,0.0232
4.443,0.016
4.444,0.0182
4.445,-0.012
4.446,-0.0336
4.447,-0.0374
4.448,-0.0409
4.449,-0.044
4.45,-0.0411
4.451,-0.0437
4.452,-0.0316
4.453,-0.0294
4.454,-0.0193
4.455,-0.0175
4.456,-0.0092
4.457,-0.0078
4.458,-0.0118
4.459,-0.0107
4.46,-0.005
4.461,-0.0059
4.462,-0.0105
4.463,-0.0145
4.464,-0.0107
4.465,-0.0197
4.466,-0.0162
4.467,-0.0151
4.468,-0.0142
4.469,-0.0096
4.47,-0.0072
4.471,-0.0019
4.472,-0.0081
4.473,0.001
4.474,0.0021
4.475,-0.0058
4.476,-0.0048
4.477,-0.0094
4.478,-0.0087
4.479,-0.0109
4.48,-0.0034
4.481,0.0098
4.482,-0.0067
4.483,-0.0133
4.484,-0.0153
4.485,-0.0208
4.486,-0.0191
4.487,-0.0177
4.488,-0.0144
4.489,-0.0131
4.49,-0.0047
4.491,0.0102
4.492,0.0041
4.493,0.017
4.494,0.0153
4.495,-0.0072
4.496,-0.0297
4.497,-0.0385
4.498,-0.036
4.499,-0.0336
4.5,-0.0314
4.501,-0.0253
4.502,-0.0235
4.503,-0.0219
4.504,-0.0144
4.505,-0.0156
4.506,-0.0145
4.507,-0.0067
4.508,-0.0076
4.509,-0.0085
4.51,-0.0092
4.511,-0.0131
4.512,-0.0136
4.513,-0.0118
4.514,-0.0091
4.515,-0.0136
4.516,-0.0131
4.517,-0.0103
4.518,-0.01
4.519,-0.0069
4.52,-0.0048
4.521,-0.0037
4.522,-0.0048
4.523,-0.0021
4.524,-0.0003
4.525,-0.0058
4.526,-0.0096
4.527,-0.0142
4.528,-0.0199
4.529,-0.0191
4.53,-0.0186
4.531,-0.0142
4.532,-0.018
4.533,-0.0147
4.534,-0.0105
4.535,-0.0178
4.536,-0.0109
4.537,-0.0081
4.538,-0.0156
4.539,-0.0114
4.54,-0.0105
4.541,0.0016
4.542,0.0232
4.543,0.032
4.544,0.0186
4.545,-0.0081
4.546,-0.0259
4.547,-0.029
4.548,-0.0319
4.549,-0.0294
4.55,-0.027
4.551,-0.0292
4.552,-0.0272
4.553,-0.0217
4.554,-0.02
4.555,-0.0125
4.556,-0.0138
4.557,-0.0149
4.558,-0.0116
4.559,-0.0107
4.56,-0.008
4.561,-0.0056
4.562,-0.0125
4.563,-0.0153
4.564,-0.0177
4.565,-0.0155
4.566,-0.0122
4.567,-0.014
4.568,-0.0089
4.569,-0.0107
4.57,-0.0089
4.571,-0.0037
4.572,-0.0032
4.573,0.0025
4.574,0.0047
4.575,-0.0028
4.576,-0.0098
4.577,-0.0144
4.578,-0.0151
4.579,-0.0173
4.58,-0.0206
4.581,-0.02
4.582,-0.0195
4.583,-0.0149
4.584,-0.0219
4.585,-0.0173
4.586,-0.0149
4.587,-0.0111
4.588,-0.0129
4.589,-0.0123
4.59,-0.0063
4.591,-0.0058
4.592,-0.0012
4.593,0.0083
4.594,0.0179
4.595,0.019
4.596,0.0087
4.597,0.0237
4.598,0.0137
4.599,-0.0101
4.6,-0.0263
4.601,-0.0351
4.602,-0.0429
4.603,-0.0453
4.604,-0.0343
4.605,-0.0323
4.606,-0.0305
4.607,-0.0222
4.608,-0.0208
4.609,-0.0167
4.61,-0.0202
4.611,-0.0191
4.612,-0.0182
4.613,-0.021
4.614,-0.0186
4.615,-0.0178
4.616,-0.0145
4.617,-0.014
4.618,-0.0167
4.619,-0.0191
4.62,-0.0122
4.621,-0.0052
4.622,-0.0098
4.623,-0.0041
4.624,-0.0034
4.625,-0.0001
4.626,0.0005
4.627,-0.0069
4.628,-0.0098
4.629,-0.0144
4.63,-0.0136
4.631,-0.0114
4.632,-0.0052
4.633,-0.0127
4.634,-0.0156
4.635,-0.0166
4.636,-0.0125
4.637,-0.0118
4.638,-0.0072
4.639,-0.0028
4.64,-0.0045
4.641,-0.0012
4.642,-0.0045
4.643,0.0025
4.644,0.0177
4.645,0.0376
4.646,0.0135
4.647,-0.0158
4.648,-0.0275
4.649,-0.031
4.65,-0.0279
4.651,-0.0308
4.652,-0.0283
4.653,-0.0259
4.654,-0.0237
4.655,-0.0136
4.656,-0.0155
4.657,-0.0138
4.658,-0.0123
4.659,-0.0136
4.66,-0.0101
4.661,-0.018
4.662,-0.0171
4.663,-0.018
4.664,-0.0237
4.665,-0.0321
4.666,-0.0332
4.667,-0.0323
4.668,-0.0296
4.669,-0.0239
4.67,-0.0231
4.671,-0.0226
4.672,-0.0156
4.673,-0.0072
4.674,-0.0061
4.675,-0.0032
4.676,-0.0004
4.677,-0.0112
4.678,-0.0069
4.679,-0.0056
4.68,-0.0045
4.681,-0.0078
4.682,-0.0087
4.683,-0.0023
4.684,-0.003
4.685,-0.0052
4.686,-0.0058
4.687,-0.0014
4.688,-0.003
4.689,-0.0017
4.69,0.0014
4.691,0.0034
4.692,0.0025
4.693,-0.0001
4.694,0.0054
4.695,0.0138
4.696,0.0309
4.697,0.014
4.698,-0.0147
4.699,-0.0186
4.7,-0.0221
4.701,-0.0252
4.702,-0.0281
4.703,-0.0255
4.704,-0.0279
4.705,-0.0169
4.706,-0.0149
4.707,-0.0167
4.708,-0.0151
4.709,-0.0136
4.71,-0.0149
4.711,-0.021
4.712,-0.0177
4.713,-0.0186
4.714,-0.0122
4.715,-0.0178
4.716,-0.0109
4.717,-0.01
4.718,-0.0059
4.719,-0.0081
4.72,-0.0087
4.721,-0.0118
4.722,-0.0112
4.723,-0.0116
4.724,-0.0103
4.725,-0.0123
4.726,-0.0067
4.727,0.0058
4.728,-0.007
4.729,-0.0153
4.73,-0.0197
4.731,-0.0237
4.732,-0.0226
4.733,-0.0237
4.734,-0.0246
4.735,-0.0162
4.736,-0.0173
4.737,-0.0123
4.738,-0.0039
4.739,-0.005
4.74,-0.0021
4.741,-0.0048
4.742,-0.0025
4.743,-0.0078
4.744,-0.0147
4.745,-0.0083
4.746,0.0041
4.747,0.0133
4.748,0.0149
4.749,0.0193
4.75,0.0071
4.751,-0.0178
4.752,-0.0356
4.753,-0.0325
4.754,-0.0354
4.755,-0.0329
4.756,-0.0257
4.757,-0.0235
4.758,-0.0215
4.759,-0.0197
4.76,-0.018
4.761,-0.0224
4.762,-0.0211
4.763,-0.0177
4.764,-0.0166
4.765,-0.0195
4.766,-0.0131
4.767,-0.0107
4.768,-0.01
4.769,-0.0054
4.77,-0.0072
4.771,-0.0045
4.772,-0.0111
4.773,-0.0101
4.774,-0.0061
4.775,-0.0131
4.776,-0.0103
4.777,-0.016
4.778,-0.0122
4.779,-0.0116
4.78,-0.0147
4.781,-0.0164
4.782,-0.0177
4.783,-0.0164
4.784,-0.0153
4.785,-0.0118
4.786,-0.0114
4.787,-0.0059
4.788,-0.0067
4.789,-0.0048
4.79,-0.003
4.791,-0.0069
4.792,-0.0081
4.793,-0.0151
4.794,-0.0144
4.795,-0.0134
4.796,-0.0107
4.797,0.0018
4.798,0.0146
4.799,0.003
4.8,0.0256
4.801,0.016
4.802,-0.0107
4.803,-0.0285
4.804,-0.0316
4.805,-0.0286
4.806,-0.0312
4.807,-0.0241
4.808,-0.0219
4.809,-0.0118
4.81,-0.01
4.811,-0.0116
4.812,-0.0131
4.813,-0.0171
4.814,-0.016
4.815,-0.0171
4.816,-0.0142
4.817,-0.0188
4.818,-0.0195
4.819,-0.0173
4.82,-0.0191
4.821,-0.0147
4.822,-0.0109
4.823,-0.0085
4.824,-0.0127
4.825,-0.0155
4.826,-0.0089
4.827,-0.0153
4.828,-0.0145
4.829,-0.0138
4.83,-0.0156
4.831,-0.0151
4.832,-0.0145
4.833,-0.0158
4.834,-0.0145
4.835,-0.0125
4.836,-0.0122
4.837,-0.0074
4.838,-0.0069
4.839,-0.0063
4.84,-0.003
4.841,-0.0043
4.842,-0.0063
4.843,-0.0059
4.844,-0.0114
4.845,-0.0122
4.846,-0.0144
4.847,-0.0041
4.848,0.0184
4.849,0.0409
4.85,0.0439
4.851,0.0305
4.852,0.0085
4.853,-0.0241
4.854,-0.0369
4.855,-0.033
4.856,-0.0296
4.857,-0.0264
4.858,-0.0294
4.859,-0.0319
4.86,-0.0391
4.861,-0.0325
4.862,-0.0345
4.863,-0.0363
4.864,-0.0281
4.865,-0.0237
4.866,-0.0305
4.867,-0.0294
4.868,-0.0237
4.869,-0.0228
4.87,-0.0219
4.871,-0.0144
4.872,-0.0134
4.873,-0.0125
4.874,-0.0069
4.875,-0.0061
4.876,-0.008
4.877,-0.0149
4.878,-0.0158
4.879,-0.0166
4.88,-0.0144
4.881,-0.0098
4.882,-0.0092
4.883,-0.012
4.884,-0.0074
4.885,-0.0092
4.886,-0.0109
4.887,-0.0096
4.888,-0.0074
4.889,-0.0085
4.89,-0.0059
4.891,-0.0041
4.892,-0.0039
4.893,-0.0081
4.894,-0.0177
4.895,-0.0244
4.896,-0.0283
4.897,-0.0294
4.898,-0.0145
4.899,0.0076
4.9,0.0224
4.901,0.0199
4.902,-0.0021
4.903,-0.0169
4.904,-0.0144
4.905,-0.0215
4.906,-0.0193
4.907,-0.0133
4.908,-0.0151
4.909,-0.0134
4.91,-0.0178
4.911,-0.0138
4.912,-0.0127
4.913,-0.0138
4.914,-0.0167
4.915,-0.0177
4.916,-0.0153
4.917,-0.01
4.918,-0.0067
4.919,-0.0123
4.92,-0.0054
4.921,-0.0008
4.922,-0.0001
4.923,0.0038
4.924,0.01
4.925,0.0043
4.926,0.0036
4.927,-0.0067
4.928,-0.0081
4.929,-0.0069
4.93,-0.008
4.931,-0.0047
4.932,-0.0076
4.933,-0.0048
4.934,-0.0089
4.935,-0.0096
4.936,-0.0091
4.937,-0.0134
4.938,-0.0107
4.939,-0.0103
4.94,-0.01
4.941,-0.0111
4.942,-0.0107
4.943,-0.0162
4.944,-0.0246
4.945,-0.0257
4.946,-0.0266
4.947,-0.0268
4.948,-0.0204
4.949,-0.008
4.95,0.0049
4.951,0.0131
4.952,0.0235
4.953,0.014
4.954,0.0029
4.955,-0.0136
4.956,-0.0246
4.957,-0.0226
4.958,-0.0244
4.959,-0.0228
4.96,-0.0303
4.961,-0.0263
4.962,-0.0297
4.963,-0.0264
4.964,-0.0255
4.965,-0.0283
4.966,-0.0259
4.967,-0.0252
4.968,-0.0206
4.969,-0.0175
4.97,-0.0101
4.971,-0.0072
4.972,0.0067
4.973,0.0127
4.974,0.0072
4.975,-0.001
4.976,-0.0085
4.977,-0.018
4.978,-0.0191
4.979,-0.0248
4.98,-0.0257
4.981,-0.023
4.982,-0.0189
4.983,-0.0211
4.984,-0.0206
4.985,-0.0162
4.986,-0.0156
4.987,-0.0123
4.988,-0.0101
4.989,-0.0039
4.99,0.0007
4.991,-0.0034
4.992,-0.0041
4.993,-0.0103
4.994,-0.0127
4.995,-0.0058
4.996,-0.0122
4.997,-0.0114
4.998,-0.0173
4.999,-0.0134
5,-0.0045
5.001,0.014
5.002,0.0274
5.003,0.0202
5.004,0.0003
5.005,-0.0239
5.006,-0.0208
5.007,-0.0237
5.008,-0.0263
5.009,-0.0239
5.01,-0.0217
5.011,-0.0237
5.012,-0.0219
5.013,-0.0202
5.014,-0.0188
5.015,-0.0175
5.016,-0.0259
5.017,-0.0202
5.018,-0.0211
5.019,-0.0184
5.02,-0.0109
5.021,-0.0118
5.022,-0.0054
5.023,0.0003
5.024,-0.0019
5.025,-0.0094
5.026,-0.0103
5.027,-0.0131
5.028,-0.0138
5.029,-0.0085
5.03,-0.0103
5.031,-0.0147
5.032,-0.0142
5.033,-0.0129
5.034,-0.016
5.035,-0.0133
5.036,-0.0076
5.037,-0.0052
5.038,0.0018
5.039,0.0063
5.04,0.0104
5.041,0.0019
5.042,0.0008
5.043,-0.0083
5.044,-0.0167
5.045,-0.0246
5.046,-0.0275
5.047,-0.034
5.048,-0.0363
5.049,-0.0378
5.05,-0.0356
5.051,-0.0281
5.052,-0.0149
5.053,-0.0094
5.054,-0.0012
5.055,0.0003
5.056,-0.0202
5.057,-0.0647
5.058,-0.0964
5.059,-0.1021
5.06,-0.0865
5.061,-0.0817
5.062,-0.0515
5.063,-0.0003
5.064,0.0347
5.065,0.0664
5.066,0.0951
5.067,0.1107
5.068,0.125
5.069,0.1034
5.07,0.0917
5.071,0.081
5.072,0.0715
5.073,0.0567
5.074,0.0325
5.075,-0.0032
5.076,-0.008
5.077,-0.0208
5.078,-0.0169
5.079,-0.0063
5.08,0.0098
5.081,0.001
5.082,-0.0123
5.083,-0.0003
5.084,-0.0025
5.085,-0.0206
5.086,-0.023
5.087,-0.0252
5.088,-0.0554
5.089,-0.0856
5.09,-0.0739
5.091,-0.0632
5.092,-0.0601
5.093,-0.0631
5.094,-0.0709
5.095,-0.0733
5.096,-0.0711
5.097,-0.057
5.098,-0.0552
5.099,-0.0568
5.1,-0.0649
5.101,-0.0693
5.102,-0.0816
5.103,-0.0567
5.104,-0.0532
5.105,-0.0501
5.106,-0.053
5.107,-0.0609
5.108,-0.0777
5.109,-0.0799
5.11,-0.0779
5.111,-0.0761
5.112,-0.0711
5.113,-0.0636
5.114,-0.0596
5.115,-0.0411
5.116,-0.0169
5.117,0.0124
5.118,0.0398
5.119,0.0505
5.12,0.06
5.121,0.0748
5.122,0.0722
5.123,0.0746
5.124,0.0724
5.125,0.0664
5.126,0.0609
5.127,0.0494
5.128,0.045
5.129,0.0382
5.13,0.0347
5.131,0.0245
5.132,0.0232
5.133,0.0221
5.134,0.0164
5.135,0.0173
5.136,0.0127
5.137,0.0071
5.138,0.0049
5.139,0.003
5.14,0.0074
5.141,0.0012
5.142,0.0019
5.143,-0.0034
5.144,-0.0067
5.145,-0.0162
5.146,-0.0149
5.147,-0.016
5.148,-0.0171
5.149,-0.0241
5.15,-0.0156
5.151,-0.0195
5.152,-0.0162
5.153,-0.005
5.154,0.0085
5.155,0.014
5.156,0.0223
5.157,0.0267
5.158,0.0061
5.159,-0.0206
5.16,-0.0383
5.161,-0.0415
5.162,-0.0444
5.163,-0.047
5.164,-0.0446
5.165,-0.0424
5.166,-0.0323
5.167,-0.0305
5.168,-0.0288
5.169,-0.0274
5.17,-0.0206
5.171,-0.0145
5.172,-0.0134
5.173,-0.0125
5.174,-0.0134
5.175,-0.0078
5.176,-0.0085
5.177,-0.0103
5.178,-0.0147
5.179,-0.0153
5.18,-0.0199
5.181,-0.0193
5.182,-0.0231
5.183,-0.0177
5.184,-0.0184
5.185,-0.0138
5.186,-0.0169
5.187,-0.0131
5.188,-0.0056
5.189,-0.0067
5.19,-0.0058
5.191,-0.0048
5.192,-0.0041
5.193,-0.0094
5.194,-0.0112
5.195,-0.0182
5.196,-0.0136
5.197,-0.0193
5.198,-0.02
5.199,-0.0182
5.2,-0.02
5.201,-0.0162
5.202,-0.0188
5.203,-0.0155
5.204,-0.0085
5.205,0.0067
5.206,0.0177
5.207,0.0237
5.208,0.0146
5.209,0.0228
5.21,0.0032
5.211,-0.0101
5.212,-0.0321
5.213,-0.0409
5.214,-0.0488
5.215,-0.0464
5.216,-0.0442
5.217,-0.0382
5.218,-0.0144
5.219,-0.0175
5.22,-0.0263
5.221,-0.0237
5.222,-0.0213
5.223,-0.0191
5.224,-0.0171
5.225,-0.0116
5.226,-0.0133
5.227,-0.0118
5.228,-0.0131
5.229,0.0054
5.23,0.0241
5.231,0.012
5.232,0.0098
5.233,0.0038
5.234,-0.0017
5.235,-0.01
5.236,-0.0114
5.237,-0.0074
5.238,-0.0109
5.239,-0.012
5.24,-0.0091
5.241,-0.0155
5.242,-0.0147
5.243,-0.0169
5.244,-0.0215
5.245,-0.0259
5.246,-0.0275
5.247,-0.0263
5.248,-0.0202
5.249,-0.0195
5.25,-0.0173
5.251,-0.0127
5.252,-0.0133
5.253,-0.0166
5.254,-0.0138
5.255,-0.0083
5.256,0.0032
5.257,0.0215
5.258,0.0287
5.259,0.0353
5.26,0.005
5.261,-0.0166
5.262,-0.0283
5.263,-0.0389
5.264,-0.0358
5.265,-0.0446
5.266,-0.0471
5.267,-0.04
5.268,-0.0378
5.269,-0.0318
5.27,-0.0226
5.271,-0.0177
5.272,-0.0133
5.273,-0.0065
5.274,-0.003
5.275,-0.0019
5.276,-0.0069
5.277,-0.0078
5.278,-0.007
5.279,-0.0063
5.28,-0.0138
5.281,-0.0109
5.282,-0.0118
5.283,-0.0061
5.284,-0.0145
5.285,-0.0224
5.286,-0.0233
5.287,-0.0149
5.288,-0.0116
5.289,-0.0107
5.29,-0.0061
5.291,-0.0118
5.292,-0.008
5.293,-0.0125
5.294,-0.0107
5.295,-0.0134
5.296,-0.0101
5.297,-0.0162
5.298,-0.0087
5.299,-0.0136
5.3,-0.0091
5.301,-0.0083
5.302,-0.0105
5.303,-0.0059
5.304,-0.0026
5.305,-0.0008
5.306,0.0065
5.307,0.0217
5.308,0.0327
5.309,0.0347
5.31,0.0072
5.311,-0.0123
5.312,-0.0301
5.313,-0.0396
5.314,-0.0426
5.315,-0.04
5.316,-0.0329
5.317,-0.0263
5.318,-0.0202
5.319,-0.0184
5.32,-0.0233
5.321,-0.0189
5.322,-0.0094
5.323,-0.0034
5.324,0.0023
5.325,0.0052
5.326,-0.0012
5.327,-0.0019
5.328,-0.0041
5.329,-0.0087
5.33,-0.0118
5.331,-0.0112
5.332,-0.01
5.333,-0.0131
5.334,-0.0127
5.335,-0.0101
5.336,-0.0105
5.337,-0.0091
5.338,-0.0048
5.339,-0.0067
5.34,-0.0028
5.341,-0.0103
5.342,-0.0092
5.343,-0.0162
5.344,-0.0153
5.345,-0.016
5.346,-0.0153
5.347,-0.0134
5.348,-0.0129
5.349,-0.0191
5.35,-0.0151
5.351,-0.0129
5.352,-0.0111
5.353,-0.0105
5.354,-0.0067
5.355,-0.0063
5.356,-0.0087
5.357,-0.0017
5.358,0.0135
5.359,0.0289
5.36,0.0349
5.361,0.0221
5.362,-0.0028
5.363,-0.0206
5.364,-0.0301
5.365,-0.033
5.366,-0.0356
5.367,-0.0332
5.368,-0.0354
5.369,-0.0334
5.37,-0.0279
5.371,-0.0263
5.372,-0.0188
5.373,-0.0175
5.374,-0.014
5.375,-0.0107
5.376,-0.0136
5.377,-0.0127
5.378,-0.0167
5.379,-0.0206
5.38,-0.02
5.381,-0.0182
5.382,-0.0199
5.383,-0.0186
5.384,-0.0134
5.385,-0.0153
5.386,-0.0147
5.387,-0.0109
5.388,-0.0096
5.389,-0.01
5.39,-0.0054
5.391,-0.0023
5.392,-0.0061
5.393,-0.0107
5.394,-0.0112
5.395,-0.0118
5.396,-0.0122
5.397,-0.0118
5.398,-0.0122
5.399,-0.0147
5.4,-0.0195
5.401,-0.0138
5.402,-0.0116
5.403,-0.0162
5.404,-0.0118
5.405,-0.0101
5.406,-0.0048
5.407,-0.0045
5.408,-0.0032
5.409,0.003
5.41,0.017
5.411,0.023
5.412,0.0285
5.413,0.0036
5.414,-0.0286
5.415,-0.0415
5.416,-0.0376
5.417,-0.0341
5.418,-0.031
5.419,-0.0281
5.42,-0.0307
5.421,-0.0283
5.422,-0.0305
5.423,-0.0244
5.424,-0.0153
5.425,-0.0103
5.426,-0.0147
5.427,-0.0134
5.428,-0.0169
5.429,-0.018
5.43,-0.0171
5.431,-0.0125
5.432,-0.0133
5.433,-0.014
5.434,-0.0122
5.435,-0.0091
5.436,-0.0085
5.437,-0.0118
5.438,-0.0058
5.439,-0.0114
5.44,-0.0061
5.441,-0.0043
5.442,-0.0074
5.443,-0.0091
5.444,-0.0123
5.445,-0.0111
5.446,-0.0149
5.447,-0.0173
5.448,-0.0131
5.449,-0.0136
5.45,-0.0133
5.451,-0.0155
5.452,-0.0127
5.453,-0.0101
5.454,-0.0083
5.455,-0.0116
5.456,-0.0103
5.457,-0.0056
5.458,-0.0017
5.459,-0.003
5.46,-0.0052
5.461,-0.0048
5.462,-0.0098
5.463,-0.0023
5.464,0.0089
5.465,-0.0076
5.466,-0.0186
5.467,-0.0085
5.468,0.0043
5.469,0.0126
5.47,0.017
5.471,0.0129
5.472,-0.0056
5.473,-0.0297
5.474,-0.0329
5.475,-0.0299
5.476,-0.0325
5.477,-0.0301
5.478,-0.0279
5.479,-0.0259
5.48,-0.0314
5.481,-0.0231
5.482,-0.0217
5.483,-0.0149
5.484,-0.0138
5.485,-0.0127
5.486,-0.0136
5.487,-0.0072
5.488,-0.0065
5.489,-0.0026
5.49,-0.0021
5.491,-0.0052
5.492,-0.008
5.493,-0.0125
5.494,-0.0182
5.495,-0.0129
5.496,-0.0111
5.497,-0.0129
5.498,-0.0091
5.499,-0.0123
5.5,-0.0127
5.501,-0.0131
5.502,-0.0105
5.503,-0.0131
5.504,-0.0085
5.505,-0.008
5.506,-0.0036
5.507,-0.0074
5.508,-0.0034
5.509,-0.0067
5.51,-0.0045
5.511,0.0018
5.512,0.0157
5.513,0.0257
5.514,0.0166
5.515,-0.0083
5.516,-0.0261
5.517,-0.0356
5.518,-0.0327
5.519,-0.0352
5.52,-0.0281
5.521,-0.0259
5.522,-0.0279
5.523,-0.0188
5.524,-0.0171
5.525,-0.0186
5.526,-0.0173
5.527,-0.0162
5.528,-0.0195
5.529,-0.0166
5.53,-0.0175
5.531,-0.0182
5.532,-0.0204
5.533,-0.0171
5.534,-0.0153
5.535,-0.0114
5.536,-0.0081
5.537,-0.0103
5.538,-0.0076
5.539,-0.0058
5.54,-0.0003
5.541,0.0005
5.542,0.0107
5.543,0.0332
5.544,0.0301
5.545,0.0272
5.546,0.0138
5.547,0.0018
5.548,-0.0136
5.549,-0.0156
5.55,-0.0211
5.551,-0.0261
5.552,-0.0336
5.553,-0.0296
5.554,-0.0285
5.555,-0.0274
5.556,-0.0283
5.557,-0.018
5.558,-0.0193
5.559,-0.0253
5.56,-0.0314
5.561,-0.0166
5.562,-0.0065
5.563,0.0027
5.564,0.0142
5.565,0.0007
5.566,-0.0195
5.567,-0.0382
5.568,-0.0405
5.569,-0.0427
5.57,-0.0367
5.571,-0.0312
5.572,-0.0296
5.573,-0.0252
5.574,-0.0264
5.575,-0.023
5.576,-0.0173
5.577,-0.0182
5.578,-0.0191
5.579,-0.0199
5.58,-0.016
5.581,-0.0166
5.582,-0.0184
5.583,-0.0133
5.584,-0.0087
5.585,-0.0081
5.586,-0.012
5.587,-0.0045
5.588,0.0034
5.589,0.0025
5.59,0.0089
5.591,0.0082
5.592,0.0043
5.593,0.0025
5.594,-0.0032
5.595,-0.0147
5.596,-0.0164
5.597,-0.0208
5.598,-0.0167
5.599,-0.0156
5.6,-0.0123
5.601,-0.0114
5.602,-0.0105
5.603,-0.0112
5.604,-0.0091
5.605,-0.0058
5.606,-0.0089
5.607,-0.0083
5.608,-0.0059
5.609,-0.0063
5.61,-0.01
5.611,-0.0145
5.612,-0.005
5.613,0.0045
5.614,0.023
5.615,0.0204
5.616,-0.0015
5.617,-0.0222
5.618,-0.0301
5.619,-0.0325
5.62,-0.0303
5.621,-0.0283
5.622,-0.0191
5.623,-0.0175
5.624,-0.0131
5.625,-0.0063
5.626,0.0021
5.627,0.0032
5.628,0.0124
5.629,0.0309
5.63,0.0334
5.631,0.0213
5.632,0.0148
5.633,0.0007
5.634,-0.0048
5.635,-0.0131
5.636,-0.0206
5.637,-0.0219
5.638,-0.0184
5.639,-0.0241
5.64,-0.027
5.641,-0.0297
5.642,-0.0321
5.643,-0.0374
5.644,-0.0393
5.645,-0.0362
5.646,-0.0323
5.647,-0.0356
5.648,-0.0378
5.649,-0.034
5.65,-0.0316
5.651,-0.0338
5.652,-0.031
5.653,-0.0253
5.654,-0.0246
5.655,-0.0208
5.656,-0.0189
5.657,-0.012
5.658,-0.0111
5.659,-0.0118
5.66,-0.0096
5.661,-0.0158
5.662,-0.014
5.663,-0.0045
5.664,0.0105
5.665,0.0166
5.666,0.0294
5.667,0.0179
5.668,-0.0047
5.669,-0.0272
5.67,-0.0301
5.671,-0.0275
5.672,-0.0252
5.673,-0.0274
5.674,-0.0253
5.675,-0.0235
5.676,-0.0186
5.677,-0.02
5.678,-0.0188
5.679,-0.0248
5.68,-0.0215
5.681,-0.0206
5.682,-0.0178
5.683,-0.0155
5.684,-0.0101
5.685,-0.0039
5.686,0.0001
5.687,0.0054
5.688,0.006
5.689,0.0065
5.69,0.0104
5.691,0.0071
5.692,0.0001
5.693,-0.0008
5.694,0.0001
5.695,-0.0006
5.696,0.0032
5.697,0.0078
5.698,0.0109
5.699,0.0047
5.7,-0.001
5.701,-0.0111
5.702,-0.0151
5.703,-0.0186
5.704,-0.0175
5.705,-0.0145
5.706,-0.0155
5.707,-0.0098
5.708,-0.0136
5.709,-0.0034
5.71,0.0102
5.711,-0.01
5.712,-0.0253
5.713,-0.0228
5.714,-0.0299
5.715,-0.0277
5.716,-0.0096
5.717,0.0072
5.718,0.0094
5.719,0.0235
5.72,0.0107
5.721,-0.0142
5.722,-0.0248
5.723,-0.0279
5.724,-0.025
5.725,-0.0275
5.726,-0.0299
5.727,-0.0277
5.728,-0.0257
5.729,-0.0275
5.73,-0.0259
5.731,-0.0274
5.732,-0.0233
5.733,-0.0173
5.734,-0.0184
5.735,-0.0233
5.736,-0.0131
5.737,-0.0063
5.738,0.0122
5.739,0.0525
5.74,0.0812
5.741,0.0657
5.742,0.0419
5.743,0.0202
5.744,0.0007
5.745,-0.0171
5.746,-0.0266
5.747,-0.0415
5.748,-0.044
5.749,-0.0464
5.75,-0.053
5.751,-0.051
5.752,-0.0418
5.753,-0.0402
5.754,-0.0387
5.755,-0.0292
5.756,-0.0352
5.757,-0.0363
5.758,-0.0372
5.759,-0.0382
5.76,-0.0405
5.761,-0.0475
5.762,-0.0521
5.763,-0.0517
5.764,-0.046
5.765,-0.0391
5.766,-0.0252
5.767,-0.003
5.768,0.0118
5.769,0.0039
5.77,0.0016
5.771,-0.0138
5.772,-0.0199
5.773,-0.0217
5.774,-0.0266
5.775,-0.0281
5.776,-0.0268
5.777,-0.0279
5.778,-0.0222
5.779,-0.0193
5.78,-0.0147
5.781,-0.0107
5.782,-0.0069
5.783,-0.005
5.784,-0.0045
5.785,-0.0083
5.786,-0.0059
5.787,0.001
5.788,0.0039
5.789,-0.0045
5.79,-0.0147
5.791,-0.0134
5.792,-0.0123
5.793,-0.0134
5.794,-0.0204
5.795,-0.0195
5.796,-0.0202
5.797,-0.0164
5.798,-0.0118
5.799,-0.0036
5.8,-0.0069
5.801,-0.0039
5.802,0.01
5.803,0.0321
5.804,0.0351
5.805,0.0325
5.806,0.0301
5.807,0.0235
5.808,0.0215
5.809,0.0197
5.81,0.0115
5.811,0.01
5.812,0.0113
5.813,0.0029
5.814,0.0069
5.815,0.0012
5.816,0.0164
5.817,0.0318
5.818,0.0419
5.819,0.0217
5.82,-0.0078
5.821,-0.0195
5.822,-0.0301
5.823,-0.0332
5.824,-0.0362
5.825,-0.0387
5.826,-0.0363
5.827,-0.0517
5.828,-0.0537
5.829,-0.0592
5.83,-0.0543
5.831,-0.0468
5.832,-0.0481
5.833,-0.0396
5.834,-0.0363
5.835,-0.0354
5.836,-0.029
5.837,-0.0266
5.838,-0.0166
5.839,-0.0125
5.84,-0.0114
5.841,-0.0147
5.842,-0.0138
5.843,-0.0092
5.844,-0.0149
5.845,-0.0171
5.846,-0.0177
5.847,-0.0145
5.848,-0.0184
5.849,-0.0171
5.85,-0.0101
5.851,0.005
5.852,0.0029
5.853,-0.0072
5.854,-0.0127
5.855,-0.0111
5.856,-0.0186
5.857,-0.0173
5.858,-0.0233
5.859,-0.02
5.86,-0.025
5.861,-0.0277
5.862,-0.0285
5.863,-0.0231
5.864,-0.025
5.865,-0.0253
5.866,-0.0184
5.867,-0.0063
5.868,0.0052
5.869,0.0248
5.87,0.0274
5.871,0.0105
5.872,-0.0226
5.873,-0.0274
5.874,-0.0231
5.875,-0.027
5.876,-0.0235
5.877,-0.0266
5.878,-0.0237
5.879,-0.0211
5.88,-0.014
5.881,-0.0118
5.882,-0.0138
5.883,-0.0083
5.884,-0.0034
5.885,-0.0078
5.886,-0.0145
5.887,-0.0134
5.888,-0.0101
5.889,-0.0072
5.89,-0.0045
5.891,-0.0037
5.892,-0.003
5.893,-0.0063
5.894,-0.012
5.895,-0.0142
5.896,-0.0123
5.897,-0.0118
5.898,-0.0156
5.899,-0.0133
5.9,-0.0091
5.901,-0.0118
5.902,-0.0114
5.903,-0.0063
5.904,-0.003
5.905,0.0052
5.906,0.0019
5.907,-0.003
5.908,-0.0076
5.909,-0.0036
5.91,-0.0028
5.911,-0.0091
5.912,-0.0147
5.913,-0.02
5.914,-0.0233
5.915,-0.0252
5.916,-0.021
5.917,-0.0237
5.918,-0.0162
5.919,-0.0037
5.92,0.0212
5.921,0.0246
5.922,0.0021
5.923,-0.0127
5.924,-0.0153
5.925,-0.0177
5.926,-0.0242
5.927,-0.0263
5.928,-0.0244
5.929,-0.0261
5.93,-0.0186
5.931,-0.0145
5.932,-0.023
5.933,-0.0263
5.934,-0.0272
5.935,-0.0263
5.936,-0.0206
5.937,-0.0153
5.938,-0.0107
5.939,-0.0151
5.94,-0.0067
5.941,-0.0006
5.942,0.0027
5.943,-0.0023
5.944,-0.0125
5.945,-0.0138
5.946,-0.0173
5.947,-0.0252
5.948,-0.016
5.949,-0.0149
5.95,-0.0047
5.951,0.0159
5.952,0.0307
5.953,0.0228
5.954,0.006
5.955,0.0082
5.956,-0.01
5.957,-0.0221
5.958,-0.033
5.959,-0.0391
5.96,-0.0482
5.961,-0.0532
5.962,-0.0517
5.963,-0.0504
5.964,-0.0539
5.965,-0.0528
5.966,-0.0537
5.967,-0.0546
5.968,-0.0482
5.969,-0.0442
5.97,-0.0372
5.971,-0.0512
5.972,-0.0814
5.973,-0.1378
5.974,-0.1608
5.975,-0.14
5.976,-0.1211
5.977,-0.1268
5.978,-0.1006
5.979,-0.0673
5.98,-0.0371
5.981,-0.0096
5.982,0.0226
5.983,0.0528
5.984,0.0646
5.985,0.0752
5.986,0.0783
5.987,0.0871
5.988,0.1004
5.989,0.1125
5.99,0.1191
5.991,0.1252
5.992,0.0977
5.993,0.0386
5.994,0.0133
5.995,0.0056
5.996,-0.0014
5.997,0.0049
5.998,0.0105
5.999,0.0157
6,0.0109
6.001,0.0067
6.002,0.0029
6.003,-0.0006
6.004,0.0025
6.005,-0.0063
6.006,-0.0197
6.007,-0.0416
6.008,-0.0623
6.009,-0.0649
6.01,-0.0625
6.011,-0.0471
6.012,-0.025
6.013,0.0076
6.014,0.0378
6.015,0.0653
6.016,0.0975
6.017,0.1017
6.018,0.0809
6.019,0.0375
6.02,0.0202
6.021,0.0464
6.022,0.0607
6.023,0.0649
6.024,0.0611
6.025,0.0505
6.026,0.0279
6.027,0.0131
6.028,-0.0111
6.029,-0.0206
6.03,-0.0235
6.031,-0.0156
6.032,-0.018
6.033,-0.0026
6.034,0.0276
6.035,0.0318
6.036,0.0435
6.037,0.0541
6.038,0.0702
6.039,0.1089
6.04,0.1665
6.041,0.2667
6.042,0.3075
6.043,0.2951
6.044,0.2614
6.045,0.2306
6.046,0.1653
6.047,0.123
6.048,0.0845
6.049,0.0356
6.05,-0.0217
6.051,-0.0755
6.052,-0.1244
6.053,-0.1687
6.054,-0.2323
6.055,-0.2575
6.056,-0.296
6.057,-0.3029
6.058,-0.3218
6.059,-0.3275
6.06,-0.3537
6.061,-0.3679
6.062,-0.3808
6.063,-0.4003
6.064,-0.3969
6.065,-0.4064
6.066,-0.4035
6.067,-0.3685
6.068,-0.3064
6.069,-0.2509
6.07,-0.1918
6.071,-0.138
6.072,-0.103
6.073,-0.0457
6.074,0.0699
6.075,0.0863
6.076,0.1014
6.077,0.1422
6.078,0.1048
6.079,0.0937
6.08,0.0424
6.081,0.0331
6.082,0.0246
6.083,0.017
6.084,0.0239
6.085,0.0428
6.086,0.0484
6.087,0.0536
6.088,0.0488
6.089,0.0964
6.09,0.1153
6.091,0.0981
6.092,0.0825
6.093,0.0682
6.094,0.038
6.095,0.0342
6.096,0.0093
6.097,-0.0394
6.098,-0.0883
6.099,-0.1072
6.1,-0.09
6.101,-0.0534
6.102,-0.0296
6.103,0.0007
6.104,0.0362
6.105,0.0409
6.106,0.0711
6.107,0.0829
6.108,0.0935
6.109,0.0966
6.11,0.0995
6.111,0.1021
6.112,0.1092
6.113,0.1114
6.114,0.1134
6.115,0.1043
6.116,0.0893
6.117,0.0752
6.118,0.0477
6.119,0.0122
6.12,0.0252
6.121,0.0777
6.122,0.0986
6.123,0.1048
6.124,0.0992
6.125,0.1043
6.126,0.0995
6.127,0.1123
6.128,0.0611
6.129,0.0122
6.13,-0.0067
6.131,-0.047
6.132,-0.0731
6.133,-0.0779
6.134,-0.0737
6.135,-0.0698
6.136,-0.0592
6.137,-0.0753
6.138,-0.1198
6.139,-0.1387
6.14,-0.0984
6.141,-0.0618
6.142,-0.0188
6.143,-0.0015
6.144,0.014
6.145,0.0761
6.146,0.1184
6.147,0.1261
6.148,0.1191
6.149,0.0874
6.15,0.0472
6.151,0.021
6.152,-0.0221
6.153,-0.0623
6.154,-0.099
6.155,-0.1228
6.156,-0.1878
6.157,-0.3092
6.158,-0.2927
6.159,-0.2476
6.16,-0.1521
6.161,-0.1147
6.162,-0.0358
6.163,0.0977
6.164,0.1523
6.165,0.235
6.166,0.1598
6.167,0.0642
6.168,0.0019
6.169,-0.0318
6.17,-0.0625
6.171,-0.1491
6.172,-0.2332
6.173,-0.3121
6.174,-0.3018
6.175,-0.2551
6.176,-0.2467
6.177,-0.2237
6.178,-0.2028
6.179,-0.1966
6.18,-0.2022
6.181,-0.1445
6.182,-0.1369
6.183,-0.1019
6.184,-0.0702
6.185,-0.0415
6.186,0.0162
6.187,0.0393
6.188,0.1444
6.189,0.1594
6.19,0.1186
6.191,0.1061
6.192,0.0724
6.193,0.0827
6.194,0.092
6.195,0.1004
6.196,0.0928
6.197,0.0719
6.198,0.0657
6.199,0.0713
6.2,0.1501
6.201,0.229
6.202,0.2187
6.203,0.1907
6.204,0.1654
6.205,0.0961
6.206,0.012
6.207,-0.0444
6.208,-0.0957
6.209,-0.1424
6.21,-0.1846
6.211,-0.254
6.212,-0.2447
6.213,-0.1856
6.214,-0.1471
6.215,-0.0982
6.216,-0.092
6.217,-0.1555
6.218,-0.164
6.219,-0.1255
6.22,-0.0204
6.221,0.1451
6.222,0.1622
6.223,0.0962
6.224,0.0362
6.225,0.0543
6.226,0.0047
6.227,-0.0706
6.228,-0.2209
6.229,-0.3211
6.23,-0.4485
6.231,-0.5313
6.232,-0.6968
6.233,-0.8508
6.234,-0.9509
6.235,-1.0055
6.236,-0.989
6.237,-0.944
6.238,-0.9032
6.239,-0.8658
6.24,-0.8546
6.241,-0.8444
6.242,-0.9658
6.243,-1.0154
6.244,-1.0907
6.245,-0.9676
6.246,-0.918
6.247,-0.8427
6.248,-0.7471
6.249,-0.6351
6.25,-0.4696
6.251,-0.2713
6.252,-0.0847
6.253,0.2306
6.254,0.4454
6.255,0.4844
6.256,0.4489
6.257,0.4811
6.258,0.5104
6.259,0.4839
6.26,0.4112
6.261,0.4331
6.262,0.4132
6.263,0.3951
6.264,0.4115
6.265,0.3965
6.266,0.3557
6.267,0.2685
6.268,0.1896
6.269,0.1178
6.27,0.0151
6.271,-0.19
6.272,-0.3952
6.273,-0.363
6.274,-0.3364
6.275,-0.5062
6.276,-0.7484
6.277,-0.6518
6.278,-0.4465
6.279,-0.2599
6.28,-0.0902
6.281,0.0199
6.282,0.0398
6.283,0.058
6.284,0.1407
6.285,0.216
6.286,0.3663
6.287,0.3464
6.288,0.3645
6.289,0.381
6.29,0.4562
6.291,0.3606
6.292,0.2984
6.293,0.2872
6.294,0.318
6.295,0.3273
6.296,0.3526
6.297,0.3757
6.298,0.3965
6.299,0.3903
6.3,0.3846
6.301,0.3795
6.302,0.3269
6.303,0.3061
6.304,0.3378
6.305,0.4013
6.306,0.3929
6.307,0.3698
6.308,0.3066
6.309,0.1795
6.31,0.0157
6.311,-0.0502
6.312,-0.0303
6.313,0.0607
6.314,0.2429
6.315,0.4126
6.316,0.5666
6.317,0.7871
6.318,0.9338
6.319,0.9603
6.32,1.033
6.321,0.923
6.322,0.7025
6.323,0.5558
6.324,0.4009
6.325,0.2143
6.326,-0.0039
6.327,-0.0332
6.328,-0.1665
6.329,-0.2392
6.33,-0.5256
6.331,-0.7208
6.332,-0.9694
6.333,-1.1308
6.334,-1.336
6.335,-1.4693
6.336,-1.5905
6.337,-1.8769
6.338,-1.8379
6.339,-1.5893
6.34,-1.3635
6.341,-1.0994
6.342,-0.9218
6.343,-0.7605
6.344,-0.6138
6.345,-0.4805
6.346,-0.3593
6.347,-0.2493
6.348,-0.1491
6.349,-0.0581
6.35,0.0246
6.351,0.0999
6.352,0.1682
6.353,0.2055
6.354,0.2392
6.355,0.2905
6.356,0.3185
6.357,0.3438
6.358,0.3515
6.359,0.3724
6.36,0.3912
6.361,0.3969
6.362,0.402
6.363,0.4068
6.364,0.411
6.365,0.4071
6.366,0.4106
6.367,0.4075
6.368,0.4046
6.369,0.3967
6.37,0.3943
6.371,0.3833
6.372,0.3813
6.373,0.3685
6.374,0.3636
6.375,0.3533
6.376,0.3429
6.377,0.3497
6.378,0.3335
6.379,0.3226
6.38,0.3085
6.381,0.292
6.382,0.2854
6.383,0.2753
6.384,0.2662
6.385,0.2546
6.386,0.2471
6.387,0.2376
6.388,0.2264
6.389,0.2189
6.39,0.2121
6.391,0.201
6.392,0.1935
6.393,0.1839
6.394,0.1779
6.395,0.1676
6.396,0.1609
6.397,0.1524
6.398,0.1468
6.399,0.1398
6.4,0.1352
6.401,0.1277
6.402,0.1208
6.403,0.1144
6.404,0.1087
6.405,0.1034
6.406,0.0988
6.407,0.0944
6.408,0.0906
6.409,0.0831
6.41,0.082
6.411,0.075
6.412,0.0722
6.413,0.0682
6.414,0.0644
6.415,0.0598
6.416,0.058
6.417,0.0528
6.418,0.051
6.419,0.0466
6.42,0.045
6.421,0.0404
6.422,0.0398
6.423,0.0371
6.424,0.0347
6.425,0.0316
6.426,0.0303
6.427,0.0283
6.428,0.0301
6.429,0.0283
6.43,0.0323
6.431,0.0296
6.432,0.0221
6.433,0.0164
6.434,0.0155
6.435,0.0146
6.436,0.0153
6.437,0.0146
6.438,0.0127
6.439,0.0109
6.44,0.0093
6.441,0.008
6.442,0.0076
6.443,0.0065
6.444,0.0054
6.445,0.0065
6.446,0.0111
6.447,0.0036
6.448,0.0027
6.449,0.0036
6.45,0.0012
6.451,0.0005
6.452,-0.0001
6.453,-0.0006
6.454,-0.0012
6.455,-0.0015
6.456,-0.0019
6.457,-0.0015
6.458,-0.0041
6.459,-0.003
6.46,-0.0023
6.461,-0.0041
6.462,-0.0017
6.463,-0.005
6.464,-0.0037
6.465,-0.0048
6.466,-0.0045
6.467,-0.0041
6.468,-0.0056
6.469,-0.0063
6.47,-0.0056
6.471,-0.0061
6.472,-0.0056
6.473,-0.0047
6.474,-0.0063
6.475,-0.0061
6.476,-0.007
6.477,-0.0078
6.478,-0.0076
6.479,-0.0056
6.48,-0.0052
6.481,-0.0059
6.482,-0.0017
6.483,-0.0012
6.484,-0.005
6.485,-0.0096
6.486,-0.0065
6.487,-0.0092
6.488,-0.0105
6.489,-0.0092
6.49,-0.0103
6.491,-0.0092
6.492,-0.0111
6.493,-0.0103
6.494,-0.0091
6.495,-0.0098
6.496,-0.01
6.497,-0.0094
6.498,-0.0092
6.499,-0.0091
6.5,-0.0098
6.501,-0.01
6.502,-0.01
6.503,-0.01
6.504,-0.01
6.505,-0.01
6.506,-0.01
6.507,-0.0114
6.508,-0.0109
6.509,-0.0129
6.51,-0.01
6.511,-0.0096
6.512,-0.0092
6.513,-0.0112
6.514,-0.0105
6.515,-0.0107
6.516,-0.0105
6.517,-0.0116
6.518,-0.0091
6.519,-0.0101
6.52,-0.01
6.521,-0.0098
6.522,-0.01
6.523,-0.0098
6.524,-0.0109
6.525,-0.0107
6.526,-0.0116
6.527,-0.0114
6.528,-0.0114
6.529,-0.0107
6.53,-0.0087
6.531,-0.0069
6.532,-0.0089
6.533,-0.0091
6.534,-0.005
6.535,-0.0034
6.536,-0.0089
6.537,-0.0111
6.538,-0.0116
6.539,-0.0111
6.54,-0.0127
6.541,-0.0123
6.542,-0.0111
6.543,-0.0131
6.544,-0.012
6.545,-0.0101
6.546,-0.0122
6.547,-0.012
6.548,-0.0112
6.549,-0.0107
6.55,-0.0122
6.551,-0.0112
6.552,-0.0122
6.553,-0.0107
6.554,-0.0112
6.555,-0.0107
6.556,-0.0129
6.557,-0.0136
6.558,-0.0123
6.559,-0.0112
6.56,-0.0114
6.561,-0.0123
6.562,-0.0114
6.563,-0.0134
6.564,-0.0123
6.565,-0.0131
6.566,-0.0112
6.567,-0.0136
6.568,-0.0122
6.569,-0.012
6.57,-0.0112
6.571,-0.0127
6.572,-0.0112
6.573,-0.0114
6.574,-0.0112
6.575,-0.0114
6.576,-0.01
6.577,-0.0114
6.578,-0.012
6.579,-0.0129
6.58,-0.0127
6.581,-0.01
6.582,-0.0156
6.583,-0.0032
6.584,-0.0087
6.585,-0.0136
6.586,-0.0122
6.587,-0.0134
6.588,-0.0145
6.589,-0.0112
6.59,-0.0122
6.591,-0.0112
6.592,-0.0136
6.593,-0.0129
6.594,-0.0111
6.595,-0.0116
6.596,-0.0122
6.597,-0.0109
6.598,-0.0112
6.599,-0.0116
6.6,-0.012
6.601,-0.0109
6.602,-0.0116
6.603,-0.0123
6.604,-0.0122
6.605,-0.0127
6.606,-0.0129
6.607,-0.0107
6.608,-0.0125
6.609,-0.0112
6.61,-0.0114
6.611,-0.0129
6.612,-0.012
6.613,-0.0114
6.614,-0.0129
6.615,-0.0127
6.616,-0.0122
6.617,-0.0134
6.618,-0.0136
6.619,-0.0116
6.62,-0.012
6.621,-0.0122
6.622,-0.0114
6.623,-0.0122
6.624,-0.012
6.625,-0.0105
6.626,-0.0131
6.627,-0.0127
6.628,-0.0081
6.629,0.0021
6.63,1.8951
6.631,1.8725
6.632,1.9212
6.633,2.0263
6.634,2.2521
6.635,2.7362
6.636,2.9439
6.637,3.8874
6.638,5.9107
6.639,-2.9083
6.64,3.443
6.641,8.6925
6.642,-2.6256
6.643,8.7546
6.644,-2.682
6.645,8.8056
6.646,8.34
6.647,8.7633
6.648,8.3785
6.649,8.0285
6.65,7.0744
6.651,6.7853
6.652,8.0996
6.653,7.8606
6.654,7.6435
6.655,7.0511
6.656,6.8717
6.657,6.7085
6.658,5.6698
6.659,4.9954
6.66,4.3824
6.661,4.0482
6.662,3.5415
6.663,3.4494
6.664,3.5331
6.665,3.7613
6.666,3.6921
6.667,3.6293
6.668,3.9151
6.669,3.7591
6.67,3.8063
6.671,3.8492
6.672,3.9662
6.673,4.0017
6.674,4.0984
6.675,4.1863
6.676,4.3196
6.677,4.6834
6.678,4.9434
6.679,4.8017
6.68,5.1884
6.681,-1.4419
6.682,-1.5979
6.683,-1.5506
6.684,-1.25
6.685,-1.289
6.686,-1.0403
6.687,-1.0725
6.688,-1.2778
6.689,-1.4111
6.69,-1.1928
6.691,-1.0462
6.692,-0.9129
6.693,-0.549
6.694,-0.497
6.695,-0.7334
6.696,-0.7763
6.697,-0.8153
6.698,-0.7087
6.699,-0.612
6.7,-0.4653
6.701,-0.4388
6.702,-0.2691
6.703,-0.2031
6.704,-0.2231
6.705,-0.205
6.706,-0.2215
6.707,-0.2365
6.708,-0.2229
6.709,-0.086
6.71,0.0415
6.711,0.29
6.712,0.4676
6.713,0.3063
6.714,0.277
6.715,0.1437
6.716,0.0224
6.717,0.0005
6.718,-0.0997
6.719,-0.1178
6.72,-0.0682
6.721,0.0673
6.722,0.1219
6.723,0.006
6.724,-0.0091
6.725,0.114
6.726,0.1305
6.727,0.1155
6.728,0.1838
6.729,0.3705
6.73,0.5038
6.731,0.4311
6.732,0.4288
6.733,0.3628
6.734,0.1825
6.735,0.3037
6.736,0.2378
6.737,0.0574
6.738,0.1301
6.739,-0.0239
6.74,-0.2844
6.741,-0.4621
6.742,-0.3654
6.743,-0.2187
6.744,-0.2985
6.745,-0.3227
6.746,-0.2568
6.747,-0.357
6.748,-0.4115
6.749,-0.2956
6.75,-0.2204
6.751,-0.1795
6.752,-0.1671
6.753,-0.0654
6.754,0.0576
6.755,0.008
6.756,0.023
6.757,0.1733
6.758,0.2334
6.759,0.2879
6.76,0.2715
6.761,0.2565
6.762,0.2973
6.763,0.2848
6.764,0.296
6.765,0.45
6.766,0.472
6.767,0.3718
6.768,0.2808
6.769,0.2973
6.77,0.2823
6.771,0.2687
6.772,0.331
6.773,0.4099
6.774,0.3791
6.775,0.2951
6.776,0.2162
6.777,0.0622
6.778,-0.2681
6.779,-0.3154
6.78,-0.3582
6.781,-0.3192
6.782,-0.2127
6.783,-0.1594
6.784,-0.1272
6.785,-0.0393
6.786,0.3075
6.787,0.5439
6.788,0.4152
6.789,0.142
6.79,-0.0356
6.791,-0.0034
6.792,-0.0327
6.793,-0.0061
6.794,0.018
6.795,0.04
6.796,0.1001
6.797,0.1182
6.798,0.1347
6.799,0.1797
6.8,0.1114
6.801,0.0741
6.802,0.1078
6.803,0.159
6.804,0.2244
6.805,0.0973
6.806,0.0063
6.807,0.056
6.808,0.071
6.809,0.0845
6.81,0.097
6.811,0.1081
6.812,0.1184
6.813,0.1091
6.814,0.1175
6.815,0.0636
6.816,0.0428
6.817,0.0365
6.818,0.0309
6.819,-0.0058
6.82,-0.0583
6.821,-0.0513
6.822,-0.0451
6.823,-0.0739
6.824,-0.1422
6.825,-0.1328
6.826,-0.0905
6.827,-0.0982
6.828,-0.1332
6.829,-0.1649
6.83,-0.1361
6.831,-0.1413
6.832,-0.0887
6.833,-0.0255
6.834,-0.1206
6.835,-0.1629
6.836,-0.1705
6.837,-0.0654
6.838,0.1603
6.839,0.1925
6.84,0.1633
6.841,-0.2368
6.842,-0.294
6.843,-0.138
6.844,-0.1852
6.845,-0.1424
6.846,-0.2594
6.847,-0.2238
6.848,-0.1916
6.849,-0.1623
6.85,-0.1889
6.851,-0.0676
6.852,-0.0457
6.853,-0.0656
6.854,-0.0475
6.855,-0.064
6.856,-0.109
6.857,-0.0955
6.858,-0.1328
6.859,-0.1665
6.86,-0.1973
6.861,-0.244
6.862,-0.1169
6.863,0.1563
6.864,0.742
6.865,0.3233
6.866,0.3993
6.867,0.1916
6.868,0.003
6.869,-0.1684
6.87,-0.2204
6.871,-0.3621
6.872,-0.4049
6.873,-0.3659
6.874,-0.4014
6.875,-0.3692
6.876,-0.3985
6.877,-0.372
6.878,-0.3478
6.879,-0.3258
6.88,-0.2658
6.881,-0.2839
6.882,-0.2674
6.883,-0.2524
6.884,-0.2116
6.885,-0.1945
6.886,-0.1572
6.887,-0.146
6.888,0.008
6.889,0.162
6.89,0.1819
6.891,0.2365
6.892,0.0212
6.893,-0.3015
6.894,-0.3443
6.895,-0.2273
6.896,-0.2628
6.897,-0.2306
6.898,-0.2013
6.899,-0.1215
6.9,-0.0488
6.901,-0.0268
6.902,-0.0069
6.903,0.0113
6.904,0.0278
6.905,0.0127
6.906,0.0263
6.907,0.0387
6.908,0.005
6.909,0.0358
6.91,0.0265
6.911,0.0517
6.912,0.0594
6.913,0.0525
6.914,0.0587
6.915,0.0874
6.916,0.1136
6.917,0.1089
6.918,0.1391
6.919,0.1274
6.92,0.088
6.921,0.0931
6.922,0.0788
6.923,0.0746
6.924,0.0708
6.925,0.0743
6.926,0.0774
6.927,0.0567
6.928,0.0488
6.929,0.0512
6.93,0.0843
6.931,0.1559
6.932,0.3099
6.933,0.1999
6.934,0.0997
6.935,0.0451
6.936,0.0267
6.937,-0.023
6.938,0.0823
6.939,0.1779
6.94,-0.0089
6.941,-0.1422
6.942,0.0761
6.943,0.164
6.944,0.1905
6.945,0.0208
6.946,-0.2656
6.947,-0.1486
6.948,0.3843
6.949,0.1561
6.95,-0.0515
6.951,-0.1143
6.952,-0.2857
6.953,-0.2337
6.954,-0.1865
6.955,-0.2293
6.956,-0.1903
6.957,-0.2258
6.958,-0.2581
6.959,-0.2288
6.96,-0.2553
6.961,-0.2312
6.962,-0.2092
6.963,-0.1491
6.964,-0.131
6.965,-0.1475
6.966,-0.1325
6.967,-0.1189
6.968,-0.0567
6.969,-0.0678
6.97,-0.0371
6.971,0.103
6.972,0.2032
6.973,0.2577
6.974,0.2742
6.975,0.2292
6.976,0.4342
6.977,0.4635
6.978,0.3302
6.979,0.209
6.98,0.0107
6.981,-0.0691
6.982,-0.1418
6.983,-0.1638
6.984,-0.2238
6.985,-0.242
6.986,-0.2255
6.987,-0.2121
6.988,-0.1971
6.989,-0.1563
6.99,0.0305
6.991,0.0571
6.992,0.1297
6.993,0.0197
6.994,-0.2409
6.995,-0.2764
6.996,-0.3086
6.997,-0.2793
6.998,-0.2528
6.999,-0.2286
7,-0.2066
7.001,-0.1466
7.002,-0.1284
7.003,-0.112
7.004,-0.0669
7.005,-0.0261
7.006,-0.0136
7.007,0.0201
7.008,0.0098
7.009,0.0378
7.01,0.0294
7.011,0.0217
7.012,0.0148
7.013,0.021
7.014,0.0153
7.015,0.0309
7.016,0.0547
7.017,0.0505
7.018,0.0466
7.019,0.0431
7.02,0.0462
7.021,0.073
7.022,0.0836
7.023,0.0867
7.024,0.066
7.025,0.0365
7.026,0.0327
7.027,0.0221
7.028,0.019
7.029,0.016
7.03,0.0135
7.031,-0.0034
7.032,-0.0233
7.033,0.0116
7.034,0.0164
7.035,0.0292
7.036,0.0254
7.037,0.036
7.038,0.0369
7.039,0.0464
7.04,0.0851
7.041,0.1638
7.042,0.2427
7.043,0.2325
7.044,0.2418
7.045,0.1147
7.046,-0.1585
7.047,-0.1975
7.048,-0.1619
7.049,-0.1942
7.05,-0.1063
7.051,-0.1328
7.052,0.231
7.053,0.387
7.054,0.2453
7.055,0.1166
7.056,0.0776
7.057,0.042
7.058,-0.0546
7.059,-0.0253
7.06,0.0012
7.061,-0.0715
7.062,-0.0495
7.063,-0.1096
7.064,-0.0914
7.065,-0.1411
7.066,-0.1261
7.067,-0.1396
7.068,-0.1272
7.069,-0.116
7.07,-0.1262
7.071,-0.1169
7.072,-0.0916
7.073,-0.0839
7.074,-0.049
7.075,-0.0173
7.076,0.0347
7.077,0.0278
7.078,-0.0422
7.079,-0.1076
7.08,-0.0991
7.081,-0.0761
7.082,-0.0691
7.083,-0.0374
7.084,0.0029
7.085,-0.0127
7.086,-0.008
7.087,0.0137
7.088,0.0019
7.089,0.0267
7.09,0.0732
7.091,0.0415
7.092,0.1281
7.093,0.1654
7.094,0.1766
7.095,0.1459
7.096,0.0058
7.097,-0.2147
7.098,-0.244
7.099,-0.2174
7.1,-0.2416
7.101,-0.2196
7.102,-0.1596
7.103,-0.105
7.104,-0.0885
7.105,-0.0735
7.106,-0.06
7.107,-0.0475
7.108,-0.0587
7.109,-0.0484
7.11,-0.0391
7.111,-0.0643
7.112,-0.072
7.113,-0.0512
7.114,-0.0574
7.115,-0.0402
7.116,-0.014
7.117,0.0003
7.118,0.0045
7.119,0.0241
7.12,0.0347
7.121,0.0316
7.122,0.0287
7.123,0.0312
7.124,0.0336
7.125,0.0226
7.126,0.0448
7.127,0.0774
7.128,0.0558
7.129,0.0124
7.13,0.0067
7.131,0.0118
7.132,-0.0025
7.133,0.0018
7.134,-0.01
7.135,-0.0065
7.136,-0.0034
7.137,0.0234
7.138,0.0127
7.139,0.0159
7.14,0.023
7.141,0.0259
7.142,0.0446
7.143,0.081
7.144,0.1598
7.145,0.1486
7.146,0.2204
7.147,0.1363
7.148,-0.033
7.149,-0.2028
7.15,-0.1808
7.151,-0.2008
7.152,-0.1826
7.153,-0.133
7.154,-0.088
7.155,-0.0471
7.156,-0.0098
7.157,0.0014
7.158,0.0116
7.159,0.021
7.16,0.0126
7.161,0.0049
7.162,0.0118
7.163,-0.0199
7.164,-0.0026
7.165,0.0025
7.166,0.0358
7.167,0.0142
7.168,0.018
7.169,0.0146
7.17,0.0371
7.171,0.0459
7.172,0.038
7.173,0.0309
7.174,0.0331
7.175,0.027
7.176,0.0142
7.177,-0.0107
7.178,-0.0142
7.179,-0.0173
7.18,-0.0321
7.181,-0.0296
7.182,-0.0319
7.183,-0.0166
7.184,0.0137
7.185,0.0787
7.186,-0.0427
7.187,-0.0263
7.188,-0.0112
7.189,-0.0521
7.19,-0.0396
7.191,-0.0539
7.192,-0.0427
7.193,-0.0325
7.194,0.1076
7.195,0.1676
7.196,0.1858
7.197,0.2023
7.198,0.0367
7.199,-0.1616
7.2,-0.1881
7.201,-0.164
7.202,-0.1859
7.203,-0.166
7.204,-0.1478
7.205,-0.1643
7.206,-0.1193
7.207,-0.1057
7.208,-0.0933
7.209,-0.0596
7.21,-0.0903
7.211,-0.081
7.212,-0.0387
7.213,-0.031
7.214,0.0602
7.215,-0.0021
7.216,0.0091
7.217,-0.0012
7.218,0.0082
7.219,0.0166
7.22,0.0397
7.221,0.0466
7.222,0.0278
7.223,0.0221
7.224,0.017
7.225,0.0027
7.226,-0.0101
7.227,-0.0219
7.228,-0.0396
7.229,-0.0427
7.23,-0.0398
7.231,-0.0211
7.232,-0.0091
7.233,0.0109
7.234,-0.0025
7.235,0.0096
7.236,0.003
7.237,0.001
7.238,-0.0081
7.239,-0.0164
7.24,0.0061
7.241,0.0419
7.242,0.0164
7.243,-0.0266
7.244,-0.0438
7.245,0.0349
7.246,0.2043
7.247,0.1801
7.248,0.1581
7.249,0.058
7.25,-0.033
7.251,-0.0166
7.252,-0.0316
7.253,-0.0999
7.254,-0.0874
7.255,-0.0986
7.256,-0.1088
7.257,-0.0808
7.258,-0.0556
7.259,-0.0479
7.26,-0.0548
7.261,-0.0611
7.262,-0.0554
7.263,-0.0398
7.264,-0.0351
7.265,-0.0479
7.266,-0.0596
7.267,-0.0059
7.268,0.0325
7.269,0.0256
7.27,0.0193
7.271,0.0829
7.272,0.0913
7.273,0.0836
7.274,0.0906
7.275,0.0717
7.276,0.066
7.277,0.0398
7.278,0.0351
7.279,-0.0039
7.28,-0.0195
7.281,-0.0338
7.282,-0.038
7.283,-0.0105
7.284,-0.014
7.285,-0.0365
7.286,-0.0277
7.287,-0.0464
7.288,-0.0296
7.289,-0.0495
7.29,-0.0362
7.291,-0.0629
7.292,-0.0878
7.293,-0.1103
7.294,-0.1198
7.295,-0.1466
7.296,-0.0929
7.297,0.0226
7.298,0.1054
7.299,-0.0601
7.3,-0.2141
7.301,-0.1942
7.302,-0.1396
7.303,-0.1231
7.304,-0.0781
7.305,-0.0645
7.306,-0.0521
7.307,-0.0409
7.308,-0.0307
7.309,-0.0213
7.31,-0.0297
7.311,-0.0374
7.312,-0.0583
7.313,-0.0645
7.314,-0.0473
7.315,-0.0524
7.316,-0.0382
7.317,-0.0253
7.318,-0.0058
7.319,-0.0023
7.32,0.0008
7.321,0.0215
7.322,0.0294
7.323,0.0318
7.324,0.0252
7.325,0.003
7.326,0.0118
7.327,-0.0123
7.328,-0.0546
7.329,-0.1182
7.33,-0.025
7.331,0.0373
7.332,0.1614
7.333,0.1449
7.334,0.0999
7.335,0.0863
7.336,0.0241
7.337,0.1257
7.338,0.0301
7.339,-0.0072
7.34,0.0039
7.341,-0.0063
7.342,-0.0156
7.343,-0.0409
7.344,-0.0927
7.345,0.0228
7.346,0.0393
7.347,0.1446
7.348,0.1037
7.349,0.166
7.35,0.0419
7.351,-0.2066
7.352,-0.2421
7.353,-0.2099
7.354,-0.1806
7.355,-0.1541
7.356,-0.1299
7.357,-0.064
7.358,-0.0839
7.359,0.0071
7.36,0.1561
7.361,0.0961
7.362,0.005
7.363,-0.0114
7.364,-0.0565
7.365,-0.07
7.366,-0.0576
7.367,-0.0687
7.368,-0.0585
7.369,-0.0492
7.37,-0.0407
7.371,-0.0177
7.372,-0.0385
7.373,-0.0323
7.374,-0.0036
7.375,-0.0297
7.376,-0.0345
7.377,-0.0561
7.378,-0.0678
7.379,-0.0142
7.38,0.0397
7.381,0.0047
7.382,-0.0526
7.383,-0.0449
7.384,-0.0519
7.385,-0.0076
7.386,-0.0133
7.387,0.0129
7.388,0.0177
7.389,0.0219
7.39,0.0494
7.391,0.0171
7.392,-0.0045
7.393,-0.0083
7.394,-0.0118
7.395,-0.021
7.396,-0.0178
7.397,0.0267
7.398,0.1221
7.399,0.1629
7.4,0.2251
7.401,0.1235
7.402,0.3286
7.403,0.4165
7.404,0.1232
7.405,0.0842
7.406,0.0486
7.407,0.0164
7.408,-0.0715
7.409,-0.098
7.41,-0.1222
7.411,-0.1442
7.412,-0.1641
7.413,-0.1823
7.414,-0.1987
7.415,-0.1837
7.416,-0.1702
7.417,-0.1577
7.418,-0.1466
7.419,-0.1363
7.42,-0.1083
7.421,-0.0999
7.422,-0.0922
7.423,-0.0713
7.424,-0.0524
7.425,-0.0697
7.426,-0.033
7.427,-0.0473
7.428,-0.0689
7.429,-0.0728
7.43,-0.0191
7.431,0.0503
7.432,-0.0898
7.433,-0.1098
7.434,-0.0916
7.435,-0.042
7.436,-0.027
7.437,-0.0134
7.438,-0.001
7.439,0.0327
7.44,0.043
7.441,0.0149
7.442,0.0065
7.443,-0.0166
7.444,-0.0235
7.445,-0.0297
7.446,-0.0283
7.447,-0.0803
7.448,-0.0872
7.449,0.0082
7.45,0.1312
7.451,0.0816
7.452,0.1869
7.453,0.1733
7.454,-0.0134
7.455,-0.0933
7.456,-0.0691
7.457,-0.0471
7.458,-0.0671
7.459,-0.049
7.46,-0.0654
7.461,-0.0504
7.462,-0.064
7.463,-0.0515
7.464,0.1178
7.465,0.0451
7.466,0.0232
7.467,-0.0369
7.468,-0.0188
7.469,-0.0023
7.47,-0.0173
7.471,-0.0037
7.472,0.0087
7.473,-0.0025
7.474,-0.0127
7.475,0.0153
7.476,0.1424
7.477,0.3063
7.478,0.1962
7.479,0.0961
7.48,0.0415
7.481,-0.0081
7.482,0.0671
7.483,0.2722
7.484,0.7122
7.485,1.6557
7.486,1.7905
7.487,0.9323
7.488,0.1523
7.489,-0.1517
7.49,-0.6124
7.491,-0.8636
7.492,-1.0918
7.493,-1.2994
7.494,-1.3622
7.495,-1.4193
7.496,-1.3673
7.497,-1.332
7.498,-1.3792
7.499,-1.2505
7.5,-1.0553
7.501,-0.9487
7.502,-0.9165
7.503,-1.0044
7.504,-0.9779
7.505,-0.9052
7.506,-0.7951
7.507,-0.695
7.508,-0.6404
7.509,-0.5576
7.51,-0.5126
7.511,-0.417
7.512,-0.3548
7.513,-0.3211
7.514,-0.2493
7.515,-0.2026
7.516,-0.1434
7.517,-0.105
7.518,-0.0561
7.519,-0.0244
7.52,0.0159
7.521,0.0631
7.522,0.1204
7.523,0.1435
7.524,0.1644
7.525,0.1581
7.526,0.1753
7.527,0.1387
7.528,0.1149
7.529,0.0933
7.53,0.105
7.531,0.1228
7.532,0.1259
7.533,0.1466
7.534,0.1653
7.535,0.1433
7.536,0.1462
7.537,0.1649
7.538,0.1528
7.539,0.1594
7.54,0.1896
7.541,0.2024
7.542,0.1986
7.543,0.2164
7.544,0.2068
7.545,0.2513
7.546,0.283
7.547,0.335
7.548,0.2046
7.549,0.1275
7.55,0.0763
7.551,0.1603
7.552,0.2167
7.553,0.2065
7.554,0.1971
7.555,0.1719
7.556,0.2874
7.557,0.3039
7.558,0.0781
7.559,-0.0832
7.56,-0.1125
7.561,-0.1391
7.562,-0.1632
7.563,-0.1852
7.564,-0.1652
7.565,-0.1834
7.566,-0.1669
7.567,-0.1218
7.568,-0.081
7.569,-0.0686
7.57,-0.0349
7.571,-0.0041
7.572,-0.0321
7.573,-0.0405
7.574,-0.0329
7.575,-0.012
7.576,0.0197
7.577,0.0254
7.578,0.0202
7.579,0.006
7.58,0.0102
7.581,0.0693
7.582,0.0441
7.583,0.021
7.584,0.0419
7.585,0.0356
7.586,0.0413
7.587,0.0362
7.588,0.0314
7.589,0.0186
7.59,0.0224
7.591,-0.0025
7.592,-0.025
7.593,-0.0457
7.594,-0.0643
7.595,-0.0715
7.596,-0.0914
7.597,-0.0889
7.598,-0.096
7.599,-0.0905
7.6,-0.0706
7.601,-0.0784
7.602,-0.042
7.603,0.0367
7.604,0.1609
7.605,0.0781
7.606,-0.0874
7.607,-0.0654
7.608,-0.0854
7.609,-0.0673
7.61,-0.0838
7.611,-0.0687
7.612,-0.0552
7.613,-0.0676
7.614,-0.0565
7.615,-0.0462
7.616,-0.0369
7.617,-0.0285
7.618,-0.0208
7.619,0.0001
7.62,-0.0061
7.621,0.0226
7.622,0.0278
7.623,0.0516
7.624,0.0558
7.625,0.1149
7.626,0.1402
7.627,0.0554
7.628,0.0217
7.629,-0.0091
7.63,0.0003
7.631,-0.0081
7.632,-0.0312
7.633,-0.0103
7.634,-0.0166
7.635,-0.0222
7.636,-0.0171
7.637,-0.0123
7.638,0.0093
7.639,0.0131
7.64,0.0166
7.641,-0.0059
7.642,0.0029
7.643,-0.0105
7.644,-0.0177
7.645,-0.0242
7.646,-0.0383
7.647,-0.0365
7.648,-0.0382
7.649,-0.0156
7.65,-0.0122
7.651,-0.0091
7.652,0.0058
7.653,0.0461
7.654,0.1327
7.655,0.2447
7.656,0.2297
7.657,0.0794
7.658,-0.101
7.659,-0.1251
7.66,-0.1471
7.661,-0.1671
7.662,-0.1489
7.663,-0.1654
7.664,-0.1504
7.665,-0.1369
7.666,-0.1244
7.667,-0.0907
7.668,-0.0805
7.669,-0.0711
7.67,-0.0288
7.671,-0.0211
7.672,-0.0142
7.673,0.0047
7.674,0.0104
7.675,0.0365
7.676,0.1081
7.677,0.0157
7.678,-0.0217
7.679,-0.0554
7.68,-0.0451
7.681,-0.0358
7.682,-0.0442
7.683,-0.0365
7.684,-0.0156
7.685,-0.0219
7.686,0.0069
7.687,0.0331
7.688,0.0378
7.689,0.0336
7.69,0.0532
7.691,0.0354
7.692,0.0129
7.693,0.0217
7.694,0.0138
7.695,-0.0129
7.696,-0.0378
7.697,-0.0217
7.698,-0.0129
7.699,-0.0263
7.7,-0.0383
7.701,-0.0451
7.702,-0.0385
7.703,-0.0244
7.704,0.003
7.705,0.0622
7.706,0.1893
7.707,0.0254
7.708,-0.0405
7.709,-0.0605
7.71,-0.1151
7.711,-0.0986
7.712,-0.1136
7.713,-0.1272
7.714,-0.1147
7.715,-0.1259
7.716,-0.0951
7.717,-0.0858
7.718,-0.0942
7.719,-0.0865
7.72,-0.0656
7.721,-0.034
7.722,-0.0167
7.723,0.0305
7.724,0.0748
7.725,0.0691
7.726,0.0953
7.727,0.0906
7.728,0.0863
7.729,0.0825
7.73,0.079
7.731,0.0759
7.732,0.0492
7.733,0.0527
7.734,0.0365
7.735,0.0572
7.736,0.0386
7.737,0.0314
7.738,0.0336
7.739,0.0316
7.74,0.0298
7.741,0.0049
7.742,0.0014
7.743,-0.0147
7.744,-0.0415
7.745,-0.0521
7.746,-0.0682
7.747,-0.0534
7.748,-0.0667
7.749,-0.0448
7.75,-0.0241
7.751,-0.0427
7.752,-0.0415
7.753,-0.0391
7.754,-0.0281
7.755,0.0021
7.756,0.0671
7.757,0.1325
7.758,0.1072
7.759,0.0071
7.76,-0.1433
7.761,-0.1632
7.762,-0.1814
7.763,-0.1978
7.764,-0.1828
7.765,-0.1964
7.766,-0.159
7.767,-0.1478
7.768,-0.1376
7.769,-0.0722
7.77,-0.047
7.771,-0.0393
7.772,-0.0323
7.773,-0.0134
7.774,0.0038
7.775,-0.0224
7.776,-0.0081
7.777,-0.0297
7.778,-0.018
7.779,-0.0145
7.78,-0.0177
7.781,-0.0028
7.782,0.0105
7.783,0.0177
7.784,0.0243
7.785,0.0263
7.786,0.0318
7.787,0.0567
7.788,0.0673
7.789,0.0578
7.79,0.0607
7.791,0.0528
7.792,0.0408
7.793,0.0076
7.794,-0.0257
7.795,-0.0215
7.796,0.014
7.797,0.0473
7.798,0.0257
7.799,0.0061
7.8,0.0239
7.801,0.0144
7.802,0.0173
7.803,0.0179
7.804,0.0473
7.805,0.0669
7.806,0.1206
7.807,0.2361
7.808,0.2196
7.809,0.0239
7.81,-0.1094
7.811,-0.1336
7.812,-0.1555
7.813,-0.1356
7.814,-0.1174
7.815,-0.1339
7.816,-0.1189
7.817,-0.0781
7.818,-0.0656
7.819,-0.0545
7.82,-0.0647
7.821,-0.0367
7.822,-0.0114
7.823,-0.0037
7.824,0.0171
7.825,-0.0017
7.826,-0.0074
7.827,-0.0023
7.828,-0.007
7.829,-0.0199
7.83,-0.016
7.831,-0.0125
7.832,-0.0418
7.833,-0.0222
7.834,0.0027
7.835,0.0122
7.836,0.0329
7.837,0.0571
7.838,0.0666
7.839,0.0636
7.84,0.0823
7.841,0.0506
7.842,0.0549
7.843,0.051
7.844,0.0261
7.845,0.01
7.846,0.0071
7.847,-0.0224
7.848,-0.0341
7.849,-0.0307
7.85,-0.0211
7.851,-0.036
7.852,-0.0334
7.853,-0.0213
7.854,-0.0107
7.855,-0.0129
7.856,-0.031
7.857,0.0054
7.858,0.0842
7.859,0.0953
7.86,0.0851
7.861,-0.0363
7.862,-0.1854
7.863,-0.2053
7.864,-0.1872
7.865,-0.1707
7.866,-0.1557
7.867,-0.1149
7.868,-0.1024
7.869,-0.0913
7.87,-0.0605
7.871,-0.0325
7.872,-0.0409
7.873,-0.0178
7.874,-0.0109
7.875,-0.0297
7.876,-0.0354
7.877,-0.051
7.878,-0.0557
7.879,-0.0515
7.88,-0.0477
7.881,-0.0442
7.882,-0.0411
7.883,-0.0204
7.884,-0.0283
7.885,-0.0307
7.886,-0.0285
7.887,-0.0063
7.888,0.0144
7.889,0.0118
7.89,0.0338
7.891,0.025
7.892,0.0171
7.893,0.0003
7.894,-0.0329
7.895,-0.0281
7.896,-0.0323
7.897,-0.0206
7.898,-0.0312
7.899,-0.0281
7.9,-0.0074
7.901,0.006
7.902,0.0131
7.903,0.0285
7.904,0.0506
7.905,0.0611
7.906,0.0523
7.907,0.0765
7.908,0.1252
7.909,0.2303
7.91,0.155
7.911,-0.0228
7.912,-0.0955
7.913,-0.1174
7.914,-0.0975
7.915,-0.0794
7.916,-0.0958
7.917,-0.0508
7.918,-0.0643
7.919,-0.027
7.92,-0.0158
7.921,0.056
7.922,0.14
7.923,0.0159
7.924,-0.0006
7.925,-0.0156
7.926,-0.0292
7.927,-0.0665
7.928,-0.0554
7.929,-0.0656
7.93,-0.0936
7.931,-0.1189
7.932,-0.1112
7.933,-0.0623
7.934,-0.0435
7.935,-0.0263
7.936,-0.0107
7.937,-0.0059
7.938,0.0069
7.939,0.0107
7.94,0.043
7.941,0.0301
7.942,0.0263
7.943,0.0157
7.944,0.0126
7.945,0.0213
7.946,0.008
7.947,0.0056
7.948,-0.001
7.949,-0.0111
7.95,0.0054
7.951,0.012
7.952,0.014
7.953,0.0305
7.954,0.0415
7.955,0.0475
7.956,0.0501
7.957,0.0739
7.958,0.0578
7.959,0.1023
7.96,0.1722
7.961,0.1442
7.962,0.034
7.963,-0.1015
7.964,-0.0834
7.965,-0.0999
7.966,-0.0246
7.967,-0.0111
7.968,-0.0235
7.969,-0.0123
7.97,-0.0226
7.971,-0.0133
7.972,-0.0217
7.973,-0.0294
7.974,-0.0224
7.975,-0.0541
7.976,-0.0713
7.977,-0.0764
7.978,-0.0907
7.979,-0.0779
7.98,-0.0741
7.981,-0.0634
7.982,-0.0603
7.983,-0.0336
7.984,-0.0371
7.985,-0.034
7.986,-0.0191
7.987,-0.0058
7.988,0.0063
7.989,-0.0047
7.99,-0.0026
7.991,-0.0118
7.992,-0.02
7.993,-0.0336
7.994,-0.0354
7.995,-0.0305
7.996,-0.029
7.997,-0.025
7.998,-0.0239
7.999,-0.0206
8,-0.0136
8.001,-0.02
8.002,-0.0144
8.003,-0.0197
8.004,-0.0094
8.005,0.0071
8.006,-0.0039
8.007,-0.0085
8.008,-0.0186
8.009,-0.0094
8.01,0.0155
8.011,0.0691
8.012,0.1385
8.013,0.0358
8.014,-0.0872
8.015,-0.1037
8.016,-0.0887
8.017,-0.0752
8.018,-0.0876
8.019,-0.0764
8.02,-0.0662
8.021,-0.0382
8.022,-0.0297
8.023,-0.0221
8.024,-0.0151
8.025,-0.0213
8.026,-0.0156
8.027,-0.0312
8.028,-0.036
8.029,-0.0402
8.03,-0.0206
8.031,-0.01
8.032,-0.0131
8.033,-0.016
8.034,-0.0563
8.035,-0.0506
8.036,-0.0455
8.037,0.0071
8.038,0.0279
8.039,0.0342
8.04,0.0398
8.041,0.0347
8.042,0.03
8.043,-0.0091
8.044,-0.0142
8.045,-0.0189
8.046,-0.0147
8.047,-0.0109
8.048,-0.0144
8.049,-0.0112
8.05,-0.0083
8.051,-0.0109
8.052,-0.0133
8.053,-0.0111
8.054,0.003
8.055,0.0049
8.056,0.0232
8.057,0.0499
8.058,0.0245
8.059,0.0279
8.06,-0.0014
8.061,0.0578
8.062,0.151
8.063,0.1136
8.064,-0.0105
8.065,-0.0601
8.066,-0.0752
8.067,-0.0616
8.068,-0.0492
8.069,-0.038
8.07,-0.0277
8.071,0.0003
8.072,-0.0081
8.073,-0.0004
8.074,-0.0074
8.075,-0.0136
8.076,-0.0308
8.077,-0.036
8.078,-0.0312
8.079,-0.027
8.08,0.0005
8.081,0.0111
8.082,0.0142
8.083,0.029
8.084,0.0369
8.085,0.0345
8.086,0.0279
8.087,-0.0023
8.088,-0.0065
8.089,-0.0499
8.09,-0.0327
8.091,-0.0378
8.092,-0.0521
8.093,-0.0649
8.094,-0.0766
8.095,-0.0801
8.096,-0.0832
8.097,-0.0803
8.098,-0.0724
8.099,-0.036
8.1,-0.0098
8.101,-0.0528
8.102,-0.0585
8.103,-0.0741
8.104,-0.1074
8.105,-0.0424
8.106,0.023
8.107,0.0146
8.108,0.0069
8.109,0.034
8.11,0.0131
8.111,0.0193
8.112,0.1059
8.113,0.1433
8.114,0.177
8.115,0.1667
8.116,0.0827
8.117,-0.0415
8.118,-0.0579
8.119,-0.0429
8.12,-0.0565
8.121,-0.044
8.122,-0.0103
8.123,0.0204
8.124,0.0671
8.125,0.0587
8.126,0.0356
8.127,0.0148
8.128,-0.0041
8.129,-0.0213
8.13,0.0049
8.131,-0.0094
8.132,-0.0222
8.133,-0.0026
8.134,0.0008
8.135,-0.0023
8.136,0.0007
8.137,0.0085
8.138,0.045
8.139,0.0605
8.14,0.0462
8.141,0.0072
8.142,-0.0294
8.143,-0.0627
8.144,-0.0843
8.145,-0.0882
8.146,-0.0847
8.147,-0.0686
8.148,-0.0773
8.149,-0.1015
8.15,-0.1046
8.151,-0.1134
8.152,-0.1537
8.153,-0.2172
8.154,-0.2088
8.155,-0.2011
8.156,-0.1522
8.157,-0.1206
8.158,-0.1033
8.159,-0.0772
8.16,-0.0642
8.161,-0.0499
8.162,-0.0457
8.163,-0.034
8.164,-0.0091
8.165,0.0202
8.166,0.0398
8.167,0.0935
8.168,0.1783
8.169,0.0541
8.17,0.0376
8.171,0.1731
8.172,0.1913
8.173,0.2409
8.174,0.1356
8.175,-0.0422
8.176,-0.0664
8.177,-0.0883
8.178,-0.0684
8.179,-0.0865
8.18,-0.07
8.181,-0.025
8.182,-0.0385
8.183,-0.0012
8.184,-0.0123
8.185,-0.0021
8.186,-0.0114
8.187,-0.003
8.188,0.0047
8.189,-0.0023
8.19,0.0039
8.191,-0.0017
8.192,-0.0069
8.193,-0.0211
8.194,-0.0169
8.195,-0.0131
8.196,-0.0237
8.197,-0.0462
8.198,-0.0314
8.199,-0.0235
8.2,-0.0455
8.201,-0.09
8.202,-0.0838
8.203,-0.0318
8.204,0.0032
8.205,0.0221
8.206,0.0508
8.207,0.0981
8.208,0.1169
8.209,0.1341
8.21,0.129
8.211,0.1123
8.212,0.079
8.213,0.0832
8.214,0.1424
8.215,0.1508
8.216,0.1123
8.217,0.0072
8.218,-0.2185
8.219,-0.7027
8.22,-1.1872
8.221,-0.8728
8.222,-0.4727
8.223,-0.2127
8.224,-0.0709
8.225,0.1438
8.226,0.2608
8.227,0.3674
8.228,0.4641
8.229,0.4934
8.23,0.5199
8.231,0.5441
8.232,0.5661
8.233,0.586
8.234,0.5679
8.235,0.5844
8.236,0.5394
8.237,0.5258
8.238,0.4884
8.239,0.4321
8.24,0.3808
8.241,0.3341
8.242,0.2749
8.243,0.2519
8.244,0.203
8.245,0.1713
8.246,0.131
8.247,0.1048
8.248,0.0906
8.249,0.069
8.25,0.0494
8.251,0.0245
8.252,0.0149
8.253,0.0001
8.254,0.0188
8.255,-0.0032
8.256,-0.0239
8.257,-0.0264
8.258,-0.0288
8.259,-0.0354
8.26,-0.0576
8.261,-0.0724
8.262,-0.0752
8.263,-0.0726
8.264,-0.0506
8.265,-0.0061
8.266,0.0638
8.267,0.1105
8.268,0.0342
8.269,-0.0993
8.27,-0.1903
8.271,-0.2068
8.272,-0.1918
8.273,-0.1782
8.274,-0.1658
8.275,-0.1995
8.276,-0.1892
8.277,-0.1799
8.278,-0.1883
8.279,-0.2268
8.28,-0.1918
8.281,-0.1601
8.282,-0.1081
8.283,-0.0731
8.284,-0.0669
8.285,-0.0382
8.286,-0.0433
8.287,-0.0385
8.288,-0.0169
8.289,0.0422
8.29,0.1693
8.291,0.4425
8.292,0.5595
8.293,0.595
8.294,0.5628
8.295,0.5335
8.296,0.4002
8.297,0.3275
8.298,0.1735
8.299,0.1134
8.3,0.0224
8.301,-0.0603
8.302,-0.1356
8.303,-0.1764
8.304,-0.2387
8.305,-0.2951
8.306,-0.2848
8.307,-0.2755
8.308,-0.3007
8.309,-0.3238
8.31,-0.3447
8.311,-0.3509
8.312,-0.3337
8.313,-0.3132
8.314,-0.3081
8.315,-0.2843
8.316,-0.2193
8.317,-0.0792
8.318,-0.0191
8.319,-0.1101
8.32,-0.226
8.321,-0.211
8.322,-0.1975
8.323,-0.185
8.324,-0.1286
8.325,-0.1389
8.326,-0.1295
8.327,-0.138
8.328,-0.1456
8.329,-0.1248
8.33,-0.0548
8.331,-0.0455
8.332,-0.0539
8.333,-0.0308
8.334,-0.0378
8.335,-0.0316
8.336,-0.0144
8.337,-0.0299
8.338,-0.0156
8.339,-0.0028
8.34,0.001
8.341,0.0116
8.342,0.0085
8.343,0.0115
8.344,0.014
8.345,0.0164
8.346,0.001
8.347,0.0272
8.348,0.0094
8.349,-0.0131
8.35,0.0018
8.351,0.0043
8.352,0.0164
8.353,0.0186
8.354,0.0287
8.355,0.0305
8.356,0.0289
8.357,0.0364
8.358,0.0159
8.359,-0.0048
8.36,-0.0235
8.361,-0.0259
8.362,-0.0237
8.363,-0.0096
8.364,0.001
8.365,-0.0045
8.366,0.0204
8.367,0.0741
8.368,0.1742
8.369,0.1334
8.37,0.1708
8.371,0.1144
8.372,-0.0191
8.373,-0.1101
8.374,-0.0605
8.375,-0.0455
8.376,-0.059
8.377,-0.0715
8.378,-0.0603
8.379,-0.0501
8.38,-0.0407
8.381,-0.0155
8.382,-0.0078
8.383,0.0131
8.384,0.0448
8.385,0.062
8.386,0.0671
8.387,0.0624
8.388,0.0495
8.389,0.014
8.39,0.0093
8.391,-0.021
8.392,-0.0248
8.393,-0.0426
8.394,-0.0394
8.395,-0.0365
8.396,-0.0391
8.397,-0.0319
8.398,-0.0253
8.399,-0.0193
8.4,-0.0028
8.401,-0.0094
8.402,0.0007
8.403,0.0061
8.404,0.0111
8.405,0.0096
8.406,0.0109
8.407,0.0294
8.408,-0.0001
8.409,-0.0118
8.41,-0.0083
8.411,-0.0244
8.412,-0.0215
8.413,0.0188
8.414,0.0823
8.415,-0.0092
8.416,-0.0008
8.417,-0.0085
8.418,-0.0015
8.419,0.0939
8.42,0.1622
8.421,0.1746
8.422,0.1634
8.423,0.03
8.424,-0.1339
8.425,-0.1559
8.426,-0.1759
8.427,-0.1213
8.428,-0.1378
8.429,-0.1228
8.43,-0.1092
8.431,-0.0968
8.432,-0.0631
8.433,-0.0528
8.434,-0.0435
8.435,-0.0351
8.436,-0.0274
8.437,-0.0343
8.438,-0.0281
8.439,0.0007
8.44,-0.0255
8.441,-0.0303
8.442,-0.0261
8.443,-0.0378
8.444,-0.0484
8.445,-0.0579
8.446,-0.055
8.447,-0.0416
8.448,-0.0248
8.449,-0.0182
8.45,-0.0283
8.451,-0.0191
8.452,-0.0142
8.453,-0.0037
8.454,-0.005
8.455,0.0085
8.456,0.036
8.457,0.0243
8.458,0.0208
8.459,0.0177
8.46,0.0148
8.461,0.0069
8.462,0.014
8.463,0.0118
8.464,0.0018
8.465,-0.0001
8.466,0.0054
8.467,-0.0061
8.468,0.0043
8.469,0.0248
8.47,0.0693
8.471,0.1647
8.472,0.1783
8.473,0.0413
8.474,-0.1226
8.475,-0.1445
8.476,-0.1246
8.477,-0.1065
8.478,-0.1229
8.479,-0.1079
8.48,-0.0944
8.481,-0.0819
8.482,-0.0708
8.483,-0.0605
8.484,-0.0512
8.485,-0.0427
8.486,-0.0043
8.487,-0.0112
8.488,-0.005
8.489,0.0122
8.49,-0.014
8.491,-0.0188
8.492,-0.049
8.493,-0.0686
8.494,-0.072
8.495,-0.0625
8.496,-0.0477
8.497,-0.0235
8.498,-0.001
8.499,0.0019
8.5,-0.0222
8.501,-0.0709
8.502,-0.1059
8.503,-0.0871
8.504,-0.0583
8.505,-0.0532
8.506,-0.0101
8.507,-0.0045
8.508,0.0111
8.509,-0.0032
8.51,-0.016
8.511,-0.0043
8.512,0.0063
8.513,0.0094
8.514,0.0007
8.515,0.0193
8.516,0.0362
8.517,0.0376
8.518,0.0442
8.519,0.0462
8.52,0.0737
8.521,0.1329
8.522,0.2431
8.523,0.1076
8.524,-0.0199
8.525,-0.0695
8.526,-0.0845
8.527,-0.0709
8.528,-0.0834
8.529,-0.0497
8.53,-0.0394
8.531,-0.0301
8.532,-0.0048
8.533,0.0029
8.534,-0.0041
8.535,0.0021
8.536,0.0078
8.537,0.0027
8.538,0.0074
8.539,0.0116
8.54,0.0155
8.541,0.0261
8.542,0.0292
8.543,0.0085
8.544,-0.0101
8.545,-0.0466
8.546,-0.0517
8.547,-0.066
8.548,-0.0532
8.549,-0.0177
8.55,-0.0034
8.551,-0.025
8.552,0.0025
8.553,0.0561
8.554,0.0484
8.555,0.0135
8.556,0.0197
8.557,-0.0206
8.558,-0.0572
8.559,-0.1193
8.56,-0.1277
8.561,-0.1354
8.562,-0.1424
8.563,-0.1361
8.564,-0.1418
8.565,-0.1156
8.566,-0.0918
8.567,-0.0876
8.568,-0.062
8.569,-0.0424
8.57,-0.0175
8.571,0.0312
8.572,0.1363
8.573,0.1213
8.574,0.053
8.575,0.0904
8.576,0.0792
8.577,-0.0338
8.578,-0.1391
8.579,-0.1255
8.58,-0.1131
8.581,-0.1242
8.582,-0.0935
8.583,-0.0841
8.584,-0.0589
8.585,-0.0204
8.586,0.0005
8.587,0.0193
8.588,0.0481
8.589,0.0636
8.59,0.0206
8.591,0.0034
8.592,-0.0017
8.593,-0.016
8.594,-0.0032
8.595,0.0323
8.596,0.0561
8.597,0.069
8.598,0.0885
8.599,0.1208
8.6,0.1166
8.601,0.1127
8.602,0.1021
8.603,0.1116
8.604,0.1087
8.605,0.0953
8.606,0.0977
8.607,0.0823
8.608,0.0521
8.609,0.0219
8.61,0.018
8.611,0.0074
8.612,0.0105
8.613,-0.0043
8.614,-0.0122
8.615,-0.0145
8.616,-0.0167
8.617,-0.0228
8.618,-0.0356
8.619,-0.029
8.62,-0.0241
8.621,-0.0045
8.622,0.0358
8.623,0.1224
8.624,0.1598
8.625,0.0129
8.626,-0.1674
8.627,-0.1916
8.628,-0.1696
8.629,-0.1896
8.63,-0.135
8.631,-0.1515
8.632,-0.1065
8.633,-0.12
8.634,-0.1076
8.635,-0.0964
8.636,-0.1066
8.637,-0.0973
8.638,-0.0889
8.639,-0.0812
8.64,-0.0882
8.641,-0.0819
8.642,-0.0991
8.643,-0.1043
8.644,-0.0805
8.645,-0.0763
8.646,-0.0724
8.647,-0.0618
8.648,-0.0587
8.649,-0.038
8.65,-0.0301
8.651,-0.0081
8.652,0.0007
8.653,0.0301
8.654,0.0497
8.655,0.0532
8.656,0.0501
8.657,0.053
8.658,0.0933
8.659,0.053
8.66,-0.0153
8.661,-0.0246
8.662,-0.0162
8.663,0.0223
8.664,0.0014
8.665,-0.0048
8.666,-0.0105
8.667,-0.0261
8.668,-0.0118
8.669,0.0098
8.67,0.0442
8.671,0.0638
8.672,0.0744
8.673,0.1232
8.674,0.172
8.675,0.242
8.676,0.1019
8.677,-0.0784
8.678,-0.1511
8.679,-0.1292
8.68,-0.1491
8.681,-0.131
8.682,-0.1145
8.683,-0.0995
8.684,-0.086
8.685,-0.0735
8.686,-0.0847
8.687,-0.0744
8.688,-0.0651
8.689,-0.0228
8.69,0.0003
8.691,0.0212
8.692,0.0149
8.693,-0.0023
8.694,0.0029
8.695,0.0076
8.696,0.0378
8.697,0.0653
8.698,0.0831
8.699,0.0926
8.7,0.0481
8.701,0.0164
8.702,0.0221
8.703,0.0065
8.704,0.0113
8.705,0.0071
8.706,-0.0047
8.707,-0.0369
8.708,-0.0327
8.709,-0.0052
8.71,-0.0158
8.711,-0.0189
8.712,-0.0515
8.713,-0.0473
8.714,-0.0435
8.715,-0.047
8.716,-0.0501
8.717,-0.0471
8.718,-0.0338
8.719,-0.0217
8.72,-0.0107
8.721,-0.0092
8.722,0.021
8.723,0.0168
8.724,0.0759
8.725,0.203
8.726,0.1849
8.727,0.0358
8.728,-0.1445
8.729,-0.1204
8.73,-0.1424
8.731,-0.1224
8.732,-0.1043
8.733,-0.0878
8.734,-0.0728
8.735,-0.0592
8.736,-0.0468
8.737,-0.0131
8.738,-0.0028
8.739,0.0065
8.74,-0.0019
8.741,-0.0096
8.742,-0.0166
8.743,-0.0103
8.744,-0.016
8.745,-0.0211
8.746,-0.0069
8.747,-0.0197
8.748,-0.008
8.749,0.0027
8.75,-0.0134
8.751,-0.0222
8.752,-0.0248
8.753,-0.008
8.754,-0.0101
8.755,-0.0162
8.756,-0.0034
8.757,-0.0149
8.758,-0.0074
8.759,-0.0169
8.76,-0.0158
8.761,-0.0329
8.762,-0.0352
8.763,-0.033
8.764,-0.0431
8.765,-0.0193
8.766,-0.0032
8.767,0.0354
8.768,0.0406
8.769,0.0358
8.77,0.0486
8.771,0.0369
8.772,0.0354
8.773,0.0389
8.774,0.0294
8.775,0.0739
8.776,0.0928
8.777,0.1563
8.778,0.0461
8.779,-0.1195
8.78,-0.1414
8.781,-0.1614
8.782,-0.1433
8.783,-0.1268
8.784,-0.1118
8.785,-0.0982
8.786,-0.0858
8.787,-0.0746
8.788,-0.0438
8.789,-0.0345
8.79,-0.0261
8.791,-0.0184
8.792,-0.0253
8.793,-0.0065
8.794,-0.0122
8.795,0.0034
8.796,-0.0109
8.797,-0.0067
8.798,-0.0658
8.799,-0.0742
8.8,-0.0665
8.801,-0.0596
8.802,-0.0534
8.803,-0.0246
8.804,-0.0195
8.805,-0.0242
8.806,-0.0114
8.807,-0.0153
8.808,-0.0188
8.809,-0.0156
8.81,-0.0127
8.811,-0.0206
8.812,-0.0037
8.813,-0.0103
8.814,-0.0123
8.815,0.0005
8.816,-0.0045
8.817,-0.0001
8.818,-0.0041
8.819,0.0071
8.82,0.0296
8.821,0.0327
8.822,0.0356
8.823,0.0545
8.824,0.0519
8.825,0.064
8.826,0.0972
8.827,0.1687
8.828,0.138
8.829,0.1286
8.83,0.1034
8.831,0.1264
8.832,0.0213
8.833,-0.1744
8.834,-0.2009
8.835,-0.1768
8.836,-0.1109
8.837,-0.0909
8.838,-0.0728
8.839,-0.0893
8.84,-0.0742
8.841,-0.0607
8.842,-0.0731
8.843,-0.062
8.844,-0.0517
8.845,-0.0984
8.846,-0.1068
8.847,-0.0684
8.848,-0.0195
8.849,0.0248
8.85,0.0305
8.851,0.0567
8.852,0.071
8.853,0.0752
8.854,0.0713
8.855,0.0536
8.856,0.0631
8.857,0.0424
8.858,0.0237
8.859,0.0116
8.86,0.0138
8.861,0.0118
8.862,-0.0156
8.863,-0.0352
8.864,-0.053
8.865,-0.0305
8.866,-0.0098
8.867,-0.0072
8.868,-0.0144
8.869,-0.0122
8.87,-0.0424
8.871,-0.1074
8.872,-0.2475
8.873,-0.1874
8.874,-0.1198
8.875,-0.0653
8.876,-0.0156
8.877,0.1499
