0,0.0019
0.001,0.002
0.002,0.005
0.003,0.0112
0.004,0.0251
0.005,0.0553
0.006,0.0251
0.007,-0.034
0.008,-0.0424
0.009,-0.0348
0.01,-0.0278
0.011,-0.034
0.012,-0.0283
0.013,-0.0232
0.014,-0.0185
0.015,-0.0143
0.016,-0.0181
0.017,-0.0146
0.018,-0.0115
0.019,-0.0086
0.02,-0.006
0.021,-0.0036
0.022,-0.0058
0.023,-0.0038
0.024,-0.002
0.025,-0.0003
0.026,-0.0018
0.027,-0.0005
0.028,-0.0016
0.029,-0.0005
0.03,0.0004
0.031,-0.0005
0.032,-0.0012
0.033,-0.002
0.034,-0.0014
0.035,0.0004
0.036,-0.0002
0.037,-0.0005
0.038,0.0008
0.039,-0.0012
0.04,-0.0002
0.041,-0.0012
0.042,0.0002
0.043,-0.0011
0.044,0.0013
0.045,-0.0002
0.046,0.0006
0.047,-0.0018
0.048,-0.0003
0.049,-0.0011
0.05,-0.0003
0.051,0.0011
0.052,0.0006
0.053,0.0039
0.054,0.0108
0.055,0.026
0.056,0.0592
0.057,0.0544
0.058,-0.0106
0.059,-0.0386
0.06,-0.047
0.061,-0.0393
0.062,-0.0324
0.063,-0.0262
0.064,-0.0318
0.065,-0.0267
0.066,-0.0219
0.067,-0.0177
0.068,-0.0139
0.069,-0.0104
0.07,-0.0135
0.071,-0.0106
0.072,-0.008
0.073,-0.0056
0.074,-0.0034
0.075,-0.0055
0.076,-0.0036
0.077,-0.002
0.078,-0.0005
0.079,-0.0018
0.08,-0.0007
0.081,-0.0018
0.082,-0.0009
0.083,0
0.084,-0.0007
0.085,0
0.086,0.0006
0.087,0.0011
0.088,0.0006
0.089,0.0002
0.09,0.0006
0.091,0.0002
0.092,-0.0002
0.093,-0.0012
0.094,0.0002
0.095,0.0004
0.096,-0.0003
0.097,-0.0009
0.098,-0.0011
0.099,-0.002
0.1,-0.0018
0.101,-0.0011
0.102,0.0004
0.103,0.0004
0.104,0.0011
0.105,-0.0003
0.106,0.0002
0.107,-0.0012
0.108,-0.0011
0.109,0.0017
0.11,0.0074
0.111,-0.0051
0.112,-0.0179
0.113,0.007
0.114,0.0606
0.115,0.0376
0.116,0.0445
0.117,0.0383
0.118,0.0326
0.119,0.0378
0.12,0.0616
0.121,0.0052
0.122,-0.0796
0.123,-0.0684
0.124,-0.0787
0.125,-0.0507
0.126,-0.0591
0.127,-0.036
0.128,-0.043
0.129,-0.0241
0.13,-0.0298
0.131,-0.0247
0.132,-0.0199
0.133,-0.0157
0.134,-0.0119
0.135,-0.0084
0.136,-0.0053
0.137,-0.0082
0.138,-0.0056
0.139,-0.0033
0.14,-0.0011
0.141,0.0009
0.142,-0.0009
0.143,0.0008
0.144,-0.0007
0.145,0.0033
0.146,0.0022
0.147,0.0011
0.148,0.002
0.149,0.0011
0.15,0.0019
0.151,0.0011
0.152,0.0017
0.153,0.0041
0.154,0.0035
0.155,0.0119
0.156,0.0304
0.157,0.0707
0.158,0.111
0.159,0.0427
0.16,-0.0413
0.161,-0.0525
0.162,-0.0423
0.163,-0.0329
0.164,-0.0245
0.165,-0.0322
0.166,-0.0252
0.167,-0.019
0.168,-0.0133
0.169,-0.0185
0.17,-0.0137
0.171,-0.0095
0.172,-0.0133
0.173,-0.0099
0.174,-0.0067
0.175,-0.0038
0.176,-0.0064
0.177,-0.004
0.178,-0.0018
0.179,0.0002
0.18,-0.0016
0.181,-0.0033
0.182,-0.0018
0.183,-0.0005
0.184,0.0006
0.185,0.0017
0.186,0.0008
0.187,0.0017
0.188,0.0009
0.189,0.0017
0.19,0.0022
0.191,0.0017
0.192,0
0.193,0.0013
0.194,0.0009
0.195,0.002
0.196,0.0002
0.197,0.0006
0.198,-0.0002
0.199,0.0006
0.2,-0.0002
0.201,0.0004
0.202,0.0006
0.203,-0.0012
0.204,0.0033
0.205,-0.0002
0.206,0.0074
0.207,0.0244
0.208,0.0608
0.209,0.087
0.21,0.0918
0.211,0.0268
0.212,-0.0573
0.213,-0.0461
0.214,-0.0359
0.215,-0.0265
0.216,-0.0349
0.217,-0.0273
0.218,-0.0203
0.219,-0.0014
0.22,0.0042
0.221,-0.0009
0.222,0.0039
0.223,0.0081
0.224,0.0042
0.225,0.0077
0.226,0.0046
0.227,0.0075
0.228,0.0101
0.229,0.0125
0.23,0.0103
0.231,0.0123
0.232,0.0105
0.233,0.0088
0.234,0.0074
0.235,0.0061
0.236,0.005
0.237,0.0017
0.238,0.0026
0.239,-0.002
0.24,-0.0027
0.241,-0.0034
0.242,-0.0053
0.243,-0.0058
0.244,-0.0075
0.245,-0.0078
0.246,-0.0066
0.247,-0.0062
0.248,-0.0051
0.249,-0.0062
0.25,-0.0069
0.251,-0.0077
0.252,-0.0084
0.253,-0.0078
0.254,-0.0077
0.255,-0.0069
0.256,-0.0067
0.257,-0.004
0.258,0.0017
0.259,0.0141
0.26,0.0416
0.261,0.1007
0.262,-0.0263
0.263,-0.2995
0.264,-0.8853
0.265,-1.8067
0.266,-1.6842
0.267,-1.35
0.268,-1.2487
0.269,-1.1566
0.27,-0.9054
0.271,-0.8294
0.272,-0.7602
0.273,-0.5716
0.274,-0.5145
0.275,-0.4625
0.276,-0.3208
0.277,-0.2779
0.278,-0.2389
0.279,-0.2034
0.28,-0.1067
0.281,-0.0774
0.282,-0.0509
0.283,-0.0267
0.284,-0.0047
0.285,0.0152
0.286,0.0334
0.287,0.0498
0.288,0.0348
0.289,0.0484
0.29,0.0608
0.291,0.072
0.292,0.0822
0.293,0.0729
0.294,0.0813
0.295,0.089
0.296,0.0821
0.297,0.0883
0.298,0.0826
0.299,0.0877
0.3,0.083
0.301,0.0872
0.302,0.0833
0.303,0.0799
0.304,0.0768
0.305,0.0738
0.306,0.0744
0.307,0.0718
0.308,0.0887
0.309,0.1218
0.31,0.1934
0.311,0.3474
0.312,0.0171
0.313,-0.6921
0.314,-1.6042
0.315,-1.2365
0.316,-1.1252
0.317,-1.0239
0.318,-0.9318
0.319,-0.6806
0.32,-0.6046
0.321,-0.5354
0.322,-0.4726
0.323,-0.4154
0.324,-0.3634
0.325,-0.2217
0.326,-0.1789
0.327,-0.1399
0.328,-0.1043
0.329,-0.0721
0.33,-0.0428
0.331,-0.0694
0.332,-0.0452
0.333,-0.0232
0.334,-0.0033
0.335,0.0149
0.336,0.0313
0.337,0.0464
0.338,0.0328
0.339,0.0453
0.34,0.0564
0.341,0.0667
0.342,0.0573
0.343,0.0658
0.344,0.0735
0.345,0.0665
0.346,0.0603
0.347,0.066
0.348,0.0608
0.349,0.0656
0.35,0.0614
0.351,0.0575
0.352,0.061
0.353,0.0579
0.354,0.055
0.355,0.0952
0.356,0.1819
0.357,-0.1461
0.358,-0.1087
0.359,-0.0976
0.36,-0.0668
0.361,0.0733
0.362,0.3739
0.363,1.0185
0.364,1.8477
0.365,0.1758
0.366,-1.497
0.367,-1.2799
0.368,-1.0825
0.369,-0.903
0.37,-0.7399
0.371,-0.5916
0.372,-0.4568
0.373,-0.5793
0.374,-0.468
0.375,-0.3667
0.376,-0.2746
0.377,-0.1909
0.378,-0.2669
0.379,-0.1977
0.38,-0.1349
0.381,-0.0778
0.382,-0.0258
0.383,-0.073
0.384,-0.0302
0.385,0.0088
0.386,-0.0267
0.387,0.0055
0.388,0.0348
0.389,0.0083
0.39,0.0324
0.391,0.0544
0.392,0.0345
0.393,0.0526
0.394,0.0361
0.395,0.0511
0.396,0.0647
0.397,0.0522
0.398,0.0634
0.399,0.0531
0.4,0.0625
0.401,0.054
0.402,0.0464
0.403,0.0533
0.404,0.0471
0.405,0.0414
0.406,0.0465
0.407,0.0418
0.408,0.0429
0.409,0.0387
0.41,0.0583
0.411,0.1048
0.412,0.2002
0.413,0.4052
0.414,0.8452
0.415,-0.0983
0.416,-0.7727
0.417,-0.6502
0.418,-0.5388
0.419,-0.4376
0.42,-0.3455
0.421,-0.4292
0.422,-0.3532
0.423,-0.284
0.424,-0.2212
0.425,-0.164
0.426,-0.112
0.427,-0.1593
0.428,-0.1164
0.429,-0.0774
0.43,-0.0419
0.431,-0.0741
0.432,-0.0448
0.433,-0.0183
0.434,0.0059
0.435,-0.0161
0.436,0.0039
0.437,0.022
0.438,0.0055
0.439,0.0205
0.44,0.007
0.441,0.0194
0.442,0.0306
0.443,0.0204
0.444,0.0297
0.445,0.0213
0.446,0.029
0.447,0.0359
0.448,0.0297
0.449,0.024
0.45,0.0291
0.451,0.0244
0.452,0.0286
0.453,0.0248
0.454,0.0282
0.455,0.0251
0.456,0.028
0.457,0.0202
0.458,0.0226
0.459,0.0209
0.46,0.0187
0.461,0.0368
0.462,0.0733
0.463,0.0784
0.464,0.0832
0.465,0.1482
0.466,0.0081
0.467,-0.2124
0.468,-0.1831
0.469,-0.1565
0.47,-0.1324
0.471,-0.1104
0.472,-0.0904
0.473,-0.0723
0.474,-0.0888
0.475,-0.0738
0.476,-0.0602
0.477,-0.0478
0.478,-0.0366
0.479,-0.0263
0.48,-0.017
0.481,-0.0254
0.482,-0.0177
0.483,-0.0108
0.484,-0.0045
0.485,0.0011
0.486,-0.004
0.487,0.0008
0.488,0.005
0.489,0.0011
0.49,0.0046
0.491,0.0077
0.492,0.0107
0.493,0.0081
0.494,0.0105
0.495,0.0083
0.496,0.0103
0.497,0.0085
0.498,0.0101
0.499,0.0086
0.5,0.0074
0.501,0.0085
0.502,0.0074
0.503,0.0083
0.504,0.0074
0.505,0.0066
0.506,0.0059
0.507,0.0064
0.508,0.0059
0.509,0.0053
0.51,0.0063
0.511,0.005
0.512,0.0119
0.513,0.0271
0.514,0.0603
0.515,0.1319
0.516,-0.0221
0.517,-0.0441
0.518,-0.0641
0.519,-0.0459
0.52,-0.0294
0.521,-0.0445
0.522,-0.0309
0.523,-0.0185
0.524,-0.0296
0.525,-0.0194
0.526,-0.01
0.527,-0.0185
0.528,-0.0108
0.529,-0.0038
0.53,-0.01
0.531,-0.0044
0.532,0.0008
0.533,-0.004
0.534,0.0002
0.535,0.0041
0.536,0.0006
0.537,0.0037
0.538,0.0008
0.539,0.0033
0.54,0.0009
0.541,0.0031
0.542,0.0011
0.543,0.003
0.544,0.0013
0.545,-0.0002
0.546,0.0011
0.547,0.0022
0.548,0.0011
0.549,0.0002
0.55,0.0011
0.551,0.0004
0.552,0.0011
0.553,0.0017
0.554,0.0022
0.555,-0.0016
0.556,0.0008
0.557,0.0004
0.558,0.0015
0.559,0.0004
0.56,-0.0014
0.561,-0.0025
0.562,-0.0011
0.563,0.0031
0.564,0.0127
0.565,0.0332
0.566,0.0777
0.567,0.0588
0.568,-0.0278
0.569,-0.1897
0.57,-0.1677
0.571,-0.1477
0.572,-0.1296
0.573,-0.1131
0.574,-0.0681
0.575,-0.0816
0.576,-0.0443
0.577,-0.0331
0.578,-0.0229
0.579,-0.0135
0.58,0.1136
0.581,0.3868
0.582,0.9725
0.583,2.229
0.584,2.7675
0.585,2.9306
0.586,5.1566
0.587,8.6558
0.588,-2.8786
0.589,3.4728
0.59,8.7223
0.591,-2.5959
0.592,8.7843
0.593,-2.6523
0.594,8.8354
0.595,-2.6989
0.596,8.8777
0.597,8.4928
0.598,8.1429
0.599,7.8249
0.6,7.5357
0.601,7.273
0.602,7.034
0.603,6.3824
0.604,6.185
0.605,6.0055
0.606,5.8424
0.607,5.9907
0.608,5.8559
0.609,5.7334
0.61,5.6221
0.611,5.5208
0.612,-1.1554
0.613,-1.2475
0.614,-1.1638
0.615,-1.2398
0.616,-1.309
0.617,-1.3718
0.618,-1.3147
0.619,-1.3667
0.62,-1.3194
0.621,-1.3623
0.622,-1.3233
0.623,-1.2877
0.624,-1.32
0.625,-1.2907
0.626,-1.2641
0.627,-1.24
0.628,-1.218
0.629,-1.198
0.63,-1.1799
0.631,-1.1634
0.632,-1.1484
0.633,-1.1076
0.634,-1.0702
0.635,-1.059
0.636,-1.0283
0.637,-1.0003
0.638,-0.975
0.639,-0.9366
0.64,-0.9157
0.641,-0.884
0.642,-0.8553
0.643,-0.8291
0.644,-0.8053
0.645,-0.7751
0.646,-0.7476
0.647,-0.7227
0.648,-0.6934
0.649,-0.6738
0.65,-0.6489
0.651,-0.6264
0.652,-0.5996
0.653,-0.5747
0.654,-0.5522
0.655,-0.5315
0.656,-0.5128
0.657,-0.4909
0.658,-0.4702
0.659,-0.4568
0.66,-0.4348
0.661,-0.4142
0.662,-0.4008
0.663,-0.3819
0.664,-0.3651
0.665,-0.3363
0.666,-0.3246
0.667,-0.314
0.668,-0.3045
0.669,-0.2896
0.67,-0.271
0.671,-0.2638
0.672,-0.2528
0.673,-0.2428
0.674,-0.2336
0.675,-0.2221
0.676,-0.2116
0.677,-0.2021
0.678,-0.1937
0.679,-0.1812
0.68,-0.173
0.681,-0.1655
0.682,-0.1587
0.683,-0.1503
0.684,-0.1424
0.685,-0.1375
0.686,-0.1291
0.687,-0.1234
0.688,-0.1184
0.689,-0.112
0.69,-0.108
0.691,-0.101
0.692,-0.0965
0.693,-0.0908
0.694,-0.0869
0.695,-0.0824
0.696,-0.0793
0.697,-0.0754
0.698,-0.0721
0.699,-0.069
0.7,-0.0644
0.701,-0.0613
0.702,-0.0586
0.703,-0.0573
0.704,-0.0542
0.705,-0.0514
0.706,-0.0496
0.707,-0.0463
0.708,-0.0424
0.709,-0.0428
0.71,-0.0397
0.711,-0.0401
0.712,-0.0359
0.713,-0.0353
0.714,-0.0326
0.715,-0.0313
0.716,-0.0243
0.717,-0.0273
0.718,-0.0227
0.719,-0.0234
0.72,-0.0304
0.721,-0.024
0.722,-0.0232
0.723,-0.024
0.724,-0.0221
0.725,-0.0203
0.726,-0.0208
0.727,-0.0205
0.728,-0.0201
0.729,-0.019
0.73,-0.0172
0.731,-0.0168
0.732,-0.0166
0.733,-0.0148
0.734,-0.0166
0.735,-0.0152
0.736,-0.0137
0.737,-0.0128
0.738,-0.0137
0.739,-0.0122
0.74,-0.0128
0.741,-0.0104
0.742,-0.0111
0.743,-0.0104
0.744,-0.0097
0.745,-0.0091
0.746,-0.0097
0.747,-0.0091
0.748,-0.01
0.749,-0.0086
0.75,-0.01
0.751,-0.0089
0.752,-0.0084
0.753,-0.0075
0.754,-0.0089
0.755,-0.0084
0.756,-0.0082
0.757,-0.0084
0.758,-0.0067
0.759,-0.0078
0.76,-0.0069
0.761,-0.0086
0.762,-0.0053
0.763,-0.0075
0.764,-0.0071
0.765,-0.0062
0.766,-0.0058
0.767,-0.0003
0.768,-0.0011
0.769,-0.0029
0.77,-0.0034
0.771,-0.0029
0.772,-0.0025
0.773,-0.0029
0.774,-0.0025
0.775,-0.0007
0.776,0.0004
0.777,-0.0003
0.778,-0.0045
0.779,-0.0064
0.78,-0.0058
0.781,-0.0045
0.782,-0.0049
0.783,-0.0053
0.784,-0.0064
0.785,-0.0038
0.786,-0.0045
0.787,-0.0038
0.788,-0.004
0.789,-0.0034
0.79,-0.0055
0.791,-0.0042
0.792,-0.004
0.793,-0.0038
0.794,-0.004
0.795,-0.0031
0.796,-0.0033
0.797,-0.004
0.798,-0.0025
0.799,-0.0031
0.8,-0.0042
0.801,-0.004
0.802,-0.0031
0.803,-0.0025
0.804,-0.004
0.805,-0.0034
0.806,-0.004
0.807,-0.0038
0.808,-0.0033
0.809,-0.0033
0.81,-0.0033
0.811,-0.0053
0.812,-0.0042
0.813,-0.004
0.814,-0.0038
0.815,-0.004
0.816,-0.0033
0.817,-0.0027
0.818,0.0006
0.819,0.0057
0.82,0.0039
0.821,0.0008
0.822,-0.0031
0.823,-0.0027
0.824,-0.0014
0.825,-0.0025
0.826,-0.0036
0.827,-0.0033
0.828,-0.0012
0.829,-0.0038
0.83,-0.0027
0.831,-0.0025
0.832,-0.0033
0.833,-0.0025
0.834,-0.004
0.835,-0.0025
0.836,-0.0034
0.837,-0.0025
0.838,-0.004
0.839,-0.0025
0.84,-0.0023
0.841,-0.0018
0.842,-0.0027
0.843,-0.0025
0.844,-0.0033
0.845,-0.0012
0.846,0.0006
0.847,-0.0027
0.848,-0.0023
0.849,-0.002
0.85,-0.0023
0.851,-0.0012
0.852,-0.0027
0.853,-0.002
0.854,-0.0018
0.855,-0.0016
0.856,-0.0031
0.857,-0.0033
0.858,-0.0023
0.859,-0.0018
0.86,-0.0033
0.861,-0.0027
0.862,-0.0025
0.863,-0.0023
0.864,-0.0018
0.865,-0.0033
0.866,-0.0027
0.867,-0.0025
0.868,-0.0011
0.869,0.0019
0.87,0.0008
0.871,0.0064
0.872,0.0041
0.873,0.0019
0.874,-0.0014
0.875,-0.002
0.876,-0.0025
0.877,-0.0022
0.878,-0.0009
0.879,-0.0029
0.88,-0.0025
0.881,-0.0022
0.882,-0.002
0.883,-0.0033
0.884,-0.0031
0.885,-0.0025
0.886,-0.004
0.887,-0.0027
0.888,-0.0025
0.889,-0.0025
0.89,-0.0033
0.891,-0.0025
0.892,-0.0018
0.893,-0.0018
0.894,-0.0025
0.895,-0.0018
0.896,-0.0025
0.897,-0.0011
0.898,-0.0025
0.899,-0.0002
0.9,-0.0022
0.901,-0.002
0.902,-0.0018
0.903,-0.0016
0.904,-0.0018
0.905,-0.0009
0.906,-0.0018
0.907,-0.0025
0.908,-0.0018
0.909,-0.0011
0.91,-0.0025
0.911,-0.0023
0.912,-0.0018
0.913,-0.0009
0.914,-0.0033
0.915,-0.0018
0.916,-0.0025
0.917,-0.0033
0.918,-0.0011
0.919,-0.0025
0.92,-0.0023
0.921,0.0006
0.922,0.0017
0.923,0.0013
0.924,0.0009
0.925,0.005
0.926,0.0044
0.927,-0.0031
0.928,-0.002
0.929,-0.0011
0.93,-0.0002
0.931,-0.0025
0.932,-0.0018
0.933,-0.0023
0.934,-0.0005
0.935,-0.0022
0.936,-0.0025
0.937,-0.0022
0.938,-0.0018
0.939,-0.0014
0.94,-0.0025
0.941,-0.0018
0.942,-0.0025
0.943,-0.0018
0.944,-0.0023
0.945,-0.0018
0.946,-0.0027
0.947,-0.0011
0.948,-0.0016
0.949,-0.0018
0.95,-0.0016
0.951,-0.0023
0.952,-0.0018
0.953,-0.0003
0.954,-0.0009
0.955,-0.0003
0.956,-0.0002
0.957,-0.0018
0.958,-0.0012
0.959,-0.0011
0.96,-0.002
0.961,-0.0005
0.962,-0.0011
0.963,-0.0009
0.964,-0.0018
0.965,-0.0016
0.966,-0.0018
0.967,-0.0025
0.968,-0.0025
0.969,-0.0025
0.97,-0.0018
0.971,0.0002
0.972,0.0028
0.973,0.0074
0.974,0.0028
0.975,0.0009
0.976,-0.0018
0.977,-0.0014
0.978,-0.0002
0.979,-0.0022
0.98,-0.0018
0.981,-0.0007
0.982,-0.0009
0.983,-0.0011
0.984,-0.0003
0.985,-0.0018
0.986,-0.0016
0.987,-0.0018
0.988,-0.0009
0.989,-0.0016
0.99,-0.0031
0.991,-0.0016
0.992,-0.0027
0.993,-0.0009
0.994,-0.0023
0.995,-0.0009
0.996,-0.0027
0.997,-0.0016
0.998,-0.0027
0.999,-0.0009
1,-0.0034
1.001,-0.0016
1.002,-0.0023
1.003,-0.0016
1.004,-0.0023
1.005,-0.0018
1.006,-0.0016
1.007,-0.0018
1.008,-0.0009
1.009,-0.0003
1.01,-0.0011
1.011,-0.0011
1.012,-0.0011
1.013,-0.0011
1.014,-0.0003
1.015,-0.0011
1.016,-0.0018
1.017,-0.0033
1.018,-0.0018
1.019,-0.0012
1.02,-0.0011
1.021,-0.0023
1.022,0.0004
1.023,0.0008
1.024,0.0063
1.025,0.0024
1.026,0.0019
1.027,-0.0012
1.028,0.0004
1.029,0
1.03,-0.0022
1.031,-0.0011
1.032,-0.0007
1.033,-0.0011
1.034,-0.0009
1.035,-0.0011
1.036,-0.0009
1.037,-0.0023
1.038,-0.0009
1.039,-0.0011
1.04,-0.002
1.041,-0.0018
1.042,-0.0025
1.043,-0.0025
1.044,-0.0025
1.045,-0.0018
1.046,-0.0033
1.047,-0.0018
1.048,-0.0023
1.049,-0.0011
1.05,-0.002
1.051,-0.0012
1.052,-0.0018
1.053,-0.0011
1.054,-0.0025
1.055,-0.0003
1.056,-0.0016
1.057,-0.0023
1.058,-0.0002
1.059,-0.0003
1.06,-0.0016
1.061,-0.0027
1.062,-0.0003
1.063,-0.0002
1.064,0.0006
1.065,-0.0012
1.066,-0.0018
1.067,-0.0016
1.068,-0.0018
1.069,-0.0002
1.07,-0.0012
1.071,-0.0011
1.072,0.0002
1.073,0.003
1.074,-0.0027
1.075,0.003
1.076,0.0022
1.077,-0.0023
1.078,-0.0005
1.079,-0.0022
1.08,0.0002
1.081,-0.002
1.082,-0.0009
1.083,-0.0012
1.084,-0.0009
1.085,-0.0011
1.086,-0.0009
1.087,-0.0002
1.088,-0.0003
1.089,-0.0009
1.09,-0.0011
1.091,0.0017
1.092,0.0035
1.093,-0.002
1.094,-0.0012
1.095,-0.0018
1.096,-0.0012
1.097,-0.0007
1.098,-0.002
1.099,-0.0016
1.1,-0.0027
1.101,-0.0016
1.102,-0.002
1.103,-0.0005
1.104,-0.0018
1.105,-0.0005
1.106,-0.0027
1.107,-0.002
1.108,-0.0018
1.109,-0.0012
1.11,-0.0027
1.111,-0.0002
1.112,-0.002
1.113,-0.0005
1.114,-0.0018
1.115,-0.0005
1.116,-0.002
1.117,-0.0005
1.118,-0.0003
1.119,-0.0012
1.12,-0.0018
1.121,-0.0011
1.122,-0.0018
1.123,-0.0018
1.124,0.0002
1.125,0.0006
1.126,0.0039
1.127,0.0017
1.128,-0.0045
1.129,-0.0018
1.13,-0.0011
1.131,-0.0003
1.132,0.0002
1.133,-0.0016
1.134,-0.0011
1.135,-0.0007
1.136,-0.0011
1.137,0
1.138,-0.0003
1.139,-0.0014
1.14,-0.0012
1.141,-0.002
1.142,-0.0012
1.143,-0.0011
1.144,-0.0005
1.145,-0.0018
1.146,-0.0027
1.147,-0.0012
1.148,-0.0002
1.149,-0.0016
1.15,-0.0025
1.151,-0.0009
1.152,-0.0023
1.153,-0.0018
1.154,-0.0016
1.155,-0.0011
1.156,-0.0025
1.157,-0.002
1.158,-0.0018
1.159,-0.0016
1.16,-0.0025
1.161,-0.0011
1.162,-0.0005
1.163,-0.0003
1.164,-0.0016
1.165,-0.0003
1.166,-0.0011
1.167,-0.0011
1.168,-0.0003
1.169,0.0004
1.17,-0.0003
1.171,-0.0018
1.172,-0.0016
1.173,-0.0011
1.174,-0.0016
1.175,0.0013
1.176,0.0009
1.177,0.0013
1.178,0.0046
1.179,-0.0016
1.18,-0.0137
1.181,-0.0022
1.182,-0.0007
1.183,-0.002
1.184,-0.0009
1.185,-0.002
1.186,-0.0011
1.187,-0.0002
1.188,-0.0009
1.189,-0.0016
1.19,-0.0011
1.191,-0.0005
1.192,0
1.193,-0.0012
1.194,0
1.195,-0.0003
1.196,-0.0014
1.197,-0.0003
1.198,-0.0018
1.199,-0.0016
1.2,0.0002
1.201,-0.0012
1.202,-0.0011
1.203,-0.002
1.204,-0.0011
1.205,-0.0011
1.206,-0.0018
1.207,-0.0011
1.208,-0.0018
1.209,-0.0011
1.21,-0.0025
1.211,-0.002
1.212,-0.0018
1.213,-0.0005
1.214,-0.0018
1.215,-0.0003
1.216,-0.0018
1.217,-0.0016
1.218,-0.0011
1.219,-0.0002
1.22,-0.0003
1.221,-0.0003
1.222,-0.0011
1.223,-0.0011
1.224,-0.0011
1.225,-0.0025
1.226,0.0009
1.227,0.0013
1.228,0.0044
1.229,0.0033
1.23,0.0008
1.231,-0.0018
1.232,-0.0025
1.233,-0.0023
1.234,-0.0005
1.235,-0.0027
1.236,-0.0009
1.237,-0.0016
1.238,-0.0011
1.239,-0.0016
1.24,-0.0011
1.241,-0.0009
1.242,-0.0011
1.243,0.0004
1.244,-0.0002
1.245,-0.0012
1.246,-0.0011
1.247,-0.0002
1.248,-0.0009
1.249,-0.0016
1.25,-0.0003
1.251,-0.0016
1.252,-0.0018
1.253,-0.0011
1.254,-0.0003
1.255,-0.0003
1.256,-0.0018
1.257,-0.0012
1.258,-0.0002
1.259,-0.0003
1.26,-0.0027
1.261,-0.0012
1.262,-0.002
1.263,-0.0018
1.264,-0.0003
1.265,-0.0002
1.266,-0.002
1.267,-0.0009
1.268,-0.0023
1.269,-0.0011
1.27,-0.002
1.271,-0.0012
1.272,-0.0018
1.273,-0.0011
1.274,0.0004
1.275,-0.0025
1.276,-0.0011
1.277,0.0022
1.278,0.0019
1.279,0.0081
1.28,0.0035
1.281,0.0028
1.282,-0.0025
1.283,-0.0007
1.284,-0.0012
1.285,-0.0029
1.286,-0.0016
1.287,-0.002
1.288,-0.0009
1.289,-0.0027
1.29,-0.0009
1.291,-0.0016
1.292,-0.0003
1.293,-0.0011
1.294,-0.0005
1.295,-0.0011
1.296,-0.0002
1.297,-0.0011
1.298,-0.0018
1.299,-0.0011
1.3,-0.0011
1.301,-0.0011
1.302,-0.0011
1.303,-0.0003
1.304,-0.0003
1.305,-0.0003
1.306,-0.0018
1.307,-0.0016
1.308,-0.0018
1.309,-0.0009
1.31,-0.0018
1.311,-0.0011
1.312,-0.0018
1.313,-0.0018
1.314,-0.0011
1.315,-0.0018
1.316,-0.0025
1.317,-0.0018
1.318,-0.0018
1.319,-0.0003
1.32,-0.0025
1.321,-0.0012
1.322,-0.002
1.323,-0.0009
1.324,-0.0011
1.325,0.0002
1.326,-0.0011
1.327,-0.0002
1.328,-0.0016
1.329,-0.0018
1.33,-0.0003
1.331,-0.0025
1.332,-0.0018
1.333,-0.0011
1.334,-0.0009
1.335,-0.0033
1.336,-0.0012
1.337,0.0006
1.338,-0.0034
1.339,-0.0018
1.34,-0.0005
1.341,0.0064
1.342,0.0055
1.343,0.0009
1.344,-0.0014
1.345,-0.0022
1.346,-0.0016
1.347,0.0002
1.348,-0.0003
1.349,-0.0027
1.35,-0.0014
1.351,-0.0011
1.352,-0.0007
1.353,-0.0011
1.354,-0.0003
1.355,-0.0016
1.356,-0.0018
1.357,-0.0012
1.358,-0.0002
1.359,-0.002
1.36,-0.0018
1.361,-0.0012
1.362,-0.0018
1.363,-0.0009
1.364,-0.0016
1.365,-0.0011
1.366,-0.0025
1.367,-0.0011
1.368,-0.0009
1.369,-0.0003
1.37,-0.0027
1.371,-0.0012
1.372,-0.0025
1.373,-0.0012
1.374,-0.0011
1.375,-0.0005
1.376,-0.0027
1.377,0.0011
1.378,-0.0007
1.379,0.0033
1.38,0.0017
1.381,0.002
1.382,0.0042
1.383,0.0022
1.384,-0.0034
1.385,-0.0011
1.386,-0.0018
1.387,-0.0012
1.388,-0.0007
1.389,-0.0023
1.39,-0.0011
1.391,-0.0014
1.392,-0.0018
1.393,-0.0014
1.394,-0.0011
1.395,-0.0018
1.396,-0.0016
1.397,-0.0009
1.398,-0.0011
1.399,-0.0016
1.4,0.0006
1.401,-0.0002
1.402,-0.0003
1.403,-0.0009
1.404,-0.0003
1.405,-0.0012
1.406,-0.0011
1.407,-0.0011
1.408,0.0004
1.409,-0.0011
1.41,-0.0005
1.411,-0.0018
1.412,-0.0002
1.413,-0.0012
1.414,-0.0003
1.415,-0.002
1.416,-0.0018
1.417,-0.0027
1.418,-0.0003
1.419,-0.0002
1.42,-0.0027
1.421,-0.0016
1.422,-0.0018
1.423,-0.0011
1.424,-0.0018
1.425,-0.0003
1.426,-0.0018
1.427,-0.0016
1.428,-0.0003
1.429,-0.0002
1.43,0.0019
1.431,-0.0036
1.432,0.0033
1.433,0.0024
1.434,-0.0051
1.435,-0.0022
1.436,-0.0012
1.437,-0.0005
1.438,-0.0012
1.439,-0.0018
1.44,-0.0012
1.441,-0.0018
1.442,-0.0014
1.443,-0.0011
1.444,-0.0022
1.445,-0.0018
1.446,0
1.447,-0.0007
1.448,-0.0005
1.449,-0.0012
1.45,-0.0018
1.451,-0.0012
1.452,-0.0003
1.453,-0.0012
1.454,-0.0005
1.455,-0.0011
1.456,-0.0011
1.457,-0.0003
1.458,-0.0011
1.459,-0.0011
1.46,0.0004
1.461,-0.0011
1.462,-0.0005
1.463,-0.0003
1.464,-0.0002
1.465,-0.0009
1.466,-0.0011
1.467,-0.0018
1.468,-0.0003
1.469,-0.0018
1.47,-0.0016
1.471,-0.0018
1.472,-0.0016
1.473,-0.0011
1.474,-0.0025
1.475,-0.0011
1.476,-0.0016
1.477,-0.0011
1.478,-0.002
1.479,0.0004
1.48,-0.0011
1.481,-0.0042
1.482,0.002
1.483,0.003
1.484,0.0037
1.485,-0.0047
1.486,-0.008
1.487,0.0011
1.488,-0.0023
1.489,-0.0012
1.49,-0.0022
1.491,-0.0012
1.492,-0.0005
1.493,-0.0012
1.494,-0.0007
1.495,-0.0025
1.496,-0.0009
1.497,-0.0022
1.498,-0.0009
1.499,-0.002
1.5,-0.0009
1.501,-0.002
1.502,-0.0005
1.503,-0.0018
1.504,-0.0005
1.505,-0.002
1.506,-0.0018
1.507,-0.0009
1.508,-0.0011
1.509,-0.0011
1.51,0.0004
1.511,-0.0011
1.512,-0.0009
1.513,-0.0011
1.514,-0.0009
1.515,-0.0016
1.516,0.0004
1.517,-0.0014
1.518,-0.0012
1.519,-0.0025
1.52,-0.0012
1.521,-0.0011
1.522,-0.0009
1.523,-0.0018
1.524,-0.0009
1.525,-0.0011
1.526,-0.0025
1.527,-0.0011
1.528,-0.0009
1.529,-0.0011
1.53,-0.0003
1.531,0.0006
1.532,0.0026
1.533,0.003
1.534,0.0009
1.535,0.0041
1.536,0.003
1.537,-0.0027
1.538,-0.0003
1.539,0.0004
1.54,-0.0002
1.541,-0.002
1.542,-0.0014
1.543,-0.0002
1.544,-0.0014
1.545,-0.0025
1.546,-0.0007
1.547,-0.0011
1.548,-0.0009
1.549,-0.0027
1.55,-0.0009
1.551,-0.0023
1.552,-0.0009
1.553,-0.0027
1.554,-0.0012
1.555,-0.0027
1.556,-0.0009
1.557,-0.002
1.558,-0.0009
1.559,-0.0018
1.56,-0.0009
1.561,-0.0011
1.562,-0.0011
1.563,-0.0003
1.564,0.0004
1.565,-0.0011
1.566,-0.0005
1.567,-0.0003
1.568,-0.0002
1.569,-0.0003
1.57,0.0004
1.571,-0.0003
1.572,-0.0018
1.573,-0.0016
1.574,0.0004
1.575,-0.0009
1.576,-0.0023
1.577,-0.0018
1.578,-0.0009
1.579,-0.0018
1.58,-0.0025
1.581,-0.0018
1.582,0.0002
1.583,0.002
1.584,-0.0025
1.585,-0.002
1.586,0.0024
1.587,0.0052
1.588,-0.0023
1.589,-0.0126
1.59,-0.0003
1.591,0.0013
1.592,-0.0002
1.593,-0.0014
1.594,-0.0003
1.595,-0.0014
1.596,-0.0005
1.597,-0.0033
1.598,-0.0009
1.599,-0.0016
1.6,-0.0022
1.601,-0.0027
1.602,-0.0022
1.603,-0.0018
1.604,-0.0014
1.605,-0.0018
1.606,-0.0007
1.607,-0.0018
1.608,-0.0003
1.609,-0.0016
1.61,-0.0003
1.611,-0.0018
1.612,-0.0016
1.613,-0.0011
1.614,0.0006
1.615,-0.0009
1.616,-0.0011
1.617,-0.0002
1.618,0.0004
1.619,-0.0003
1.62,-0.0003
1.621,-0.0011
1.622,-0.0011
1.623,-0.0011
1.624,-0.0003
1.625,-0.0018
1.626,-0.0016
1.627,-0.0011
1.628,-0.004
1.629,-0.0029
1.63,-0.0033
1.631,-0.0014
1.632,-0.0025
1.633,-0.0018
1.634,0.0024
1.635,0.0019
1.636,0.0002
1.637,0.0015
1.638,-0.0016
1.639,-0.0078
1.64,-0.0014
1.641,-0.0022
1.642,-0.0029
1.643,-0.0034
1.644,-0.0016
1.645,-0.0022
1.646,-0.0009
1.647,-0.0022
1.648,-0.0033
1.649,-0.0014
1.65,-0.0011
1.651,-0.0025
1.652,-0.0018
1.653,-0.0011
1.654,-0.0005
1.655,-0.0038
1.656,-0.0007
1.657,-0.0034
1.658,-0.0016
1.659,-0.0034
1.66,-0.0027
1.661,-0.0034
1.662,-0.0042
1.663,-0.0027
1.664,-0.0025
1.665,-0.0016
1.666,-0.0011
1.667,-0.0025
1.668,-0.002
1.669,-0.0009
1.67,-0.0003
1.671,-0.0002
1.672,-0.0016
1.673,-0.0002
1.674,0.0004
1.675,-0.0025
1.676,-0.0014
1.677,-0.0025
1.678,-0.0014
1.679,-0.0016
1.68,-0.0034
1.681,-0.0011
1.682,-0.0025
1.683,-0.0003
1.684,-0.0022
1.685,0.0019
1.686,0.0035
1.687,-0.0031
1.688,0.0015
1.689,-0.0009
1.69,-0.0047
1.691,-0.0002
1.692,-0.0007
1.693,0.0009
1.694,-0.0003
1.695,-0.0007
1.696,-0.0011
1.697,-0.0022
1.698,0.0004
1.699,-0.0003
1.7,-0.0016
1.701,-0.0003
1.702,0.0002
1.703,-0.0012
1.704,-0.0025
1.705,-0.0002
1.706,-0.0016
1.707,-0.0023
1.708,-0.0042
1.709,-0.004
1.71,-0.0045
1.711,-0.004
1.712,-0.0023
1.713,-0.0034
1.714,-0.0025
1.715,-0.0034
1.716,-0.002
1.717,-0.0009
1.718,-0.0033
1.719,-0.0012
1.72,-0.0005
1.721,-0.0018
1.722,-0.0023
1.723,-0.0018
1.724,-0.0005
1.725,-0.0003
1.726,-0.0018
1.727,-0.0023
1.728,0.0006
1.729,0.0002
1.73,0.0013
1.731,-0.0027
1.732,-0.0022
1.733,-0.0009
1.734,-0.0025
1.735,-0.0022
1.736,0.0041
1.737,0.0105
1.738,-0.0003
1.739,0.0041
1.74,0
1.741,0.0011
1.742,-0.0022
1.743,-0.0012
1.744,-0.0003
1.745,-0.0011
1.746,0.0011
1.747,0.0017
1.748,-0.0002
1.749,0.0004
1.75,0.0008
1.751,0.0011
1.752,0
1.753,0.0004
1.754,-0.0014
1.755,0.0006
1.756,-0.0002
1.757,-0.0003
1.758,-0.0018
1.759,-0.0003
1.76,-0.0002
1.761,-0.0025
1.762,-0.0023
1.763,-0.0025
1.764,-0.0002
1.765,-0.0034
1.766,-0.0031
1.767,-0.0034
1.768,-0.0016
1.769,-0.002
1.77,-0.0005
1.771,-0.0012
1.772,-0.002
1.773,-0.0018
1.774,0.0006
1.775,-0.0027
1.776,-0.0014
1.777,-0.0011
1.778,-0.0022
1.779,-0.0003
1.78,-0.0011
1.781,-0.0018
1.782,-0.0011
1.783,-0.0016
1.784,-0.0018
1.785,-0.0011
1.786,-0.0023
1.787,0.0004
1.788,0.0061
1.789,0.0004
1.79,-0.0003
1.791,-0.0022
1.792,-0.0016
1.793,0
1.794,-0.0012
1.795,0
1.796,-0.0027
1.797,-0.0002
1.798,0.0002
1.799,-0.0012
1.8,-0.002
1.801,-0.0018
1.802,-0.0012
1.803,-0.0002
1.804,-0.002
1.805,-0.0009
1.806,-0.002
1.807,-0.0002
1.808,-0.0016
1.809,-0.0011
1.81,-0.0009
1.811,-0.0018
1.812,-0.0025
1.813,-0.0045
1.814,-0.01
1.815,-0.0216
1.816,-0.0465
1.817,-0.05
1.818,-0.0531
1.819,-0.0619
1.82,-0.0593
1.821,-0.0714
1.822,-0.0692
1.823,-0.0631
1.824,-0.065
1.825,-0.0633
1.826,-0.0619
1.827,-0.0769
1.828,-0.0869
1.829,-0.0778
1.83,-0.086
1.831,-0.0935
1.832,-0.114
1.833,-0.1289
1.834,-0.1314
1.835,-0.1338
1.836,-0.1168
1.837,-0.1102
1.838,-0.0961
1.839,-0.0833
1.84,-0.0783
1.841,-0.0587
1.842,-0.0613
1.843,-0.0833
1.844,-0.0862
1.845,-0.0888
1.846,-0.0864
1.847,-0.0754
1.848,-0.0814
1.849,-0.0796
1.85,-0.0747
1.851,-0.0703
1.852,-0.0716
1.853,-0.075
1.854,-0.0783
1.855,-0.0793
1.856,-0.0802
1.857,-0.0677
1.858,-0.0659
1.859,-0.0642
1.86,-0.0686
1.861,-0.0754
1.862,-0.0789
1.863,-0.0868
1.864,-0.0877
1.865,-0.0756
1.866,-0.0507
1.867,-0.0258
1.868,-0.0097
1.869,-0.0185
1.87,-0.0263
1.871,-0.0287
1.872,-0.0088
1.873,-0.0062
1.874,-0.0282
1.875,-0.043
1.876,-0.0564
1.877,-0.0732
1.878,-0.0976
1.879,-0.1137
1.88,-0.1166
1.881,-0.0924
1.882,-0.0763
1.883,-0.0556
1.884,-0.0315
1.885,-0.0089
1.886,-0.0002
1.887,-0.0106
1.888,-0.024
1.889,-0.0168
1.89,-0.0146
1.891,-0.0247
1.892,-0.0229
1.893,-0.0311
1.894,-0.0476
1.895,-0.0542
1.896,-0.0723
1.897,-0.0794
1.898,-0.0595
1.899,-0.0408
1.9,-0.0384
1.901,-0.0362
1.902,-0.0463
1.903,-0.0298
1.904,-0.032
1.905,-0.026
1.906,-0.0351
1.907,-0.0302
1.908,-0.0106
1.909,-0.008
1.91,0.0041
1.911,0.0019
1.912,0.0039
1.913,0.0094
1.914,-0.0022
1.915,0.0083
1.916,0.0205
1.917,0.0356
1.918,0.0376
1.919,0.0284
1.92,0.0399
1.921,0.0235
1.922,0.0169
1.923,0.0068
1.924,-0.0133
1.925,-0.032
1.926,-0.0296
1.927,-0.0186
1.928,-0.0086
1.929,-0.0104
1.93,-0.0121
1.931,0.0044
1.932,0.011
1.933,0.0211
1.934,0.0229
1.935,0.018
1.936,0.0224
1.937,0.0211
1.938,0.0253
1.939,0.0288
1.94,0.0367
1.941,0.0376
1.942,0.0515
1.943,0.0696
1.944,0.0476
1.945,0.0269
1.946,0.0244
1.947,0.0172
1.948,0.0107
1.949,0.0086
1.95,0.0068
1.951,0.0085
1.952,-0.002
1.953,-0.0033
1.954,-0.0067
1.955,-0.01
1.956,-0.0252
1.957,-0.0406
1.958,-0.0507
1.959,-0.0452
1.96,-0.0302
1.961,-0.0201
1.962,-0.0256
1.963,-0.0141
1.964,-0.0036
1.965,0.0169
1.966,0.0376
1.967,0.035
1.968,0.0182
1.969,0.0028
1.97,0.0088
1.971,0.0253
1.972,0.0363
1.973,0.0504
1.974,0.0522
1.975,0.0339
1.976,0.0171
1.977,0.0061
1.978,-0.0161
1.979,-0.0249
1.98,-0.0435
1.981,-0.0412
1.982,-0.0302
1.983,0
1.984,0.065
1.985,0.0557
1.986,0.0641
1.987,0.0564
1.988,0.0356
1.989,0.0114
1.99,0.0052
1.991,0.0108
1.992,0.037
1.993,0.0703
1.994,0.0832
1.995,0.0793
1.996,0.0471
1.997,0.0081
1.998,-0.0392
1.999,-0.0708
2,-0.0996
2.001,-0.0945
2.002,-0.0897
2.003,-0.0769
2.004,-0.0652
2.005,-0.0115
2.006,0.0423
2.007,0.0354
2.008,0.0291
2.009,0.0348
2.01,0.0297
2.011,0.0059
2.012,-0.0157
2.013,-0.0274
2.014,-0.0168
2.015,-0.0137
2.016,0.007
2.017,0.0096
2.018,0.0119
2.019,0.0009
2.02,0.0191
2.021,0.0167
2.022,0.0233
2.023,0.0172
2.024,0.0008
2.025,-0.0014
2.026,0.0006
2.027,0.0097
2.028,0.0248
2.029,0.0268
2.03,0.0213
2.031,0.0262
2.032,0.0277
2.033,0.0427
2.034,0.0407
2.035,0.0425
2.036,0.0475
2.037,0.0431
2.038,0.0335
2.039,0.0346
2.04,0.0326
2.041,0.0202
2.042,0.0185
2.043,0.02
2.044,0.0405
2.045,0.0434
2.046,0.0356
2.047,0.0476
2.048,0.063
2.049,0.0852
2.05,0.0764
2.051,0.0685
2.052,0.0517
2.053,0.0317
2.054,-0.0033
2.055,-0.0271
2.056,-0.0573
2.057,-0.069
2.058,-0.0584
2.059,-0.0423
2.06,-0.0216
2.061,0.0187
2.062,0.0475
2.063,0.0526
2.064,0.0573
2.065,0.0531
2.066,0.0649
2.067,0.0898
2.068,0.0993
2.069,0.1081
2.07,0.1214
2.071,0.1093
2.072,0.0894
2.073,0.0815
2.074,0.0887
2.075,0.0909
2.076,0.0606
2.077,0.0735
2.078,0.0773
2.079,0.0951
2.08,0.0982
2.081,0.107
2.082,0.1044
2.083,0.0876
2.084,0.0632
2.085,0.0537
2.086,0.0449
2.087,0.037
2.088,0.0299
2.089,0.0189
2.09,0.0169
2.091,0.0114
2.092,0.0059
2.093,0.0308
2.094,0.0486
2.095,0.0647
2.096,0.0973
2.097,0.093
2.098,0.0892
2.099,0.057
2.1,0.0354
2.101,0.0237
2.102,0.013
2.103,0.0291
2.104,0.0379
2.105,0.0405
2.106,0.0381
2.107,0.0359
2.108,0.0259
2.109,0.013
2.11,0.0114
2.111,0.0158
2.112,0.028
2.113,0.0297
2.114,0.0312
2.115,0.0299
2.116,0.0215
2.117,0.0248
2.118,0.0096
2.119,-0.0058
2.12,-0.0038
2.121,0.009
2.122,0.024
2.123,0.0301
2.124,0.0282
2.125,0.0167
2.126,0.0031
2.127,-0.0097
2.128,-0.0047
2.129,0.0118
2.13,0.0317
2.131,0.0291
2.132,0.0268
2.133,0.0202
2.134,0.0182
2.135,0.02
2.136,0.0249
2.137,0.0024
2.138,-0.0071
2.139,0.0017
2.14,0.0204
2.141,0.0227
2.142,0.0143
2.143,-0.0011
2.144,-0.0031
2.145,-0.0049
2.146,0.0134
2.147,0.0063
2.148,-0.0091
2.149,0.0009
2.15,0.0211
2.151,0.0398
2.152,0.0277
2.153,0.0343
2.154,0.0121
2.155,0.0033
2.156,-0.0153
2.157,-0.0274
2.158,-0.034
2.159,-0.0441
2.16,-0.0313
2.161,-0.0163
2.162,-0.0062
2.163,-0.008
2.164,-0.0031
2.165,0.0165
2.166,0.0191
2.167,0.0215
2.168,0.0105
2.169,0.0205
2.17,0.026
2.171,0.0244
2.172,0.0139
2.173,-0.0066
2.174,0.0022
2.175,-0.0003
2.176,-0.0124
2.177,0.003
2.178,0.009
2.179,0.0255
2.18,0.0101
2.181,0.0161
2.182,0.029
2.183,0.0306
2.184,0.0262
2.185,0.0112
2.186,-0.0029
2.187,-0.0084
2.188,-0.01
2.189,-0.0205
2.19,-0.0137
2.191,-0.0126
2.192,-0.0069
2.193,0.0165
2.194,0.0297
2.195,0.0572
2.196,0.0689
2.197,0.0795
2.198,0.0634
2.199,0.0189
2.2,0
2.201,-0.0056
2.202,0.0205
2.203,0.0348
2.204,0.039
2.205,0.0352
2.206,0.0317
2.207,0.0024
2.208,-0.0093
2.209,-0.0128
2.21,-0.0353
2.211,-0.0441
2.212,-0.0415
2.213,-0.0148
2.214,-0.0113
2.215,-0.0208
2.216,-0.0179
2.217,-0.0205
2.218,-0.0181
2.219,-0.0027
2.22,-0.0047
2.221,-0.0102
2.222,-0.0053
2.223,-0.0097
2.224,-0.0247
2.225,-0.0468
2.226,-0.0675
2.227,-0.065
2.228,-0.0529
2.229,-0.0463
2.23,-0.0523
2.231,-0.0395
2.232,-0.0313
2.233,-0.0238
2.234,-0.0088
2.235,-0.0067
2.236,-0.0012
2.237,0.0138
2.238,0.0238
2.239,0.0257
2.24,0.024
2.241,0.0255
2.242,0.0215
2.243,0.0204
2.244,0.0172
2.245,0.0297
2.246,0.0379
2.247,0.0423
2.248,0.0328
2.249,0.0216
2.25,0.002
2.251,-0.0166
2.252,-0.019
2.253,-0.0168
2.254,-0.0309
2.255,-0.0437
2.256,-0.0355
2.257,-0.034
2.258,-0.0135
2.259,0.0072
2.26,0.0046
2.261,0.007
2.262,-0.0084
2.263,-0.0104
2.264,-0.0232
2.265,-0.0282
2.266,-0.0357
2.267,-0.0152
2.268,0.0235
2.269,0.039
2.27,0.0533
2.271,0.0405
2.272,0.0288
2.273,0.0253
2.274,0.0222
2.275,0.0251
2.276,0.0226
2.277,0.0249
2.278,0.0315
2.279,0.0215
2.28,-0.006
2.281,-0.0256
2.282,-0.0434
2.283,-0.0465
2.284,-0.0494
2.285,-0.036
2.286,-0.0192
2.287,-0.0038
2.288,0.0183
2.289,0.0154
2.29,0.0233
2.291,0.0209
2.292,0.0009
2.293,-0.0232
2.294,-0.0263
2.295,-0.0164
2.296,-0.0135
2.297,0.0107
2.298,0.0138
2.299,0.0524
2.3,0.0575
2.301,0.0432
2.302,0.0216
2.303,0.0255
2.304,0.029
2.305,0.0194
2.306,0.0107
2.307,-0.0135
2.308,-0.023
2.309,-0.0437
2.31,-0.0463
2.311,-0.0487
2.312,-0.0421
2.313,-0.0441
2.314,-0.0569
2.315,-0.0652
2.316,-0.0608
2.317,-0.0403
2.318,-0.0254
2.319,-0.0175
2.32,0.0044
2.321,0.0193
2.322,0.0167
2.323,0.0046
2.324,0.0068
2.325,0.0169
2.326,0.0114
2.327,0.0196
2.328,0.0271
2.329,0.0367
2.33,0.0306
2.331,0.0385
2.332,0.0414
2.333,0.035
2.334,0.0343
2.335,0.0227
2.336,0.0112
2.337,-0.0084
2.338,-0.0058
2.339,-0.013
2.34,-0.0064
2.341,-0.0084
2.342,-0.0359
2.343,-0.0163
2.344,0.0015
2.345,0.0046
2.346,-0.0157
2.347,-0.0245
2.348,-0.0271
2.349,-0.0392
2.35,-0.006
2.351,0.037
2.352,0.0427
2.353,0.0165
2.354,0.0308
2.355,0.035
2.356,0.0154
2.357,0.0119
2.358,0.015
2.359,0.0002
2.36,-0.0077
2.361,-0.0005
2.362,0.0061
2.363,-0.0121
2.364,-0.0192
2.365,-0.0126
2.366,-0.0186
2.367,-0.0168
2.368,-0.0152
2.369,-0.0137
2.37,-0.0097
2.371,0.0039
2.372,0.0094
2.373,-0.0022
2.374,-0.0036
2.375,-0.0049
2.376,-0.0084
2.377,-0.0117
2.378,-0.0067
2.379,0.0053
2.38,0.0037
2.381,-0.0038
2.382,-0.0243
2.383,-0.0214
2.384,-0.0188
2.385,-0.0164
2.386,-0.0186
2.387,-0.0166
2.388,-0.0221
2.389,-0.0106
2.39,-0.0062
2.391,-0.013
2.392,-0.0241
2.393,-0.0316
2.394,-0.0384
2.395,-0.0273
2.396,-0.0229
2.397,-0.0128
2.398,0.0022
2.399,0.0204
2.4,0.0227
2.401,0.0471
2.402,0.044
2.403,0.0291
2.404,0.0213
2.405,0.0092
2.406,-0.0152
2.407,-0.0183
2.408,-0.0212
2.409,-0.0186
2.41,-0.0115
2.411,-0.0093
2.412,0.0088
2.413,0.0064
2.414,-0.0002
2.415,-0.0022
2.416,-0.0113
2.417,-0.0064
2.418,0.0011
2.419,0.0024
2.42,0.0059
2.421,0.0026
2.422,-0.0003
2.423,-0.0067
2.424,-0.0192
2.425,-0.0283
2.426,-0.0333
2.427,-0.0168
2.428,-0.0234
2.429,-0.0174
2.43,0.0064
2.431,0.0226
2.432,0.0138
2.433,0.0216
2.434,0.0337
2.435,0.0271
2.436,0.0171
2.437,0.0152
2.438,0.0136
2.439,-0.0029
2.44,0.0125
2.441,0.0185
2.442,0.0057
2.443,0.0172
2.444,0.0248
2.445,0.037
2.446,0.0387
2.447,0.0251
2.448,0.0209
2.449,-0.0029
2.45,0.0002
2.451,0.0209
2.452,0.0183
2.453,0.0015
2.454,-0.0095
2.455,-0.0155
2.456,-0.0137
2.457,-0.0055
2.458,0.002
2.459,-0.0185
2.46,-0.0273
2.461,-0.0351
2.462,-0.0327
2.463,-0.0174
2.464,-0.0153
2.465,-0.0062
2.466,-0.0012
2.467,0.0092
2.468,0.0105
2.469,0.0165
2.47,0.0244
2.471,0.0174
2.472,0.022
2.473,0.0096
2.474,-0.0069
2.475,-0.0223
2.476,-0.0082
2.477,0.0009
2.478,0.0092
2.479,0.0167
2.48,0.018
2.481,-0.0005
2.482,-0.0084
2.483,-0.0155
2.484,-0.0221
2.485,-0.0241
2.486,-0.0296
2.487,-0.0113
2.488,0.0008
2.489,0.0118
2.49,0.0138
2.491,0.0229
2.492,0.0046
2.493,-0.0025
2.494,-0.0003
2.495,-0.0104
2.496,-0.0049
2.497,-0.0033
2.498,0.0072
2.499,0.0077
2.5,0.02
2.501,0.0315
2.502,0.033
2.503,0.0317
2.504,0.0306
2.505,0.0136
2.506,-0.0084
2.507,-0.0172
2.508,-0.0146
2.509,-0.0122
2.51,-0.0012
2.511,0.0008
2.512,0.0099
2.513,0.0215
2.514,0.02
2.515,0.0213
2.516,0.0028
2.517,0.0053
2.518,0.0222
2.519,0.0068
2.52,0.0008
2.521,-0.0047
2.522,-0.0031
2.523,-0.0135
2.524,-0.0122
2.525,-0.0062
2.526,0.0063
2.527,0.0079
2.528,-0.0086
2.529,-0.0108
2.53,-0.0007
2.531,0.0158
2.532,0.0136
2.533,0.0116
2.534,0.0024
2.535,-0.0091
2.536,-0.0227
2.537,-0.0245
2.538,-0.0229
2.539,-0.0124
2.54,-0.0111
2.541,-0.0146
2.542,-0.0135
2.543,-0.0086
2.544,-0.0113
2.545,-0.0038
2.546,-0.0029
2.547,0.0035
2.548,-0.0022
2.549,0.0094
2.55,-0.0003
2.551,-0.002
2.552,0.0205
2.553,0.0367
2.554,0.0454
2.555,0.0213
2.556,0.0052
2.557,-0.0097
2.558,-0.023
2.559,-0.045
2.56,-0.0302
2.561,-0.0276
2.562,-0.0252
2.563,0.0079
2.564,0.0509
2.565,0.0566
2.566,0.041
2.567,0.0172
2.568,-0.013
2.569,-0.0326
2.57,-0.0432
2.571,-0.0337
2.572,-0.0188
2.573,0.0053
2.574,0.0279
2.575,0.0249
2.576,0.0224
2.577,0.0345
2.578,0.0323
2.579,0.0262
2.58,0.0317
2.581,0.0167
2.582,0.0066
2.583,0.0048
2.584,0.013
2.585,0.0266
2.586,0.0357
2.587,0.0308
2.588,0.0293
2.589,0.0088
2.59,-0.0238
2.591,-0.054
2.592,-0.0895
2.593,-0.1228
2.594,-0.1618
2.595,-0.1567
2.596,-0.1329
2.597,-0.1113
2.598,-0.1151
2.599,-0.0974
2.6,-0.0749
2.601,-0.0318
2.602,0.0127
2.603,0.0443
2.604,0.05
2.605,0.0551
2.606,0.0313
2.607,0.0185
2.608,-0.0011
2.609,-0.026
2.61,-0.0164
2.611,-0.0194
2.612,0.0209
2.613,0.0612
2.614,0.0768
2.615,0.0815
2.616,0.0687
2.617,0.0491
2.618,0.0456
2.619,0.0617
2.62,0.0705
2.621,0.0627
2.622,0.0359
2.623,0.0324
2.624,0.0356
2.625,0.0326
2.626,0.0193
2.627,0.0169
2.628,0.0235
2.629,0.0376
2.63,0.0467
2.631,0.055
2.632,0.0654
2.633,0.0694
2.634,0.066
2.635,0.0557
2.636,0.0544
2.637,0.0509
2.638,0.0431
2.639,0.048
2.64,0.0434
2.641,0.031
2.642,0.0255
2.643,0.0072
2.644,-0.0148
2.645,-0.0236
2.646,-0.0531
2.647,-0.0886
2.648,-0.0934
2.649,-0.0976
2.65,-0.0937
2.651,-0.0831
2.652,-0.078
2.653,-0.0749
2.654,-0.0542
2.655,-0.0516
2.656,-0.0395
2.657,-0.0285
2.658,-0.0144
2.659,-0.0419
2.66,-0.0381
2.661,-0.0274
2.662,-0.037
2.663,-0.0282
2.664,0.0013
2.665,0.0209
2.666,0.0031
2.667,-0.0064
2.668,0.0024
2.669,-0.0055
2.67,-0.0175
2.671,-0.0285
2.672,-0.0346
2.673,-0.0364
2.674,-0.0479
2.675,-0.0344
2.676,-0.0069
2.677,0.0205
2.678,0.0171
2.679,0.0139
2.68,0.011
2.681,-0.0023
2.682,0.0048
2.683,0.0158
2.684,0.042
2.685,0.0385
2.686,0.0224
2.687,0.0017
2.688,-0.0117
2.689,-0.0285
2.69,-0.0351
2.691,-0.0452
2.692,-0.047
2.693,-0.0388
2.694,-0.0223
2.695,0.0108
2.696,0.0346
2.697,0.013
2.698,0.0092
2.699,0.0057
2.7,0.0152
2.701,0.0182
2.702,0.0207
2.703,0.0238
2.704,0.0359
2.705,0.0381
2.706,0.0442
2.707,0.0497
2.708,0.0248
2.709,-0.0002
2.71,0.003
2.711,-0.0119
2.712,-0.0144
2.713,-0.0121
2.714,-0.0099
2.715,-0.0159
2.716,-0.0141
2.717,-0.0157
2.718,-0.0201
2.719,-0.0161
2.72,-0.015
2.721,-0.0183
2.722,-0.0174
2.723,-0.0128
2.724,-0.0104
2.725,-0.0034
2.726,0.0011
2.727,0.0086
2.728,0.0116
2.729,0.02
2.73,0.0302
2.731,0.0097
2.732,-0.011
2.733,-0.0135
2.734,-0.0064
2.735,0.0046
2.736,0.0268
2.737,0.0238
2.738,0.0105
2.739,-0.0115
2.74,-0.0263
2.741,-0.0342
2.742,-0.0221
2.743,-0.0067
2.744,-0.0128
2.745,-0.0146
2.746,-0.013
2.747,-0.0115
2.748,-0.0075
2.749,0.011
2.75,0.0136
2.751,0.0207
2.752,0.0273
2.753,0.0293
2.754,0.007
2.755,0.0088
2.756,0.0238
2.757,0.0339
2.758,0.0394
2.759,0.0312
2.76,0.0356
2.761,0.0178
2.762,-0.0186
2.763,-0.0342
2.764,-0.0485
2.765,-0.0613
2.766,-0.0258
2.767,-0.021
2.768,-0.0168
2.769,0.0028
2.77,0.0063
2.771,0.0031
2.772,-0.0056
2.773,-0.0082
2.774,-0.0058
2.775,0.0008
2.776,0.0068
2.777,-0.0023
2.778,-0.004
2.779,0.0064
2.78,0.016
2.781,0.022
2.782,0.0096
2.783,-0.0088
2.784,-0.0159
2.785,-0.0269
2.786,-0.0289
2.787,-0.0088
2.788,-0.0009
2.789,-0.0033
2.79,-0.0011
2.791,0.009
2.792,0.0072
2.793,-0.0011
2.794,-0.0055
2.795,-0.0042
2.796,0.0019
2.797,0.0097
2.798,0.0249
2.799,0.0315
2.8,0.0215
2.801,0.0123
2.802,0.0008
2.803,-0.0036
2.804,0.0059
2.805,0.018
2.806,0.0145
2.807,0.0112
2.808,0
2.809,-0.0196
2.81,-0.017
2.811,0.005
2.812,0.0138
2.813,-0.0049
2.814,-0.0269
2.815,-0.024
2.816,-0.0161
2.817,-0.0137
2.818,0.0194
2.819,0.0337
2.82,0.0209
2.821,0.0013
2.822,-0.0022
2.823,0.0009
2.824,0.0039
2.825,0.0013
2.826,0.0037
2.827,-0.0117
2.828,-0.0218
2.829,-0.0199
2.83,-0.0216
2.831,-0.0051
2.832,0.0059
2.833,-0.0002
2.834,-0.013
2.835,-0.0179
2.836,-0.0194
2.837,-0.0016
2.838,0.0055
2.839,0.0033
2.84,0.0134
2.841,0.0152
2.842,0.0268
2.843,0.0253
2.844,0.013
2.845,0.0081
2.846,-0.0023
2.847,-0.0011
2.848,-0.0045
2.849,-0.0056
2.85,0.0035
2.851,0.0096
2.852,-0.0029
2.853,-0.0078
2.854,-0.0093
2.855,-0.008
2.856,-0.0135
2.857,-0.0146
2.858,-0.0044
2.859,0.0107
2.86,0.0248
2.861,0.0193
2.862,0.0009
2.863,0.0033
2.864,0.0055
2.865,0.0035
2.866,0.0053
2.867,0.0037
2.868,-0.0007
2.869,0.0006
2.87,0.0017
2.871,0.005
2.872,0.0079
2.873,-0.006
2.874,-0.0241
2.875,-0.0265
2.876,-0.0155
2.877,-0.0095
2.878,-0.004
2.879,0.0042
2.88,0.0086
2.881,0.0074
2.882,0.0235
2.883,0.0169
2.884,0.031
2.885,0.0255
2.886,0.0039
2.887,-0.0229
2.888,-0.0335
2.889,-0.0496
2.89,-0.0467
2.891,-0.0441
2.892,-0.037
2.893,-0.0304
2.894,-0.0243
2.895,0.0031
2.896,0.0227
2.897,0.0262
2.898,0.0357
2.899,0.0269
2.9,0.0191
2.901,0.0215
2.902,0.0193
2.903,0.0213
2.904,0.0231
2.905,0.0149
2.906,0.0284
2.907,0.0319
2.908,0.0301
2.909,0.0317
2.91,0.0332
2.911,0.0264
2.912,0.0275
2.913,0.0105
2.914,-0.026
2.915,-0.0311
2.916,-0.0168
2.917,-0.021
2.918,-0.0249
2.919,-0.0283
2.92,-0.0315
2.921,-0.0403
2.922,-0.0377
2.923,-0.0305
2.924,-0.0062
2.925,0.0163
2.926,0.0489
2.927,0.0447
2.928,0.0251
2.929,0.0145
2.93,-0.0016
2.931,-0.0223
2.932,-0.0465
2.933,-0.0496
2.934,-0.0289
2.935,-0.0047
2.936,-0.0143
2.937,-0.0172
2.938,-0.0359
2.939,-0.0238
2.94,-0.0172
2.941,-0.0111
2.942,-0.0093
2.943,-0.0077
2.944,0.0059
2.945,0.0077
2.946,0.0193
2.947,0.0237
2.948,0.0332
2.949,0.0467
2.95,0.0522
2.951,0.0407
2.952,0.0302
2.953,0.0152
2.954,0.0052
2.955,-0.004
2.956,-0.0122
2.957,-0.0197
2.958,-0.0304
2.959,-0.0263
2.96,-0.0078
2.961,0.0108
2.962,0.0229
2.963,0.0207
2.964,-0.0014
2.965,-0.0044
2.966,-0.0069
2.967,-0.0141
2.968,-0.0294
2.969,-0.0153
2.97,-0.0025
2.971,-0.0009
2.972,-0.0113
2.973,-0.0263
2.974,-0.0203
2.975,-0.0148
2.976,-0.0197
2.977,-0.0153
2.978,-0.0141
2.979,-0.0106
2.98,-0.0027
2.981,0.0064
2.982,0.0149
2.983,0.0138
2.984,0.0147
2.985,0.0193
2.986,0.0268
2.987,0.0198
2.988,0.0059
2.989,-0.0042
2.99,-0.006
2.991,-0.0143
2.992,-0.0247
2.993,-0.0207
2.994,-0.0196
2.995,-0.0139
2.996,-0.0089
2.997,0.005
2.998,0.011
2.999,0.0055
3,0.0006
3.001,0.0081
3.002,-0.0042
3.003,-0.0025
3.004,-0.0069
3.005,-0.0056
3.006,-0.0168
3.007,-0.0064
3.008,-0.0186
3.009,-0.0172
3.01,-0.0056
3.011,0.0108
3.012,0.0218
3.013,0.0238
3.014,0.0293
3.015,0.0376
3.016,0.015
3.017,-0.0011
3.018,-0.0099
3.019,-0.0073
3.02,-0.0097
3.021,-0.0163
3.022,-0.0263
3.023,-0.0208
3.024,-0.0025
3.025,0.0096
3.026,0.0118
3.027,0.0138
3.028,0.0229
3.029,0.0246
3.03,0.026
3.031,0.0328
3.032,0.0389
3.033,0.024
3.034,0.0139
3.035,-0.0062
3.036,-0.0249
3.037,-0.0565
3.038,-0.0694
3.039,-0.0732
3.04,-0.0838
3.041,-0.0613
3.042,-0.0287
3.043,-0.0159
3.044,-0.0121
3.045,0.0057
3.046,0.035
3.047,0.0467
3.048,0.0502
3.049,0.0341
3.05,0.037
3.051,0.0291
3.052,0.0123
3.053,0.0013
3.054,-0.0007
3.055,-0.0025
3.056,-0.0042
3.057,0.0183
3.058,0.0476
3.059,0.0202
3.06,0.0121
3.061,0.0015
3.062,-0.0016
3.063,0.0013
3.064,0.0147
3.065,0.0171
3.066,0.0149
3.067,-0.0073
3.068,-0.028
3.069,-0.0467
3.07,-0.0443
3.071,-0.0243
3.072,-0.011
3.073,-0.0038
3.074,-0.0016
3.075,0.0004
3.076,-0.0088
3.077,-0.0104
3.078,-0.0119
3.079,-0.0023
3.08,0.0061
3.081,0.005
3.082,0.0059
3.083,0.0068
3.084,0.0075
3.085,0.0145
3.086,0.0172
3.087,0.0132
3.088,0.0079
3.089,-0.0023
3.09,-0.0128
3.091,-0.0168
3.092,-0.028
3.093,-0.0265
3.094,-0.017
3.095,-0.0058
3.096,0.0138
3.097,0.0216
3.098,0.024
3.099,0.0086
3.1,0.0107
3.101,0.0052
3.102,-0.0064
3.103,-0.0078
3.104,-0.0119
3.105,-0.0058
3.106,-0.0069
3.107,-0.0139
3.108,-0.0111
3.109,0.0013
3.11,-0.0042
3.111,-0.0077
3.112,-0.0159
3.113,-0.0055
3.114,-0.0177
3.115,-0.0194
3.116,0.0031
3.117,0.0257
3.118,0.0227
3.119,0.0414
3.12,0.0535
3.121,0.0513
3.122,0.0372
3.123,0.0207
3.124,0.0097
3.125,0.0037
3.126,-0.0055
3.127,-0.0238
3.128,-0.0359
3.129,-0.0424
3.13,-0.0485
3.131,-0.0613
3.132,-0.0531
3.133,-0.0305
3.134,-0.0274
3.135,-0.0245
3.136,0.005
3.137,0.0167
3.138,0.0273
3.139,0.0178
3.14,0.0207
3.141,0.0128
3.142,0.0105
3.143,0.0083
3.144,0.0103
3.145,0.0268
3.146,0.0246
3.147,0.0226
3.148,0.0207
3.149,-0.0009
3.15,-0.0097
3.151,-0.0018
3.152,-0.0042
3.153,0.0068
3.154,-0.0033
3.155,-0.0051
3.156,-0.0002
3.157,0.0103
3.158,0.0035
3.159,-0.0025
3.16,-0.0058
3.161,-0.015
3.162,-0.0091
3.163,-0.0152
3.164,-0.0027
3.165,0.0022
3.166,0.0187
3.167,0.0209
3.168,0.0189
3.169,0.0207
3.17,0.0257
3.171,0.0213
3.172,0.0008
3.173,-0.0141
3.174,-0.0166
3.175,-0.0335
3.176,-0.0357
3.177,-0.0256
3.178,-0.0274
3.179,-0.0091
3.18,-0.002
3.181,0.0046
3.182,0.0066
3.183,0.0085
3.184,0.0002
3.185,-0.0012
3.186,0
3.187,0.0035
3.188,0.0138
3.189,0.0178
3.19,0.0167
3.191,0.0178
3.192,0.0149
3.193,0.0121
3.194,0.0046
3.195,0.0017
3.196,0.0119
3.197,0.0079
3.198,0.0019
3.199,-0.013
3.2,-0.019
3.201,-0.0465
3.202,-0.0582
3.203,-0.0617
3.204,-0.0586
3.205,-0.0437
3.206,-0.0304
3.207,-0.0036
3.208,0.0141
3.209,0.0046
3.21,0.0017
3.211,0.0042
3.212,0.0262
3.213,0.037
3.214,0.0458
3.215,0.0592
3.216,0.0471
3.217,0.0537
3.218,0.0517
3.219,0.0389
3.22,0.0139
3.221,-0.0038
3.222,-0.0133
3.223,-0.0163
3.224,-0.0188
3.225,-0.026
3.226,-0.0282
3.227,-0.0302
3.228,-0.032
3.229,-0.017
3.23,-0.015
3.231,-0.0132
3.232,-0.0181
3.233,-0.0016
3.234,0.0006
3.235,0.0107
3.236,0.0308
3.237,0.0334
3.238,0.0213
3.239,0.0013
3.24,-0.0174
3.241,-0.0197
3.242,-0.0132
3.243,-0.0192
3.244,-0.0137
3.245,0.0013
3.246,0.0154
3.247,0.0063
3.248,0.0079
3.249,-0.0025
3.25,0.0125
3.251,0.0024
3.252,0.0006
3.253,0.0055
3.254,0.0099
3.255,0.0031
3.256,-0.0029
3.257,-0.0086
3.258,-0.0115
3.259,-0.0161
3.26,-0.0137
3.261,-0.0144
3.262,-0.0069
3.263,-0.0078
3.264,-0.0025
3.265,-0.0053
3.266,-0.006
3.267,0.0055
3.268,0.0304
3.269,0.0482
3.27,0.0387
3.271,0.0238
3.272,0.0105
3.273,0.0033
3.274,0.0011
3.275,-0.0049
3.276,-0.0104
3.277,-0.0219
3.278,-0.0355
3.279,-0.0373
3.28,-0.0456
3.281,-0.0531
3.282,-0.0381
3.283,-0.024
3.284,-0.0075
3.285,0.0035
3.286,0.0055
3.287,0.0074
3.288,0.009
3.289,0.0134
3.29,0.0121
3.291,0.0037
3.292,-0.0133
3.293,-0.0302
3.294,-0.0324
3.295,-0.0143
3.296,-0.0022
3.297,0.0044
3.298,0.0105
3.299,0.0013
3.3,-0.0036
3.301,-0.008
3.302,0.0042
3.303,0.0158
3.304,-0.0007
3.305,0.0059
3.306,0.02
3.307,0.0182
3.308,0.0264
3.309,0.0368
3.31,0.0356
3.311,0.0321
3.312,0.0264
3.313,0.0172
3.314,0.0088
3.315,-0.0055
3.316,-0.0111
3.317,0.0041
3.318,0.015
3.319,0.0291
3.32,0.0237
3.321,0.0187
3.322,0.0172
3.323,-0.0033
3.324,-0.024
3.325,-0.0265
3.326,-0.0289
3.327,-0.0223
3.328,-0.0324
3.329,-0.0196
3.33,-0.0113
3.331,0.0022
3.332,0.0114
3.333,0.0097
3.334,0.0053
3.335,-0.0097
3.336,-0.0117
3.337,-0.0062
3.338,-0.0111
3.339,-0.0126
3.34,-0.0058
3.341,-0.0047
3.342,-0.0104
3.343,-0.0133
3.344,-0.0069
3.345,0.0022
3.346,0.0158
3.347,0.0323
3.348,0.0301
3.349,0.02
3.35,0.0108
3.351,0.0059
3.352,-0.0106
3.353,-0.0128
3.354,-0.0229
3.355,-0.0283
3.356,-0.0201
3.357,-0.0097
3.358,0.0026
3.359,0.0108
3.36,0.0123
3.361,0.011
3.362,-0.0075
3.363,-0.0153
3.364,-0.013
3.365,-0.002
3.366,-0.0003
3.367,0.0138
3.368,0.0412
3.369,0.0687
3.37,0.0652
3.371,0.0491
3.372,0.0165
3.373,-0.0051
3.374,-0.0089
3.375,-0.0267
3.376,-0.0298
3.377,-0.0327
3.378,-0.0406
3.379,-0.0186
3.38,0.0259
3.381,0.0575
3.382,0.0863
3.383,0.0811
3.384,0.0669
3.385,0.0193
3.386,-0.0124
3.387,-0.0527
3.388,-0.0999
3.389,-0.1443
3.39,-0.1845
3.391,-0.1897
3.392,-0.1849
3.393,-0.1633
3.394,-0.1516
3.395,-0.1122
3.396,-0.0756
3.397,-0.023
3.398,0.0401
3.399,0.0654
3.4,0.0885
3.401,0.0676
3.402,0.0487
3.403,0.0431
3.404,0.0379
3.405,0.0332
3.406,0.0548
3.407,0.0509
3.408,0.0616
3.409,0.0777
3.41,0.0689
3.411,0.061
3.412,0.0634
3.413,0.0302
3.414,0.0255
3.415,0.0297
3.416,0.0572
3.417,0.0656
3.418,0.055
3.419,0.0581
3.42,0.061
3.421,0.0636
3.422,0.0467
3.423,0.0268
3.424,0.0242
3.425,0.0022
3.426,0.0052
3.427,0.0026
3.428,0.005
3.429,-0.015
3.43,-0.0175
3.431,-0.0007
3.432,0.0147
3.433,0.0368
3.434,0.0636
3.435,0.0813
3.436,0.0718
3.437,0.057
3.438,0.0383
3.439,0.0262
3.44,0.0019
3.441,-0.0077
3.442,-0.0344
3.443,-0.0593
3.444,-0.0886
3.445,-0.0924
3.446,-0.0747
3.447,-0.0652
3.448,-0.0564
3.449,-0.0485
3.45,-0.0509
3.451,-0.0575
3.452,-0.0796
3.453,-0.0825
3.454,-0.0639
3.455,-0.0567
3.456,-0.0413
3.457,-0.0232
3.458,-0.0161
3.459,-0.0183
3.46,-0.0283
3.461,-0.0302
3.462,-0.0252
3.463,-0.0208
3.464,-0.0058
3.465,0.0042
3.466,0.0171
3.467,0.0253
3.468,0.0172
3.469,0.0097
3.47,0.0193
3.471,0.0304
3.472,0.029
3.473,0.0249
3.474,0.0284
3.475,0.0205
3.476,0.0357
3.477,0.0379
3.478,0.0198
3.479,0.003
3.48,-0.008
3.481,-0.0141
3.482,-0.0159
3.483,-0.0208
3.484,-0.0252
3.485,-0.0348
3.486,-0.0263
3.487,-0.023
3.488,-0.0181
3.489,-0.0135
3.49,-0.0111
3.491,-0.0027
3.492,-0.0016
3.493,-0.0025
3.494,-0.0016
3.495,-0.004
3.496,-0.0002
3.497,0.0101
3.498,0.0116
3.499,0.0211
3.5,0.0246
3.501,0.0257
3.502,0.0187
3.503,0.0141
3.504,0.0101
3.505,0.0108
3.506,0.0019
3.507,-0.0066
3.508,-0.019
3.509,-0.024
3.51,-0.0104
3.511,-0.0012
3.512,0.0138
3.513,0.0158
3.514,0.0286
3.515,0.0136
3.516,0.0156
3.517,0.0101
3.518,0.0052
3.519,0.0004
3.52,0.0108
3.521,0.0176
3.522,0.0211
3.523,0.0313
3.524,0.0191
3.525,-0.0058
3.526,-0.0164
3.527,-0.039
3.528,-0.0597
3.529,-0.0622
3.53,-0.0551
3.531,-0.0573
3.532,-0.0432
3.533,-0.023
3.534,0.0064
3.535,0.026
3.536,0.0509
3.537,0.0478
3.538,0.039
3.539,0.0257
3.54,0.0136
3.541,0.007
3.542,-0.0031
3.543,0.0061
3.544,0.0044
3.545,0
3.546,-0.0067
3.547,0.0068
3.548,0.0086
3.549,0.0237
3.55,0.0136
3.551,0.0118
3.552,0.0167
3.553,0.0211
3.554,0.0224
3.555,0.0139
3.556,-0.0009
3.557,-0.0069
3.558,-0.0161
3.559,-0.0177
3.56,-0.0221
3.561,-0.0234
3.562,-0.0199
3.563,-0.0143
3.564,-0.0113
3.565,-0.0177
3.566,-0.0201
3.567,-0.0148
3.568,-0.0115
3.569,-0.0058
3.57,0.0019
3.571,0.0057
3.572,0.016
3.573,0.0324
3.574,0.0302
3.575,0.0282
3.576,0.0337
3.577,0.0088
3.578,-0.0161
3.579,-0.0256
3.58,-0.0168
3.581,-0.0143
3.582,-0.0071
3.583,-0.0137
3.584,-0.0238
3.585,-0.0293
3.586,-0.0309
3.587,-0.0265
3.588,-0.0225
3.589,-0.019
3.59,-0.0201
3.591,-0.011
3.592,-0.0025
3.593,0.0031
3.594,0.0002
3.595,0.0066
3.596,0.0123
3.597,0.013
3.598,0.0097
3.599,0.0092
3.6,0.013
3.601,0.0163
3.602,0.0205
3.603,0.0167
3.604,0.0171
3.605,0.0128
3.606,0.0055
3.607,-0.0014
3.608,-0.0078
3.609,-0.0022
3.61,-0.006
3.611,-0.0042
3.612,-0.006
3.613,-0.0022
3.614,0.0053
3.615,0.0086
3.616,0.0057
3.617,0.0085
3.618,-0.004
3.619,-0.0168
3.62,-0.0185
3.621,-0.0003
3.622,0.0101
3.623,0.0306
3.624,0.0394
3.625,0.0315
3.626,0.0291
3.627,0.0269
3.628,0.0169
3.629,-0.0033
3.63,-0.0435
3.631,-0.0492
3.632,-0.0441
3.633,-0.0298
3.634,-0.0256
3.635,-0.0218
3.636,-0.0183
3.637,-0.0152
3.638,-0.0181
3.639,-0.0155
3.64,-0.0084
3.641,0.0026
3.642,0.0006
3.643,0.0061
3.644,0.011
3.645,0.0066
3.646,-0.0002
3.647,-0.0086
3.648,-0.0256
3.649,-0.0185
3.65,-0.0075
3.651,-0.0014
3.652,0.0114
3.653,0.013
3.654,0.0116
3.655,0.0128
3.656,0.0163
3.657,0.013
3.658,0.0061
3.659,0.0015
3.66,0.0039
3.661,0.0061
3.662,0.0042
3.663,-0.0027
3.664,0.0019
3.665,0.0026
3.666,0.0033
3.667,-0.0012
3.668,0.0083
3.669,0.0178
3.67,0.0262
3.671,0.0205
3.672,0.0268
3.673,0.0116
3.674,0.005
3.675,0.011
3.676,0.0128
3.677,0.0244
3.678,0.02
3.679,0.0105
3.68,-0.0056
3.681,-0.021
3.682,-0.019
3.683,-0.0245
3.684,-0.0196
3.685,-0.0181
3.686,-0.0113
3.687,-0.0124
3.688,-0.0045
3.689,0.0004
3.69,-0.0042
3.691,-0.0018
3.692,-0.0102
3.693,-0.0091
3.694,-0.0121
3.695,-0.0075
3.696,-0.0034
3.697,0.0004
3.698,0.0037
3.699,0.0019
3.7,0.0035
3.701,0.011
3.702,0.0189
3.703,0.016
3.704,0.0114
3.705,0.0057
3.706,-0.0012
3.707,-0.0115
3.708,-0.0155
3.709,-0.0144
3.71,-0.0042
3.711,-0.0029
3.712,-0.0018
3.713,-0.0143
3.714,-0.0126
3.715,-0.0111
3.716,-0.0099
3.717,-0.0014
3.718,0.0088
3.719,0.0101
3.72,0.0112
3.721,0.0055
3.722,0.0167
3.723,0.0187
3.724,0.0112
3.725,0.0072
3.726,0.0132
3.727,0.0165
3.728,0.0235
3.729,0.0244
3.73,0.0119
3.731,-0.0155
3.732,-0.0038
3.733,0.0068
3.734,-0.0027
3.735,-0.0056
3.736,0.0022
3.737,-0.0197
3.738,-0.0346
3.739,-0.0641
3.74,-0.0679
3.741,-0.0573
3.742,-0.0604
3.743,-0.0575
3.744,-0.0549
3.745,-0.0185
3.746,0.0077
3.747,0.0315
3.748,0.0531
3.749,0.0493
3.75,0.0528
3.751,0.0432
3.752,0.0403
3.753,0.0324
3.754,0.0253
3.755,0.0099
3.756,-0.0002
3.757,0.0017
3.758,-0.0033
3.759,-0.0168
3.76,-0.0186
3.761,-0.0104
3.762,-0.006
3.763,-0.01
3.764,0.0011
3.765,0.0086
3.766,0.0046
3.767,0.0011
3.768,0.0022
3.769,0.0052
3.77,0.0079
3.771,0.0136
3.772,0.0114
3.773,0.0096
3.774,0.0041
3.775,-0.0029
3.776,0.011
3.777,0.0251
3.778,0.0306
3.779,0.0156
3.78,-0.0025
3.781,-0.0097
3.782,-0.0119
3.783,-0.0139
3.784,-0.0121
3.785,-0.0203
3.786,-0.0099
3.787,-0.0139
3.788,-0.0174
3.789,-0.0141
3.79,-0.0071
3.791,-0.0062
3.792,-0.0086
3.793,-0.0078
3.794,0.0024
3.795,0.0128
3.796,0.0006
3.797,-0.0144
3.798,-0.0084
3.799,0.0008
3.8,0.0191
3.801,0.0215
3.802,0.028
3.803,0.026
3.804,0.0096
3.805,-0.0058
3.806,-0.0159
3.807,-0.0397
3.808,-0.0428
3.809,-0.0221
3.81,0.002
3.811,-0.0011
3.812,0.0077
3.813,0.0103
3.814,-0.0018
3.815,-0.0349
3.816,-0.0683
3.817,-0.0725
3.818,-0.0686
3.819,-0.0509
3.82,-0.0152
3.821,0.0182
3.822,0.031
3.823,0.0427
3.824,0.0392
3.825,0.037
3.826,0.0401
3.827,0.0489
3.828,0.0464
3.829,0.0632
3.83,0.0478
3.831,0.0176
3.832,0.0048
3.833,0.0086
3.834,0.0121
3.835,-0.004
3.836,-0.0069
3.837,-0.0256
3.838,-0.0573
3.839,-0.0445
3.84,-0.0327
3.841,-0.0362
3.842,-0.0331
3.843,-0.0243
3.844,-0.0002
3.845,0.0094
3.846,0.0242
3.847,0.0163
3.848,0.0139
3.849,0.003
3.85,0.005
3.851,0.0068
3.852,0.0085
3.853,0.0099
3.854,0.0139
3.855,0.0174
3.856,0.0118
3.857,0.0026
3.858,-0.0058
3.859,-0.0047
3.86,-0.0018
3.861,0.0103
3.862,0.0152
3.863,0.0077
3.864,-0.0018
3.865,-0.0078
3.866,0
3.867,-0.0009
3.868,-0.0093
3.869,-0.0082
3.87,-0.0053
3.871,-0.0117
3.872,-0.006
3.873,-0.0175
3.874,-0.0192
3.875,-0.0177
3.876,-0.0047
3.877,0.002
3.878,0.0182
3.879,0.0381
3.88,0.0407
3.881,0.0383
3.882,0.0183
3.883,-0.0003
3.884,-0.0027
3.885,-0.0137
3.886,-0.0117
3.887,-0.0172
3.888,-0.0188
3.889,-0.0144
3.89,-0.0049
3.891,0.0035
3.892,0.0024
3.893,0.0116
3.894,0.0081
3.895,0.0002
3.896,-0.0067
3.897,-0.0188
3.898,-0.0304
3.899,-0.0348
3.9,-0.0335
3.901,-0.0251
3.902,-0.024
3.903,-0.023
3.904,-0.0185
3.905,-0.0161
3.906,-0.0153
3.907,-0.0051
3.908,-0.0007
3.909,0.0061
3.91,0.0246
3.911,0.0271
3.912,0.0392
3.913,0.0238
3.914,0.0097
3.915,-0.0031
3.916,-0.0047
3.917,0.0088
3.918,0.0143
3.919,0.0359
3.92,0.0389
3.921,0.0363
3.922,0.0339
3.923,0.0185
3.924,0.0044
3.925,-0.0157
3.926,-0.0236
3.927,-0.0274
3.928,-0.0346
3.929,-0.028
3.93,-0.0058
3.931,0.0149
3.932,0.0227
3.933,0.0348
3.934,0.0414
3.935,0.0515
3.936,0.0387
3.937,0.0138
3.938,-0.0185
3.939,-0.0227
3.94,-0.0265
3.941,-0.03
3.942,-0.0395
3.943,-0.0307
3.944,-0.0441
3.945,-0.037
3.946,-0.0304
3.947,-0.0283
3.948,-0.0082
3.949,0.0105
3.95,0.0372
3.951,0.0194
3.952,0.0226
3.953,0.0196
3.954,0.0171
3.955,0.0194
3.956,0.0128
3.957,0.0028
3.958,0.0046
3.959,-0.0069
3.96,-0.0113
3.961,-0.0236
3.962,-0.0121
3.963,-0.0077
3.964,-0.0009
3.965,0.0052
3.966,-0.0005
3.967,-0.0055
3.968,-0.0139
3.969,-0.0106
3.97,-0.0077
3.971,-0.0104
3.972,-0.0128
3.973,-0.0012
3.974,0.0204
3.975,0.0174
3.976,0.0149
3.977,0.0125
3.978,0.0158
3.979,0.0136
3.98,0.0357
3.981,0.0445
3.982,0.0579
3.983,0.0508
3.984,0.0176
3.985,-0.0157
3.986,-0.0459
3.987,-0.0734
3.988,-0.0769
3.989,-0.0608
3.99,-0.0459
3.991,-0.0326
3.992,-0.0205
3.993,-0.0051
3.994,0.005
3.995,0.0178
3.996,0.0096
3.997,0.0139
3.998,0.0207
3.999,0.0172
4,0.0251
4.001,0.028
4.002,0.0216
4.003,0.0092
4.004,0.011
4.005,0.0061
4.006,0.0017
4.007,-0.0133
4.008,-0.0315
4.009,-0.0483
4.01,-0.0417
4.011,-0.0236
4.012,-0.0016
4.013,0.0072
4.014,0.0205
4.015,0.0326
4.016,0.0216
4.017,0.0035
4.018,-0.0036
4.019,-0.0058
4.02,0.0002
4.021,0.0057
4.022,0.0107
4.023,-0.0029
4.024,-0.0157
4.025,-0.0075
4.026,0.009
4.027,0.0112
4.028,0.0334
4.029,0.0421
4.03,0.0334
4.031,0.0412
4.032,0.0291
4.033,0.0313
4.034,0.0334
4.035,0.0132
4.036,-0.0002
4.037,-0.0122
4.038,-0.0276
4.039,-0.0337
4.04,-0.0245
4.041,-0.0196
4.042,-0.036
4.043,-0.0338
4.044,-0.0117
4.045,-0.0029
4.046,-0.0055
4.047,-0.0078
4.048,-0.0144
4.049,-0.0245
4.05,-0.03
4.051,-0.0349
4.052,-0.0245
4.053,-0.0177
4.054,-0.0042
4.055,0.0123
4.056,0.0189
4.057,0.0088
4.058,0.018
4.059,0.0163
4.06,0.0207
4.061,0.0302
4.062,0.0337
4.063,0.0259
4.064,0.0189
4.065,0.0125
4.066,0
4.067,-0.0128
4.068,-0.0377
4.069,-0.0626
4.07,-0.0721
4.071,-0.0514
4.072,-0.0273
4.073,-0.0047
4.074,0.016
4.075,0.0134
4.076,0.0063
4.077,0.0128
4.078,0.0189
4.079,0.0207
4.08,0.026
4.081,0.0343
4.082,0.0299
4.083,0.0449
4.084,0.0348
4.085,0.0367
4.086,0.0517
4.087,0.0335
4.088,0.0068
4.089,-0.011
4.09,-0.0205
4.091,-0.0175
4.092,-0.0309
4.093,-0.0238
4.094,-0.0216
4.095,-0.0155
4.096,-0.0027
4.097,-0.0011
4.098,0.0033
4.099,-0.0117
4.1,-0.0258
4.101,-0.0276
4.102,-0.0194
4.103,-0.0238
4.104,-0.0333
4.105,-0.0445
4.106,-0.0459
4.107,-0.0282
4.108,-0.0113
4.109,0.0086
4.11,0.0273
4.111,0.0394
4.112,0.0416
4.113,0.0275
4.114,0.0147
4.115,0.0031
4.116,0.0227
4.117,0.0253
4.118,0.0085
4.119,-0.0025
4.12,-0.0086
4.121,0.0006
4.122,0.0055
4.123,0.013
4.124,0.0143
4.125,0.0008
4.126,-0.0157
4.127,-0.0311
4.128,-0.0291
4.129,-0.0199
4.13,-0.0117
4.131,0.0011
4.132,0.0086
4.133,0.0154
4.134,0.0266
4.135,0.0341
4.136,0.0273
4.137,0.0088
4.138,0.0063
4.139,0.0039
4.14,0.0017
4.141,-0.0124
4.142,-0.0069
4.143,-0.002
4.144,-0.0095
4.145,-0.0082
4.146,-0.0022
4.147,-0.0124
4.148,-0.0302
4.149,-0.0326
4.15,-0.0304
4.151,-0.0404
4.152,-0.0349
4.153,-0.01
4.154,0.0077
4.155,0.0172
4.156,0.0143
4.157,0.0118
4.158,-0.0003
4.159,-0.0113
4.16,-0.0093
4.161,-0.0002
4.162,0.0114
4.163,0.007
4.164,0.0083
4.165,0.0072
4.166,0.0039
4.167,0.0009
4.168,0.0019
4.169,-0.0089
4.17,-0.0104
4.171,-0.0117
4.172,-0.0106
4.173,-0.0049
4.174,-0.0099
4.175,-0.0089
4.176,-0.0014
4.177,-0.0005
4.178,0.0041
4.179,0.0081
4.18,0.015
4.181,0.0271
4.182,0.029
4.183,0.0306
4.184,0.035
4.185,0.0337
4.186,0.0302
4.187,0.0132
4.188,-0.0036
4.189,-0.0058
4.19,-0.0038
4.191,-0.0056
4.192,-0.0172
4.193,-0.0157
4.194,-0.0117
4.195,-0.0106
4.196,-0.0073
4.197,-0.0064
4.198,-0.0091
4.199,-0.0099
4.2,-0.006
4.201,-0.0122
4.202,-0.0146
4.203,-0.0168
4.204,-0.0186
4.205,-0.023
4.206,-0.0203
4.207,-0.0128
4.208,0.0042
4.209,0.031
4.21,0.0345
4.211,0.0249
4.212,0.0161
4.213,0.0083
4.214,0.0011
4.215,-0.0011
4.216,0.0009
4.217,0.0028
4.218,-0.0055
4.219,-0.013
4.22,-0.0225
4.221,-0.0113
4.222,-0.0038
4.223,0.0002
4.224,0.0013
4.225,-0.0066
4.226,-0.0056
4.227,0.0064
4.228,0.0147
4.229,0.0132
4.23,0.0119
4.231,0.0035
4.232,0.0205
4.233,0.0392
4.234,0.0416
4.235,0.0482
4.236,0.0341
4.237,0.0066
4.238,-0.0051
4.239,-0.0229
4.24,-0.0454
4.241,-0.0542
4.242,-0.062
4.243,-0.0353
4.244,-0.0247
4.245,-0.0086
4.246,0.0182
4.247,0.0288
4.248,0.0449
4.249,0.0361
4.25,0.044
4.251,0.0511
4.252,0.0401
4.253,0.022
4.254,0.0149
4.255,0.0039
4.256,-0.0022
4.257,0.0143
4.258,0.0253
4.259,0.0313
4.26,0.0259
4.261,0.0042
4.262,-0.0283
4.263,-0.0674
4.264,-0.0829
4.265,-0.1162
4.266,-0.1465
4.267,-0.1503
4.268,-0.1538
4.269,-0.1569
4.27,-0.1362
4.271,-0.1175
4.272,-0.0811
4.273,-0.0549
4.274,-0.0216
4.275,0.0348
4.276,0.0425
4.277,0.0216
4.278,0.0154
4.279,0.0097
4.28,0.0253
4.281,0.0301
4.282,0.0343
4.283,0.0539
4.284,0.0707
4.285,0.0813
4.286,0.1039
4.287,0.0951
4.288,0.0764
4.289,0.0643
4.29,0.0709
4.291,0.0729
4.292,0.0784
4.293,0.0833
4.294,0.0638
4.295,0.0559
4.296,0.0438
4.297,0.0284
4.298,0.0063
4.299,-0.0144
4.3,-0.0119
4.301,0.0002
4.302,0.0068
4.303,0.0249
4.304,0.0614
4.305,0.0665
4.306,0.0617
4.307,0.0489
4.308,0.0528
4.309,0.0421
4.31,0.0453
4.311,0.072
4.312,0.0969
4.313,0.0874
4.314,0.0667
4.315,0.0317
4.316,-0.0016
4.317,-0.0406
4.318,-0.0668
4.319,-0.0906
4.32,-0.1122
4.321,-0.1161
4.322,-0.1126
4.323,-0.1095
4.324,-0.1065
4.325,-0.1091
4.326,-0.097
4.327,-0.0948
4.328,-0.0727
4.329,-0.0459
4.33,-0.0282
4.331,-0.0121
4.332,-0.015
4.333,-0.0175
4.334,-0.0199
4.335,-0.0099
4.336,-0.0077
4.337,0.0064
4.338,0.0119
4.339,0.0169
4.34,0.0213
4.341,0.02
4.342,0.0064
4.343,0.0193
4.344,0.0143
4.345,0.0099
4.346,-0.0051
4.347,-0.0273
4.348,-0.0421
4.349,-0.0342
4.35,-0.0318
4.351,-0.0296
4.352,-0.0276
4.353,-0.0221
4.354,-0.0005
4.355,0.0024
4.356,0.0103
4.357,0.0224
4.358,0.0334
4.359,0.0354
4.36,0.0299
4.361,0.0282
4.362,0.0238
4.363,0.0143
4.364,0.0108
4.365,-0.004
4.366,-0.002
4.367,0.0072
4.368,0.0154
4.369,0.0259
4.37,0.0354
4.371,0.0293
4.372,0.0169
4.373,0.0053
4.374,0.0039
4.375,-0.0029
4.376,-0.0089
4.377,-0.0168
4.378,-0.0119
4.379,-0.0146
4.38,-0.0221
4.381,-0.0271
4.382,-0.0168
4.383,0.0037
4.384,0.0185
4.385,0.0264
4.386,0.0341
4.387,0.0269
4.388,0.0204
4.389,0.0224
4.39,0.0096
4.391,0.0079
4.392,0.0035
4.393,-0.006
4.394,-0.0245
4.395,-0.0058
4.396,-0.0034
4.397,0.0119
4.398,0.0139
4.399,0.0048
4.4,-0.0067
4.401,-0.0232
4.402,-0.0166
4.403,-0.0066
4.404,-0.0011
4.405,0.0006
4.406,0.0081
4.407,0.0094
4.408,0.0009
4.409,-0.0002
4.41,0.009
4.411,0.0226
4.412,0.0427
4.413,0.0293
4.414,0.0222
4.415,0.0068
4.416,-0.0113
4.417,-0.0381
4.418,-0.0558
4.419,-0.0589
4.42,-0.0677
4.421,-0.0652
4.422,-0.0483
4.423,-0.0329
4.424,-0.0349
4.425,-0.0404
4.426,-0.0221
4.427,-0.0053
4.428,0.0147
4.429,0.0334
4.43,0.0357
4.431,0.0467
4.432,0.0487
4.433,0.0432
4.434,0.0449
4.435,0.0524
4.436,0.0456
4.437,0.0341
4.438,0.0156
4.439,0.0077
4.44,0.0198
4.441,0.0176
4.442,0.0075
4.443,-0.0053
4.444,-0.0135
4.445,-0.0121
4.446,-0.0216
4.447,-0.03
4.448,-0.0152
4.449,-0.0091
4.45,0
4.451,-0.0016
4.452,0.0088
4.453,0.0075
4.454,0.0064
4.455,-0.0084
4.456,-0.0104
4.457,-0.0196
4.458,-0.0212
4.459,-0.0256
4.46,-0.0269
4.461,-0.0258
4.462,-0.0201
4.463,-0.0333
4.464,-0.0278
4.465,-0.0062
4.466,0.0086
4.467,0.022
4.468,0.0149
4.469,0.0215
4.47,0.0235
4.471,0.018
4.472,0.013
4.473,-0.0005
4.474,-0.0133
4.475,-0.0117
4.476,-0.0132
4.477,-0.0036
4.478,0.0149
4.479,0.0335
4.48,0.0215
4.481,0.0015
4.482,-0.0064
4.483,-0.0135
4.484,-0.0245
4.485,-0.0346
4.486,-0.0291
4.487,-0.0141
4.488,-0.0091
4.489,-0.0031
4.49,0.0244
4.491,0.0361
4.492,0.0326
4.493,0.0487
4.494,0.0339
4.495,0.0313
4.496,0.0242
4.497,0.0088
4.498,0.0108
4.499,0.0017
4.5,-0.0166
4.501,-0.0335
4.502,-0.0313
4.503,-0.0373
4.504,-0.0318
4.505,-0.0203
4.506,-0.0159
4.507,-0.0146
4.508,-0.0181
4.509,-0.0214
4.51,-0.0164
4.511,-0.021
4.512,-0.0119
4.513,-0.0007
4.514,0.0158
4.515,0.0224
4.516,0.0204
4.517,0.0185
4.518,0.0103
4.519,0.0028
4.52,0.0041
4.521,0.003
4.522,-0.0119
4.523,-0.0139
4.524,-0.0084
4.525,-0.01
4.526,0.0125
4.527,0.0156
4.528,0.0068
4.529,0.0094
4.53,0.007
4.531,-0.004
4.532,0.0262
4.533,0.0304
4.534,0.0187
4.535,-0.0062
4.536,-0.0157
4.537,-0.0364
4.538,-0.023
4.539,-0.0245
4.54,-0.0316
4.541,-0.0163
4.542,-0.0183
4.543,-0.0055
4.544,0.0096
4.545,0.0156
4.546,0.0138
4.547,0.0253
4.548,0.0209
4.549,0.0196
4.55,0.0185
4.551,0.0264
4.552,0.0112
4.553,0.0002
4.554,0.0022
4.555,-0.0033
4.556,-0.0082
4.557,-0.0067
4.558,-0.019
4.559,-0.0174
4.56,-0.0099
4.561,0.0052
4.562,0.0273
4.563,0.0244
4.564,0.0269
4.565,0.005
4.566,-0.0218
4.567,-0.0324
4.568,-0.0229
4.569,-0.0141
4.57,-0.0062
4.571,-0.0038
4.572,0.0028
4.573,0.0008
4.574,-0.0047
4.575,-0.0163
4.576,-0.0058
4.577,0.0037
4.578,0.0198
4.579,0.022
4.58,0.02
4.581,0.0218
4.582,0.0202
4.583,0.0127
4.584,-0.0078
4.585,-0.0049
4.586,-0.0023
4.587,-0.0144
4.588,-0.0166
4.589,0.0015
4.59,0.0187
4.591,0.0116
4.592,0.0182
4.593,0.0282
4.594,0.0301
4.595,0.0251
4.596,0.0116
4.597,-0.0159
4.598,-0.0355
4.599,-0.032
4.6,-0.0289
4.601,-0.0318
4.602,-0.0132
4.603,-0.0011
4.604,0.0099
4.605,0.0119
4.606,0.0138
4.607,0.0121
4.608,-0.0075
4.609,-0.0153
4.61,-0.0177
4.611,-0.0155
4.612,-0.0175
4.613,-0.0121
4.614,0.0128
4.615,0.0163
4.616,0.0068
4.617,-0.002
4.618,0.0006
4.619,-0.0018
4.62,-0.0128
4.621,-0.0229
4.622,-0.01
4.623,-0.0018
4.624,0.0118
4.625,0.0136
4.626,0.0152
4.627,0.0048
4.628,0.0035
4.629,0.007
4.63,-0.01
4.631,-0.0269
4.632,-0.0335
4.633,-0.0315
4.634,-0.026
4.635,-0.011
4.636,-0.0009
4.637,0.0009
4.638,-0.004
4.639,0.0125
4.64,0.0191
4.641,0.0187
4.642,-0.0034
4.643,0.0172
4.644,0.0359
4.645,0.048
4.646,0.0546
4.647,0.0526
4.648,0.0398
4.649,0.0149
4.65,-0.0029
4.651,-0.006
4.652,-0.0148
4.653,-0.0174
4.654,-0.0197
4.655,-0.0219
4.656,-0.032
4.657,-0.0412
4.658,-0.0362
4.659,-0.0137
4.66,-0.0106
4.661,-0.0194
4.662,0.0048
4.663,0.0079
4.664,0.005
4.665,-0.0029
4.666,-0.0053
4.667,-0.0075
4.668,-0.0377
4.669,-0.0161
4.67,0.0035
4.671,0
4.672,0.0161
4.673,0.0074
4.674,0.0152
4.675,0.0128
4.676,0.015
4.677,0.0251
4.678,0.0269
4.679,0.0119
4.68,0.0099
4.681,0.0044
4.682,0.0028
4.683,-0.0077
4.684,-0.0117
4.685,-0.0033
4.686,-0.0111
4.687,-0.0102
4.688,-0.013
4.689,-0.0122
4.69,-0.0161
4.691,-0.0263
4.692,-0.0216
4.693,-0.0111
4.694,0.0094
4.695,0.0301
4.696,0.0434
4.697,0.0603
4.698,0.0581
4.699,0.0279
4.7,0.015
4.701,-0.0045
4.702,-0.008
4.703,-0.0175
4.704,-0.0027
4.705,0.0052
4.706,0.0075
4.707,-0.0034
4.708,-0.0256
4.709,-0.0404
4.71,-0.043
4.711,-0.0454
4.712,-0.03
4.713,-0.024
4.714,0.0035
4.715,-0.0003
4.716,0.0031
4.717,0.0063
4.718,-0.0144
4.719,-0.0119
4.72,-0.0047
4.721,0.0063
4.722,0.0123
4.723,0.0068
4.724,0.0052
4.725,-0.0084
4.726,0.0008
4.727,0.0024
4.728,0.016
4.729,0.0068
4.73,0.0183
4.731,0.0227
4.732,0.0132
4.733,0.0143
4.734,0.0176
4.735,0.0044
4.736,0.0026
4.737,-0.0023
4.738,-0.0009
4.739,-0.0022
4.74,-0.0011
4.741,-0.0067
4.742,-0.0117
4.743,0.0019
4.744,-0.0102
4.745,0.0081
4.746,0.0057
4.747,0.0167
4.748,0.0187
4.749,0.0169
4.75,0.0086
4.751,0.0072
4.752,0.0112
4.753,0.0052
4.754,-0.0073
4.755,-0.0122
4.756,-0.0166
4.757,-0.0289
4.758,-0.0338
4.759,-0.0234
4.76,-0.0139
4.761,-0.0104
4.762,-0.0071
4.763,-0.0042
4.764,-0.0088
4.765,-0.008
4.766,0.0035
4.767,0.0085
4.768,0.0041
4.769,-0.0027
4.77,-0.0016
4.771,-0.0005
4.772,0.0107
4.773,0.0182
4.774,0.0031
4.775,-0.011
4.776,-0.0274
4.777,-0.0296
4.778,-0.0034
4.779,0
4.78,0.0226
4.781,0.0374
4.782,0.0453
4.783,0.0332
4.784,0.0088
4.785,-0.0007
4.786,-0.0095
4.787,-0.0121
4.788,-0.0192
4.789,-0.0258
4.79,-0.0278
4.791,-0.0333
4.792,-0.0415
4.793,-0.0219
4.794,-0.0135
4.795,-0.0056
4.796,0.0064
4.797,0.0264
4.798,0.0398
4.799,0.0421
4.8,0.0356
4.801,0.0295
4.802,0.0313
4.803,0.0231
4.804,0.0156
4.805,0.0033
4.806,-0.0117
4.807,-0.0258
4.808,-0.0276
4.809,-0.0227
4.81,-0.0062
4.811,0.0004
4.812,0.0064
4.813,0.0009
4.814,-0.0207
4.815,-0.0236
4.816,0.0006
4.817,0.0101
4.818,0.013
4.819,0.0052
4.82,-0.0069
4.821,-0.0047
4.822,-0.0067
4.823,0.0024
4.824,0.0041
4.825,0.0085
4.826,0.0152
4.827,0.0118
4.828,0.0174
4.829,0.0165
4.83,0.0026
4.831,-0.0276
4.832,-0.0318
4.833,-0.0357
4.834,-0.0392
4.835,-0.036
4.836,-0.0331
4.837,-0.0252
4.838,-0.0132
4.839,-0.011
4.84,0.0031
4.841,0.0086
4.842,0.007
4.843,-0.0005
4.844,-0.0155
4.845,-0.0084
4.846,-0.0064
4.847,0.0138
4.848,0.0379
4.849,0.054
4.85,0.0689
4.851,0.061
4.852,0.0442
4.853,0.0198
4.854,0.0037
4.855,0.0008
4.856,-0.0018
4.857,-0.0089
4.858,-0.0155
4.859,-0.0135
4.86,-0.0227
4.861,-0.0144
4.862,-0.01
4.863,-0.0005
4.864,-0.004
4.865,-0.0007
4.866,-0.0056
4.867,-0.0066
4.868,-0.0141
4.869,-0.017
4.87,-0.0106
4.871,-0.0099
4.872,-0.0199
4.873,-0.0132
4.874,-0.0047
4.875,-0.0014
4.876,-0.0166
4.877,-0.0276
4.878,-0.0175
4.879,-0.0121
4.88,0.0128
4.881,0.0235
4.882,0.0266
4.883,0.0295
4.884,0.0269
4.885,0.0002
4.886,-0.0033
4.887,0.0128
4.888,0.0277
4.889,0.0356
4.89,0.0187
4.891,0.0253
4.892,0.0313
4.893,0.0295
4.894,0.0079
4.895,-0.0247
4.896,-0.0399
4.897,-0.0701
4.898,-0.0663
4.899,-0.0556
4.9,-0.0525
4.901,-0.0199
4.902,0.0017
4.903,0.0213
4.904,0.0107
4.905,0.0138
4.906,0.0167
4.907,0.0193
4.908,0.0169
4.909,0.0015
4.91,-0.0126
4.911,-0.0108
4.912,0.0008
4.913,0.0022
4.914,0.0145
4.915,0.0194
4.916,0.003
4.917,-0.008
4.918,-0.0141
4.919,-0.0122
4.92,-0.0007
4.921,-0.0022
4.922,0.0046
4.923,0.0081
4.924,0.0048
4.925,-0.0022
4.926,0.0006
4.927,-0.0069
4.928,-0.004
4.929,0.0024
4.93,0.0017
4.931,0.0055
4.932,0.0118
4.933,0.0141
4.934,0.0163
4.935,0.0118
4.936,0.0022
4.937,-0.0155
4.938,-0.0179
4.939,-0.0113
4.94,0.0068
4.941,-0.01
4.942,-0.0078
4.943,-0.0099
4.944,-0.008
4.945,-0.0064
4.946,-0.0078
4.947,-0.0011
4.948,0.0085
4.949,0.0269
4.95,0.0403
4.951,0.0379
4.952,0.0401
4.953,0.022
4.954,0.0052
4.955,-0.0102
4.956,-0.0283
4.957,-0.026
4.958,-0.0194
4.959,-0.0093
4.96,-0.0002
4.961,-0.0152
4.962,-0.0212
4.963,-0.0084
4.964,-0.0034
4.965,-0.0049
4.966,-0.0089
4.967,-0.0005
4.968,0.0006
4.969,-0.0086
4.97,-0.0146
4.971,0.0024
4.972,-0.0144
4.973,-0.021
4.974,-0.019
4.975,-0.0062
4.976,0.0088
4.977,0.0028
4.978,-0.0027
4.979,-0.0044
4.98,-0.0088
4.981,-0.0128
4.982,-0.0016
4.983,-0.0121
4.984,0.0085
4.985,0.0172
4.986,0.0198
4.987,-0.0022
4.988,-0.011
4.989,-0.0188
4.99,-0.0164
4.991,-0.0274
4.992,-0.0174
4.993,-0.0009
4.994,0.0057
4.995,0.0118
4.996,0.0172
4.997,0.0288
4.998,0.0326
4.999,0.0251
5,0.0346
5.001,0.0458
5.002,0.0443
5.003,0.0376
5.004,0.0191
5.005,-0.0051
5.006,-0.0146
5.007,-0.0234
5.008,-0.0208
5.009,-0.0185
5.01,-0.0207
5.011,-0.0227
5.012,-0.0135
5.013,-0.0218
5.014,-0.0174
5.015,-0.0051
5.016,0.0132
5.017,0.0253
5.018,0.0099
5.019,0.0079
5.02,-0.0086
5.021,-0.0152
5.022,-0.0132
5.023,0.0107
5.024,0.0268
5.025,0.0061
5.026,-0.0181
5.027,-0.0212
5.028,-0.0124
5.029,-0.015
5.03,-0.0126
5.031,0.0028
5.032,-0.0033
5.033,-0.0014
5.034,0.0068
5.035,0.0083
5.036,0.0288
5.037,0.0614
5.038,0.0486
5.039,0.0447
5.04,0.0125
5.041,-0.0177
5.042,-0.0373
5.043,-0.0551
5.044,-0.0456
5.045,-0.0368
5.046,-0.0393
5.047,-0.0273
5.048,-0.0119
5.049,-0.0099
5.05,-0.0119
5.051,-0.0064
5.052,0.0185
5.053,0.0291
5.054,0.0323
5.055,0.0235
5.056,-0.006
5.057,-0.0022
5.058,-0.0128
5.059,-0.0097
5.06,-0.0067
5.061,-0.0201
5.062,-0.008
5.063,-0.0058
5.064,0.0002
5.065,-0.0016
5.066,0.0066
5.067,0.0141
5.068,0.0237
5.069,0.0321
5.07,0.0264
5.071,0.0255
5.072,0.0116
5.073,-0.0025
5.074,0.003
5.075,0.0112
5.076,0.0156
5.077,0.0306
5.078,0.0286
5.079,0.0231
5.08,0.0048
5.081,0.0024
5.082,0.0046
5.083,-0.0014
5.084,-0.0106
5.085,-0.0122
5.086,-0.0137
5.087,-0.0014
5.088,0.0136
5.089,0.0398
5.09,0.0432
5.091,0.0528
5.092,0.026
5.093,-0.0133
5.094,-0.0395
5.095,-0.0825
5.096,-0.1228
5.097,-0.149
5.098,-0.1633
5.099,-0.1417
5.1,-0.1336
5.101,-0.1219
5.102,-0.0825
5.103,-0.067
5.104,-0.0527
5.105,-0.0225
5.106,0.0367
5.107,0.0451
5.108,0.022
5.109,0.015
5.11,0.0213
5.111,0.0385
5.112,0.0334
5.113,0.0286
5.114,0.0588
5.115,0.0705
5.116,0.0883
5.117,0.0852
5.118,0.0764
5.119,0.0685
5.12,0.0465
5.121,0.0436
5.122,0.0249
5.123,0.0128
5.124,0.015
5.125,0.005
5.126,-0.0115
5.127,-0.0137
5.128,0.0004
5.129,0.0132
5.13,0.0083
5.131,0.0279
5.132,0.052
5.133,0.0681
5.134,0.0594
5.135,0.0619
5.136,0.0595
5.137,0.0617
5.138,0.0638
5.139,0.0509
5.14,0.0526
5.141,0.057
5.142,0.042
5.143,0.0399
5.144,0.0491
5.145,0.0475
5.146,0.0339
5.147,0.0248
5.148,0.0031
5.149,-0.0175
5.15,-0.0254
5.151,-0.0435
5.152,-0.0507
5.153,-0.0441
5.154,-0.0542
5.155,-0.067
5.156,-0.0919
5.157,-0.1241
5.158,-0.1113
5.159,-0.0996
5.16,-0.0961
5.161,-0.0604
5.162,-0.0461
5.163,-0.0419
5.164,-0.0302
5.165,-0.0337
5.166,-0.0305
5.167,-0.0335
5.168,-0.0256
5.169,-0.0135
5.17,-0.0113
5.171,-0.0093
5.172,-0.0038
5.173,0.0077
5.174,0.0121
5.175,0.0081
5.176,-0.0003
5.177,0.0053
5.178,0.0205
5.179,0.0271
5.18,0.0251
5.181,-0.0023
5.182,-0.0219
5.183,-0.0185
5.184,-0.0153
5.185,-0.0005
5.186,0.002
5.187,0.0189
5.188,0.0079
5.189,0.0059
5.19,0.0041
5.191,-0.0075
5.192,-0.006
5.193,0.0035
5.194,0.0046
5.195,0.0125
5.196,0.0154
5.197,0.0108
5.198,0.0165
5.199,0.0143
5.2,0.011
5.201,0.0105
5.202,0.0187
5.203,0.0204
5.204,0.0191
5.205,0.026
5.206,0.0231
5.207,0.0259
5.208,0.0202
5.209,0.0118
5.21,0.0107
5.211,-0.0025
5.212,0.003
5.213,0.0145
5.214,0.028
5.215,0.0262
5.216,0.0013
5.217,-0.0236
5.218,-0.0267
5.219,-0.0238
5.22,-0.0159
5.221,-0.0135
5.222,-0.0201
5.223,-0.0141
5.224,-0.0086
5.225,-0.0135
5.226,-0.0091
5.227,-0.0132
5.228,-0.0097
5.229,0.0006
5.23,0.0046
5.231,0.0081
5.232,0.0002
5.233,0.0072
5.234,-0.0012
5.235,0.0066
5.236,0.0057
5.237,0.0121
5.238,0.0046
5.239,-0.0003
5.24,-0.0012
5.241,0.0112
5.242,0.0204
5.243,0.022
5.244,0.0264
5.245,0.0114
5.246,-0.0108
5.247,-0.0256
5.248,-0.039
5.249,-0.0461
5.25,-0.0527
5.251,-0.0426
5.252,-0.0335
5.253,-0.0164
5.254,0.0085
5.255,0.0621
5.256,0.0698
5.257,0.0489
5.258,0.0172
5.259,-0.023
5.26,-0.0492
5.261,-0.054
5.262,-0.0412
5.263,-0.0216
5.264,-0.011
5.265,-0.0014
5.266,0.0134
5.267,0.0268
5.268,0.0291
5.269,0.0357
5.27,0.0458
5.271,0.0257
5.272,0.0231
5.273,0.0207
5.274,0.0229
5.275,0.0128
5.276,0.0074
5.277,-0.0042
5.278,-0.0177
5.279,-0.0159
5.28,-0.0175
5.281,-0.0219
5.282,-0.0152
5.283,-0.0016
5.284,-0.0034
5.285,-0.0018
5.286,0.0118
5.287,0.0172
5.288,0.0123
5.289,0.0048
5.29,0.0008
5.291,-0.0104
5.292,-0.0208
5.293,-0.0168
5.294,-0.0157
5.295,-0.019
5.296,-0.0199
5.297,-0.0153
5.298,-0.0062
5.299,-0.0051
5.3,-0.004
5.301,-0.0011
5.302,0.0017
5.303,0.0141
5.304,0.0143
5.305,0.0088
5.306,0.0171
5.307,0.0246
5.308,0.0233
5.309,0.0244
5.31,0.0096
5.311,-0.0126
5.312,-0.0214
5.313,-0.0188
5.314,-0.002
5.315,0.0134
5.316,0.0275
5.317,0.022
5.318,0.0204
5.319,0.0128
5.32,0.0006
5.321,-0.0177
5.322,-0.0397
5.323,-0.0426
5.324,-0.0505
5.325,-0.0481
5.326,-0.0238
5.327,-0.0077
5.328,0.0191
5.329,0.0297
5.33,0.0202
5.331,0.0114
5.332,-0.002
5.333,-0.0141
5.334,-0.0163
5.335,-0.0143
5.336,-0.0088
5.337,-0.0071
5.338,0.0094
5.339,0.016
5.34,0.0139
5.341,0.0194
5.342,0.0011
5.343,-0.006
5.344,-0.0038
5.345,0.0022
5.346,0.0077
5.347,0.016
5.348,0.0085
5.349,-0.0038
5.35,-0.0055
5.351,0.002
5.352,0.0061
5.353,0.0026
5.354,0.0037
5.355,-0.0033
5.356,-0.0102
5.357,-0.0038
5.358,0.0019
5.359,0.0088
5.36,0.0191
5.361,0.0259
5.362,0.0269
5.363,0.0191
5.364,0.0182
5.365,0.0136
5.366,0.0143
5.367,0.0028
5.368,-0.0055
5.369,-0.0069
5.37,-0.011
5.371,-0.0144
5.372,-0.0293
5.373,-0.0273
5.374,-0.0218
5.375,-0.0201
5.376,-0.0036
5.377,0.0118
5.378,0.0259
5.379,0.035
5.38,0.0235
5.381,0.007
5.382,-0.0084
5.383,-0.0185
5.384,-0.0313
5.385,-0.0428
5.386,-0.0384
5.387,-0.0262
5.388,-0.0278
5.389,-0.0234
5.39,-0.0029
5.391,0
5.392,-0.0078
5.393,-0.0055
5.394,0.0011
5.395,0.0031
5.396,0.0013
5.397,0.0063
5.398,0.0107
5.399,0.0229
5.4,0.0445
5.401,0.0533
5.402,0.0667
5.403,0.0447
5.404,0.024
5.405,0.0053
5.406,0.0004
5.407,-0.0117
5.408,-0.0183
5.409,-0.0042
5.41,0.0013
5.411,-0.0003
5.412,0.0222
5.413,0.0383
5.414,0.0235
5.415,-0.0007
5.416,-0.0232
5.417,-0.0381
5.418,-0.0622
5.419,-0.0591
5.42,-0.0562
5.421,-0.0483
5.422,-0.0119
5.423,0.0143
5.424,0.0191
5.425,0.0063
5.426,0.0101
5.427,0.0066
5.428,0.0035
5.429,0.0006
5.43,0.0139
5.431,0.026
5.432,0.0326
5.433,0.0145
5.434,-0.0075
5.435,-0.0104
5.436,-0.0025
5.437,-0.0002
5.438,-0.0023
5.439,-0.0003
5.44,-0.0058
5.441,-0.0108
5.442,-0.0033
5.443,0.009
5.444,-0.006
5.445,-0.008
5.446,-0.0099
5.447,-0.0016
5.448,-0.0031
5.449,0.0037
5.45,0.0048
5.451,0.0059
5.452,0.003
5.453,-0.0034
5.454,-0.0058
5.455,-0.008
5.456,-0.0183
5.457,-0.0201
5.458,-0.0157
5.459,0.002
5.46,0.0092
5.461,0.0423
5.462,0.0471
5.463,0.0343
5.464,0.0147
5.465,-0.0031
5.466,-0.0062
5.467,-0.015
5.468,-0.0124
5.469,-0.0196
5.47,-0.0174
5.471,-0.0194
5.472,-0.0102
5.473,-0.0119
5.474,-0.0075
5.475,-0.0088
5.476,-0.0077
5.477,-0.0088
5.478,-0.0137
5.479,-0.0164
5.48,-0.0221
5.481,-0.0274
5.482,-0.0172
5.483,0.0053
5.484,0.0149
5.485,0.0237
5.486,0.0103
5.487,0.0031
5.488,0.0097
5.489,0.0118
5.49,0.0172
5.491,0.0057
5.492,-0.0018
5.493,-0.0031
5.494,-0.002
5.495,-0.0031
5.496,-0.0122
5.497,-0.0038
5.498,-0.0049
5.499,-0.0119
5.5,-0.0164
5.501,-0.0141
5.502,-0.0102
5.503,0
5.504,0.0196
5.505,0.033
5.506,0.0306
5.507,0.0152
5.508,0.0033
5.509,-0.0067
5.51,-0.0196
5.511,-0.008
5.512,-0.0066
5.513,-0.0053
5.514,0.0059
5.515,0.0134
5.516,0.0066
5.517,-0.0018
5.518,0.0015
5.519,0.0167
5.52,0.0454
5.521,0.0493
5.522,0.0458
5.523,0.0165
5.524,-0.011
5.525,-0.0359
5.526,-0.0263
5.527,-0.0234
5.528,-0.0313
5.529,-0.0289
5.53,-0.0179
5.531,-0.028
5.532,-0.0335
5.533,-0.0351
5.534,-0.0155
5.535,0.0139
5.536,0.0335
5.537,0.0229
5.538,0.0134
5.539,-0.0014
5.54,-0.0256
5.541,-0.0481
5.542,-0.0511
5.543,-0.0432
5.544,-0.0456
5.545,-0.0346
5.546,-0.0044
5.547,0.0172
5.548,0.0134
5.549,0.0099
5.55,0.0194
5.551,0.0224
5.552,0.0198
5.553,0.0269
5.554,0.0248
5.555,0.0227
5.556,0.0172
5.557,0.0123
5.558,0.0079
5.559,0.0092
5.56,0.016
5.561,0.0345
5.562,0.0586
5.563,0.0747
5.564,0.054
5.565,0.0138
5.566,-0.0265
5.567,-0.0316
5.568,-0.0459
5.569,-0.0417
5.57,-0.0534
5.571,-0.0428
5.572,-0.0267
5.573,-0.0119
5.574,-0.004
5.575,-0.0016
5.576,0.0006
5.577,0.0107
5.578,0.0271
5.579,0.0118
5.58,0.0057
5.581,-0.0071
5.582,-0.0055
5.583,-0.0069
5.584,-0.0219
5.585,-0.0199
5.586,-0.0071
5.587,-0.0055
5.588,0.002
5.589,-0.0102
5.59,-0.0152
5.591,-0.0108
5.592,-0.0067
5.593,0.0044
5.594,0.018
5.595,0.0125
5.596,0.0174
5.597,0.007
5.598,0.003
5.599,0.009
5.6,0.0033
5.601,0.0083
5.602,0.0055
5.603,0.0063
5.604,0.0041
5.605,-0.0062
5.606,-0.0197
5.607,-0.0216
5.608,-0.0232
5.609,-0.0128
5.61,-0.004
5.611,0.0083
5.612,0.0299
5.613,0.0387
5.614,0.0465
5.615,0.0394
5.616,0.015
5.617,-0.0075
5.618,-0.0282
5.619,-0.0148
5.62,-0.0219
5.621,-0.0329
5.622,-0.0349
5.623,-0.0185
5.624,-0.0031
5.625,-0.0051
5.626,-0.0069
5.627,0.0114
5.628,0.0282
5.629,0.0304
5.63,0.0163
5.631,0.0108
5.632,0.0224
5.633,0.0119
5.634,0.0024
5.635,0.0035
5.636,-0.0089
5.637,-0.0106
5.638,-0.0271
5.639,-0.0514
5.64,-0.0675
5.641,-0.0527
5.642,-0.034
5.643,-0.0023
5.644,0.0105
5.645,0.0222
5.646,0.0257
5.647,0.0161
5.648,0.0074
5.649,-0.0005
5.65,0.0066
5.651,0
5.652,0.0061
5.653,0.0079
5.654,0.0229
5.655,0.033
5.656,0.0202
5.657,0.0086
5.658,-0.0078
5.659,-0.0188
5.66,-0.0007
5.661,0.0019
5.662,-0.0201
5.663,-0.0113
5.664,0.0128
5.665,0.0224
5.666,0.0312
5.667,0.0337
5.668,0.0361
5.669,0.0339
5.67,0.0158
5.671,0.0037
5.672,0.0015
5.673,0.0075
5.674,-0.0053
5.675,-0.0168
5.676,-0.0183
5.677,-0.0196
5.678,-0.0084
5.679,-0.0159
5.68,-0.0199
5.681,-0.0311
5.682,-0.0267
5.683,-0.0144
5.684,-0.0161
5.685,-0.0265
5.686,-0.0278
5.687,-0.0243
5.688,-0.021
5.689,-0.0181
5.69,-0.019
5.691,-0.0082
5.692,0.0143
5.693,0.0368
5.694,0.0517
5.695,0.0542
5.696,0.0374
5.697,0.0174
5.698,-0.0012
5.699,-0.0084
5.7,-0.0106
5.701,-0.0086
5.702,-0.0141
5.703,-0.0124
5.704,-0.0049
5.705,-0.0089
5.706,-0.01
5.707,-0.0111
5.708,-0.0121
5.709,-0.0075
5.71,-0.0051
5.711,0.0064
5.712,0.026
5.713,0.0343
5.714,0.0478
5.715,0.0313
5.716,0.0467
5.717,0.0407
5.718,0.0132
5.719,-0.0064
5.72,-0.0241
5.721,-0.0403
5.722,-0.0551
5.723,-0.063
5.724,-0.0653
5.725,-0.05
5.726,-0.0278
5.727,-0.0249
5.728,-0.017
5.729,-0.0194
5.73,-0.0084
5.731,-0.0023
5.732,0.0068
5.733,0.0052
5.734,0.0008
5.735,0.0075
5.736,0.0211
5.737,0.0193
5.738,0.0209
5.739,0.0224
5.74,0.0183
5.741,0.0194
5.742,0.0183
5.743,0.0233
5.744,0.0205
5.745,0.0165
5.746,0.0127
5.747,0.0024
5.748,0.0009
5.749,0.0077
5.75,0.0088
5.751,0.0099
5.752,0.0108
5.753,0.0063
5.754,0.007
5.755,0
5.756,-0.0102
5.757,-0.0143
5.758,-0.0227
5.759,-0.0194
5.76,-0.0042
5.761,0.0112
5.762,0.0052
5.763,-0.0091
5.764,-0.011
5.765,-0.0027
5.766,-0.0071
5.767,0.0107
5.768,0.0275
5.769,0.0385
5.77,0.0405
5.771,0.013
5.772,-0.0144
5.773,-0.0179
5.774,-0.021
5.775,-0.0181
5.776,-0.026
5.777,-0.0283
5.778,-0.0218
5.779,-0.0117
5.78,-0.0099
5.781,-0.0115
5.782,-0.0159
5.783,-0.0146
5.784,-0.0111
5.785,-0.01
5.786,-0.0031
5.787,0.009
5.788,0.0139
5.789,0.0096
5.79,0.0191
5.791,0.0226
5.792,0.0123
5.793,-0.0082
5.794,-0.017
5.795,-0.0036
5.796,-0.0108
5.797,0.0092
5.798,0.0226
5.799,0.0105
5.8,-0.0005
5.801,0.0015
5.802,0.0033
5.803,-0.0016
5.804,-0.0121
5.805,-0.0326
5.806,-0.0474
5.807,-0.0608
5.808,-0.0584
5.809,-0.043
5.81,-0.0289
5.811,-0.0124
5.812,0.0119
5.813,0.028
5.814,0.0553
5.815,0.0583
5.816,0.0608
5.817,0.0632
5.818,0.0566
5.819,0.0546
5.82,0.0381
5.821,0.005
5.822,0.0288
5.823,0.0246
5.824,0.0207
5.825,-0.0042
5.826,-0.0267
5.827,-0.0238
5.828,-0.0316
5.829,-0.034
5.83,-0.0362
5.831,-0.0342
5.832,-0.0251
5.833,-0.0135
5.834,-0.0121
5.835,-0.0133
5.836,-0.0122
5.837,-0.0066
5.838,0.0046
5.839,0.009
5.84,0.0022
5.841,-0.0012
5.842,0.002
5.843,0.0011
5.844,-0.0034
5.845,-0.0027
5.846,0.0026
5.847,0.002
5.848,0.0002
5.849,0.003
5.85,0.0053
5.851,0.0123
5.852,0.0275
5.853,0.0209
5.854,0.0028
5.855,-0.024
5.856,-0.0417
5.857,-0.0512
5.858,-0.0483
5.859,-0.0349
5.86,-0.013
5.861,0.0077
5.862,0.0319
5.863,0.0414
5.864,0.0326
5.865,0.0275
5.866,0.0196
5.867,0.022
5.868,0.033
5.869,0.0189
5.87,0.0244
5.871,0.026
5.872,0.0035
5.873,-0.0258
5.874,-0.0296
5.875,-0.019
5.876,-0.0159
5.877,-0.0011
5.878,0.0068
5.879,0.0092
5.88,0.0114
5.881,0.0215
5.882,0.0196
5.883,0.0346
5.884,0.0367
5.885,0.0312
5.886,0.0229
5.887,0.0215
5.888,0.0174
5.889,-0.0011
5.89,-0.0197
5.891,-0.0126
5.892,-0.006
5.893,0.0081
5.894,0.0172
5.895,0.0156
5.896,-0.0009
5.897,-0.0252
5.898,-0.0413
5.899,-0.08
5.9,-0.1166
5.901,-0.1596
5.902,-0.154
5.903,-0.1488
5.904,-0.1346
5.905,-0.1217
5.906,-0.0943
5.907,-0.0836
5.908,-0.0479
5.909,-0.0049
5.91,-0.0106
5.911,-0.0055
5.912,-0.0102
5.913,-0.0144
5.914,0.029
5.915,0.0462
5.916,0.0575
5.917,0.0837
5.918,0.098
5.919,0.1196
5.92,0.1392
5.921,0.1286
5.922,0.1191
5.923,0.0865
5.924,0.0649
5.925,0.0453
5.926,0.0418
5.927,0.0513
5.928,0.0425
5.929,0.0346
5.93,0.0226
5.931,0.016
5.932,0.0139
5.933,0.0158
5.934,0.0174
5.935,0.0189
5.936,0.0229
5.937,0.0414
5.938,0.0493
5.939,0.0517
5.94,0.0539
5.941,0.0478
5.942,0.0423
5.943,0.0539
5.944,0.0674
5.945,0.0729
5.946,0.0713
5.947,0.0638
5.948,0.0487
5.949,0.0185
5.95,-0.0117
5.951,-0.0551
5.952,-0.0954
5.953,-0.1215
5.954,-0.1358
5.955,-0.1316
5.956,-0.112
5.957,-0.1085
5.958,-0.0924
5.959,-0.0717
5.96,-0.0851
5.961,-0.0683
5.962,-0.0705
5.963,-0.0564
5.964,-0.0362
5.965,-0.0337
5.966,-0.0313
5.967,-0.0245
5.968,-0.0045
5.969,0.0249
5.97,0.0445
5.971,0.0339
5.972,0.0244
5.973,0.0037
5.974,0.0011
5.975,0.0083
5.976,0.0061
5.977,0.0041
5.978,-0.0051
5.979,-0.0133
5.98,-0.0089
5.981,-0.0022
5.982,0.0063
5.983,0.0233
5.984,0.0304
5.985,0.0282
5.986,0.0262
5.987,0.0134
5.988,0.0052
5.989,0.0008
5.99,-0.0115
5.991,-0.0331
5.992,-0.0064
5.993,0.0042
5.994,0.0011
5.995,0.0099
5.996,0.0178
5.997,0.0009
5.998,-0.0144
5.999,-0.0366
6,-0.0454
6.001,-0.0533
6.002,-0.0364
6.003,-0.0121
6.004,0.0105
6.005,0.0372
6.006,0.055
6.007,0.0581
6.008,0.0194
6.009,0.0039
6.01,-0.0009
6.011,0.0033
6.012,0.0072
6.013,0.0249
6.014,0.028
6.015,0.0251
6.016,0.0277
6.017,0.0253
6.018,0.0194
6.019,0.0085
6.02,0.0266
6.021,0.0194
6.022,0.0041
6.023,0.0061
6.024,-0.0031
6.025,-0.028
6.026,-0.0315
6.027,-0.0283
6.028,-0.0254
6.029,-0.028
6.03,-0.0304
6.031,-0.0282
6.032,-0.0262
6.033,-0.0207
6.034,-0.019
6.035,-0.0115
6.036,-0.0183
6.037,-0.0218
6.038,-0.0115
6.039,0.0008
6.04,0.009
6.041,0.0165
6.042,0.0315
6.043,0.0497
6.044,0.0568
6.045,0.059
6.046,0.061
6.047,0.0445
6.048,0.0291
6.049,0.011
6.05,-0.011
6.051,-0.0377
6.052,-0.0554
6.053,-0.0716
6.054,-0.0686
6.055,-0.0553
6.056,-0.0333
6.057,-0.0245
6.058,-0.0111
6.059,0.0009
6.06,0.0119
6.061,0.018
6.062,0.0198
6.063,0.0149
6.064,0.0224
6.065,0.0264
6.066,0.0299
6.067,0.0356
6.068,0.0326
6.069,0.0202
6.07,0.0063
6.071,0.0204
6.072,0.0259
6.073,0.0341
6.074,0.0205
6.075,-0.0069
6.076,-0.0108
6.077,-0.0143
6.078,-0.0111
6.079,-0.0199
6.08,-0.0225
6.081,-0.0249
6.082,-0.0227
6.083,-0.0166
6.084,-0.0148
6.085,-0.0164
6.086,-0.015
6.087,-0.0163
6.088,-0.0197
6.089,-0.0208
6.09,-0.0159
6.091,-0.002
6.092,0.0081
6.093,0.0099
6.094,0.0083
6.095,0.0127
6.096,0.0139
6.097,0.0275
6.098,0.0293
6.099,0.0244
6.1,0.0048
6.101,-0.0247
6.102,-0.0285
6.103,-0.0463
6.104,-0.0558
6.105,-0.047
6.106,-0.0496
6.107,-0.0375
6.108,-0.0221
6.109,-0.0241
6.11,-0.0296
6.111,-0.0247
6.112,-0.0082
6.113,0.0072
6.114,0.0253
6.115,0.0374
6.116,0.044
6.117,0.0581
6.118,0.0599
6.119,0.0449
6.12,0.0385
6.121,0.0405
6.122,0.0313
6.123,0.0363
6.124,0.0198
6.125,0.0044
6.126,0.0024
6.127,0.0079
6.128,-0.0036
6.129,-0.0111
6.13,-0.0044
6.131,-0.0055
6.132,-0.0111
6.133,-0.0102
6.134,-0.0223
6.135,-0.0174
6.136,-0.0159
6.137,-0.0227
6.138,-0.0262
6.139,-0.0183
6.14,-0.0174
6.141,-0.0183
6.142,-0.0175
6.143,-0.0229
6.144,-0.0126
6.145,0.0009
6.146,-0.0009
6.147,0.0041
6.148,0.0055
6.149,0.0178
6.15,0.0361
6.151,0.029
6.152,0.0224
6.153,0.0042
6.154,-0.0126
6.155,-0.028
6.156,-0.03
6.157,-0.0282
6.158,-0.0265
6.159,-0.019
6.16,-0.015
6.161,-0.0161
6.162,-0.015
6.163,-0.008
6.164,0.0059
6.165,0.02
6.166,0.0328
6.167,0.0511
6.168,0.0343
6.169,0.0189
6.17,0.0128
6.171,0.0033
6.172,0.0088
6.173,0.0204
6.174,0.0399
6.175,0.0374
6.176,0.0302
6.177,-0.0029
6.178,-0.0267
6.179,-0.0309
6.18,-0.0348
6.181,-0.0382
6.182,-0.0351
6.183,-0.0203
6.184,-0.0177
6.185,-0.0153
6.186,-0.0219
6.187,-0.0199
6.188,-0.0108
6.189,0.0008
6.19,-0.0007
6.191,0.0033
6.192,0.0118
6.193,0.0174
6.194,0.0145
6.195,0.0191
6.196,0.0231
6.197,0.0238
6.198,0.0176
6.199,0.0085
6.2,0
6.201,-0.0011
6.202,-0.006
6.203,-0.0106
6.204,-0.0146
6.205,-0.0139
6.206,-0.0036
6.207,0.0068
6.208,-0.0027
6.209,0.0085
6.21,0.0041
6.211,0
6.212,0.0035
6.213,0.0068
6.214,0.0097
6.215,0.0143
6.216,0.0183
6.217,0.0222
6.218,0.0119
6.219,-0.0106
6.22,-0.0267
6.221,-0.0296
6.222,-0.0223
6.223,-0.0144
6.224,0.0075
6.225,0.0282
6.226,0.0416
6.227,0.0392
6.228,0.0193
6.229,-0.0049
6.23,-0.0018
6.231,0.0011
6.232,-0.0014
6.233,0.0009
6.234,-0.0012
6.235,-0.0033
6.236,-0.0051
6.237,-0.0034
6.238,-0.017
6.239,-0.0335
6.24,-0.0269
6.241,-0.0168
6.242,-0.0186
6.243,-0.017
6.244,-0.0126
6.245,-0.0113
6.246,-0.0124
6.247,-0.0022
6.248,0.0046
6.249,0.0107
6.25,0.0139
6.251,0.011
6.252,0.0213
6.253,0.028
6.254,0.0096
6.255,-0.0091
6.256,-0.0115
6.257,-0.0049
6.258,-0.019
6.259,-0.0208
6.26,-0.0225
6.261,-0.0121
6.262,0.0002
6.263,0.0085
6.264,0.022
6.265,0.0312
6.266,0.0196
6.267,0.0092
6.268,0.0079
6.269,0.0068
6.27,-0.0034
6.271,-0.0022
6.272,-0.0011
6.273,0.0085
6.274,0.0096
6.275,0.0207
6.276,0.0251
6.277,0.0183
6.278,0.0218
6.279,0.0048
6.28,-0.0316
6.281,-0.0578
6.282,-0.0435
6.283,-0.0307
6.284,-0.0111
6.285,-0.0005
6.286,0.009
6.287,0.0238
6.288,0.0052
6.289,-0.0117
6.29,-0.0095
6.291,-0.0034
6.292,-0.0236
6.293,-0.0315
6.294,-0.0291
6.295,-0.0313
6.296,-0.0252
6.297,-0.0161
6.298,-0.0111
6.299,0.0053
6.3,0.0163
6.301,0.0103
6.302,-0.0025
6.303,0.009
6.304,0.0194
6.305,0.0182
6.306,0.0216
6.307,0.0249
6.308,0.024
6.309,0.0286
6.31,0.0194
6.311,0.0183
6.312,0.0105
6.313,0.0134
6.314,0.0088
6.315,0.0112
6.316,0.0028
6.317,-0.0005
6.318,0.0044
6.319,-0.0002
6.32,-0.0093
6.321,-0.0104
6.322,-0.0093
6.323,-0.0064
6.324,-0.0084
6.325,-0.013
6.326,-0.0005
6.327,0.0269
6.328,0.0387
6.329,0.0421
6.33,0.0326
6.331,0.0119
6.332,-0.023
6.333,-0.0373
6.334,-0.0415
6.335,-0.0454
6.336,-0.0489
6.337,-0.0327
6.338,-0.0179
6.339,-0.0045
6.34,-0.0022
6.341,-0.0221
6.342,-0.03
6.343,-0.0229
6.344,-0.0075
6.345,-0.0014
6.346,0.0114
6.347,0.013
6.348,0.0205
6.349,0.0193
6.35,0.0182
6.351,0.0125
6.352,0.0033
6.353,-0.0051
6.354,-0.0062
6.355,-0.0132
6.356,-0.0104
6.357,-0.0047
6.358,-0.0069
6.359,0.0033
6.36,0.0259
6.361,0.029
6.362,0.0202
6.363,0.0176
6.364,0.0055
6.365,0.0077
6.366,0.0017
6.367,-0.0038
6.368,-0.0022
6.369,-0.0066
6.37,-0.0161
6.371,-0.0196
6.372,-0.0139
6.373,-0.013
6.374,-0.0066
6.375,-0.0047
6.376,0.0077
6.377,0.0242
6.378,0.0264
6.379,0.0204
6.38,0.0405
6.381,0.0271
6.382,0.0103
6.383,-0.0097
6.384,-0.0175
6.385,-0.0247
6.386,-0.0313
6.387,-0.0454
6.388,-0.0472
6.389,-0.0489
6.39,-0.0533
6.391,-0.0465
6.392,-0.028
6.393,0.0123
6.394,0.0526
6.395,0.0475
6.396,0.0427
6.397,0.0385
6.398,0.0346
6.399,0.024
6.4,0.0209
6.401,0.0121
6.402,-0.0012
6.403,0.0011
6.404,-0.0099
6.405,-0.0119
6.406,-0.0247
6.407,-0.023
6.408,-0.0066
6.409,0
6.41,-0.002
6.411,0.0035
6.412,0.0019
6.413,0.0154
6.414,0.0099
6.415,-0.0117
6.416,-0.0265
6.417,-0.0291
6.418,-0.017
6.419,-0.0192
6.42,-0.0091
6.421,-0.011
6.422,-0.026
6.423,-0.0159
6.424,0.0042
6.425,0.0121
6.426,0.0231
6.427,0.0207
6.428,0.0273
6.429,0.0495
6.43,0.0583
6.431,0.0449
6.432,0.0182
6.433,0.0075
6.434,-0.002
6.435,0.0009
6.436,-0.0016
6.437,-0.004
6.438,-0.0106
6.439,-0.0166
6.44,-0.0258
6.441,-0.0274
6.442,-0.023
6.443,-0.0243
6.444,-0.0278
6.445,-0.0221
6.446,-0.0212
6.447,-0.0185
6.448,-0.006
6.449,0.0031
6.45,0.0114
6.451,0.0189
6.452,0.0229
6.453,0.0169
6.454,0.0066
6.455,-0.0029
6.456,-0.0064
6.457,-0.0143
6.458,-0.0254
6.459,-0.0269
6.46,-0.0201
6.461,-0.004
6.462,0.007
6.463,0.0251
6.464,0.018
6.465,0.0158
6.466,0.0057
6.467,0.0002
6.468,0.0019
6.469,0.0033
6.47,0.0074
6.471,-0.0062
6.472,-0.0117
6.473,-0.0002
6.474,-0.0045
6.475,-0.0058
6.476,-0.0119
6.477,-0.0069
6.478,0.0055
6.479,0.0171
6.48,0.0246
6.481,0.0313
6.482,0.0425
6.483,0.044
6.484,0.0235
6.485,0.0147
6.486,0.0172
6.487,0.0052
6.488,-0.0058
6.489,-0.024
6.49,-0.0408
6.491,-0.0474
6.492,-0.0413
6.493,-0.0249
6.494,-0.0049
6.495,0.0193
6.496,0.0161
6.497,0.0132
6.498,0.0211
6.499,-0.0056
6.5,-0.0091
6.501,-0.0186
6.502,-0.0157
6.503,-0.0236
6.504,-0.0307
6.505,-0.0153
6.506,-0.0133
6.507,-0.0042
6.508,-0.0058
6.509,-0.0102
6.51,-0.017
6.511,-0.0058
6.512,-0.0014
6.513,0.0053
6.514,0.0189
6.515,0.0207
6.516,0.0257
6.517,0.0332
6.518,0.0291
6.519,0.0207
6.52,0.0128
6.521,0.0059
6.522,-0.008
6.523,-0.0141
6.524,-0.0159
6.525,-0.0208
6.526,-0.0194
6.527,-0.0044
6.528,0.0128
6.529,0.0149
6.53,0.0387
6.531,0.0291
6.532,0.0262
6.533,0.0183
6.534,0.0015
6.535,-0.0139
6.536,-0.032
6.537,-0.0296
6.538,-0.0186
6.539,-0.0247
6.54,-0.0302
6.541,-0.0384
6.542,-0.0249
6.543,-0.023
6.544,-0.0181
6.545,-0.0016
6.546,0.0006
6.547,0.0026
6.548,0.0118
6.549,0.0134
6.55,0.0238
6.551,0.0226
6.552,0.0165
6.553,0.0017
6.554,-0.0003
6.555,0.0015
6.556,-0.0002
6.557,0.0013
6.558,-0.0082
6.559,-0.0267
6.56,-0.0509
6.561,-0.0413
6.562,-0.0265
6.563,-0.0078
6.564,0.0189
6.565,0.0367
6.566,0.0462
6.567,0.0491
6.568,0.0249
6.569,0.0154
6.57,0.0125
6.571,0.0259
6.572,0.0235
6.573,0.0257
6.574,0.0116
6.575,-0.0049
6.576,-0.0159
6.577,-0.0381
6.578,-0.0351
6.579,-0.0355
6.58,-0.0221
6.581,-0.0245
6.582,0.0086
6.583,0.0229
6.584,0.0445
6.585,0.0484
6.586,0.0235
6.587,0.0139
6.588,-0.0009
6.589,-0.0088
6.59,-0.0208
6.591,-0.0318
6.592,-0.0218
6.593,-0.0199
6.594,-0.0084
6.595,0.0081
6.596,0.0103
6.597,0.0042
6.598,0.0024
6.599,-0.0025
6.6,-0.004
6.601,-0.0027
6.602,-0.0038
6.603,0.0019
6.604,0.013
6.605,0.0026
6.606,0.0013
6.607,0.0002
6.608,-0.0077
6.609,-0.0086
6.61,-0.0225
6.611,-0.0205
6.612,-0.0186
6.613,-0.0071
6.614,0.0033
6.615,0.0046
6.616,0.0182
6.617,0.02
6.618,0.0249
6.619,0.0293
6.62,0.0143
6.621,-0.0119
6.622,-0.0296
6.623,-0.0327
6.624,-0.0357
6.625,-0.0382
6.626,-0.0262
6.627,-0.0152
6.628,-0.0051
6.629,-0.0033
6.63,0.0041
6.631,0.009
6.632,0.0194
6.633,0.0317
6.634,0.0268
6.635,0.0493
6.636,0.0398
6.637,0.013
6.638,-0.0047
6.639,-0.0208
6.64,-0.0002
6.641,-0.0027
6.642,-0.0051
6.643,-0.0029
6.644,-0.0009
6.645,-0.0064
6.646,-0.0014
6.647,0.003
6.648,0.0097
6.649,0.0063
6.65,0.003
6.651,0.002
6.652,0.003
6.653,-0.0011
6.654,-0.0095
6.655,-0.0128
6.656,-0.0177
6.657,-0.0241
6.658,-0.0333
6.659,-0.0322
6.66,-0.0265
6.661,-0.0174
6.662,-0.0139
6.663,-0.006
6.664,0.0031
6.665,0.0066
6.666,0.0237
6.667,0.026
6.668,0.0238
6.669,0.042
6.67,0.0491
6.671,0.0381
6.672,0.0119
6.673,0.0013
6.674,-0.0082
6.675,-0.023
6.676,-0.0364
6.677,-0.0243
6.678,-0.0265
6.679,-0.0285
6.68,-0.0157
6.681,-0.0128
6.682,-0.0177
6.683,-0.0073
6.684,-0.006
6.685,0.0125
6.686,0.0312
6.687,0.0335
6.688,0.0269
6.689,0.0249
6.69,0.0158
6.691,0.0042
6.692,0.0057
6.693,0.0017
6.694,0.0052
6.695,0.0019
6.696,0.0088
6.697,-0.0033
6.698,-0.0082
6.699,-0.0067
6.7,0.0055
6.701,-0.0161
6.702,-0.019
6.703,-0.0111
6.704,-0.0135
6.705,-0.0289
6.706,-0.047
6.707,-0.0542
6.708,-0.0432
6.709,-0.0251
6.71,-0.0031
6.711,0.0237
6.712,0.0343
6.713,0.0374
6.714,0.0286
6.715,0.0099
6.716,0.0075
6.717,0.0097
6.718,0.0037
6.719,0.0128
6.72,0.0178
6.721,0.0134
6.722,0.0094
6.723,0.0059
6.724,0.0002
6.725,0.0011
6.726,0.0039
6.727,0.0015
6.728,-0.0023
6.729,-0.0056
6.73,-0.0126
6.731,-0.0062
6.732,-0.0164
6.733,-0.0188
6.734,-0.0135
6.735,-0.0033
6.736,0.0193
6.737,0.0224
6.738,0.0075
6.739,-0.0058
6.74,0.011
6.741,0
6.742,-0.006
6.743,-0.0078
6.744,0.0138
6.745,0.005
6.746,-0.0137
6.747,-0.0161
6.748,-0.0095
6.749,0.0006
6.75,-0.0012
6.751,0.0037
6.752,0.0262
6.753,0.0423
6.754,0.0453
6.755,0.0374
6.756,0.0253
6.757,-0.0034
6.758,-0.0073
6.759,0.0249
6.76,0.0551
6.761,0.0747
6.762,0.0713
6.763,0.0487
6.764,0.0042
6.765,-0.0401
6.766,-0.0804
6.767,-0.1486
6.768,-0.1953
6.769,-0.2376
6.77,-0.2299
6.771,-0.195
6.772,-0.1761
6.773,-0.1358
6.774,-0.0675
6.775,-0.0208
6.776,0.0215
6.777,0.0599
6.778,0.0669
6.779,0.048
6.78,0.0193
6.781,0.0141
6.782,0.0189
6.783,0.0385
6.784,0.0513
6.785,0.063
6.786,0.0595
6.787,0.0821
6.788,0.0969
6.789,0.0995
6.79,0.0826
6.791,0.0716
6.792,0.0656
6.793,0.0601
6.794,0.0617
6.795,0.0453
6.796,0.0253
6.797,0.0119
6.798,0.0096
6.799,0.0161
6.8,0.0262
6.801,0.0171
6.802,0.0286
6.803,0.0421
6.804,0.055
6.805,0.0566
6.806,0.0762
6.807,0.0683
6.808,0.066
6.809,0.0638
6.81,0.0537
6.811,0.0445
6.812,0.0495
6.813,0.048
6.814,0.044
6.815,0.0255
6.816,0.0013
6.817,-0.0212
6.818,-0.03
6.819,-0.0542
6.82,-0.0835
6.821,-0.1109
6.822,-0.1144
6.823,-0.1113
6.824,-0.1084
6.825,-0.0897
6.826,-0.0776
6.827,-0.071
6.828,-0.0569
6.829,-0.0404
6.83,-0.0294
6.831,-0.0274
6.832,-0.0219
6.833,-0.0104
6.834,-0.0164
6.835,-0.0121
6.836,0.003
6.837,0.0171
6.838,0.0189
6.839,0.0238
6.84,0.0194
6.841,0.0017
6.842,-0.0055
6.843,-0.0077
6.844,-0.0016
6.845,-0.0071
6.846,-0.0153
6.847,-0.0197
6.848,-0.021
6.849,-0.0245
6.85,-0.0212
6.851,-0.0203
6.852,-0.023
6.853,-0.019
6.854,-0.0075
6.855,0.0041
6.856,0.0055
6.857,-0.004
6.858,-0.01
6.859,-0.0022
6.86,0.0028
6.861,0.0074
6.862,0.0114
6.863,0.0167
6.864,0.02
6.865,0.0244
6.866,0.0328
6.867,0.0389
6.868,0.0356
6.869,0.0224
6.87,0.0022
6.871,-0.0219
6.872,-0.0315
6.873,-0.0344
6.874,-0.0423
6.875,-0.0302
6.876,-0.0014
6.877,0.0182
6.878,0.0216
6.879,0.0248
6.88,0.016
6.881,0.0185
6.882,0.0114
6.883,0.0092
6.884,-0.0009
6.885,0.0011
6.886,-0.0007
6.887,0.0143
6.888,0.0324
6.889,0.0204
6.89,0.0269
6.891,0.0169
6.892,0.0077
6.893,-0.0073
6.894,-0.0133
6.895,-0.0152
6.896,-0.0069
6.897,-0.0174
6.898,-0.0106
6.899,-0.0022
6.9,-0.01
6.901,-0.0091
6.902,-0.0064
6.903,0.0061
6.904,0.0006
6.905,-0.0044
6.906,-0.0179
6.907,-0.0124
6.908,-0.0174
6.909,-0.013
6.91,-0.0143
6.911,-0.0082
6.912,-0.0071
6.913,-0.0002
6.914,0.0044
6.915,0.0004
6.916,0.0042
6.917,0.0132
6.918,0.0193
6.919,0.0114
6.92,0.0183
6.921,0.0211
6.922,0.0154
6.923,0.0085
6.924,0.0039
6.925,-0.0053
6.926,-0.0137
6.927,-0.0148
6.928,-0.0119
6.929,-0.0128
6.93,-0.0121
6.931,-0.0099
6.932,-0.0036
6.933,0.0088
6.934,0.0143
6.935,0.0326
6.936,0.026
6.937,0.0139
6.938,0.0118
6.939,0.0259
6.94,0.0204
6.941,0.0121
6.942,0.0046
6.943,-0.0022
6.944,-0.0157
6.945,-0.0102
6.946,0.0048
6.947,0.0028
6.948,-0.0027
6.949,0.0055
6.95,0.0041
6.951,-0.0055
6.952,-0.002
6.953,0.0013
6.954,0.0004
6.955,-0.0135
6.956,-0.0357
6.957,-0.0327
6.958,-0.0353
6.959,-0.0185
6.96,-0.0294
6.961,-0.0274
6.962,-0.0256
6.963,-0.0141
6.964,0.0085
6.965,0.0116
6.966,0.0204
6.967,0.0125
6.968,-0.0095
6.969,-0.0302
6.97,-0.0327
6.971,-0.0304
6.972,-0.0238
6.973,-0.0137
6.974,0.0101
6.975,0.0196
6.976,0.0167
6.977,0.0088
6.978,0.0017
6.979,-0.0049
6.98,-0.0029
6.981,-0.0047
6.982,-0.013
6.983,-0.0086
6.984,-0.0045
6.985,0.0116
6.986,0.0226
6.987,0.0246
6.988,0.0346
6.989,0.0401
6.99,0.0484
6.991,0.0259
6.992,0.0227
6.993,0.0198
6.994,0.0119
6.995,0.0096
6.996,0.0074
6.997,-0.0067
6.998,0.0024
6.999,0.0008
7,-0.0007
7.001,-0.0075
7.002,-0.0186
7.003,-0.023
7.004,-0.0243
7.005,-0.0355
7.006,-0.034
7.007,-0.019
7.008,-0.0049
7.009,0.0079
7.01,0.003
7.011,0.0044
7.012,0.0112
7.013,0.0052
7.014,0.0108
7.015,0.024
7.016,0.0332
7.017,0.0216
7.018,0.0081
7.019,-0.0047
7.02,-0.023
7.021,-0.0399
7.022,-0.0553
7.023,-0.0492
7.024,-0.0254
7.025,-0.0029
7.026,0.0119
7.027,0.0094
7.028,-0.0027
7.029,-0.0049
7.03,0.0011
7.031,0.0066
7.032,-0.0049
7.033,0.0026
7.034,0.0039
7.035,0.005
7.036,0.0083
7.037,0.0074
7.038,0.0011
7.039,0.0057
7.04,0.0182
7.041,0.042
7.042,0.0389
7.043,0.0418
7.044,0.0392
7.045,0.0125
7.046,0.0019
7.047,0.005
7.048,-0.0038
7.049,-0.0117
7.05,-0.0093
7.051,0.0061
7.052,0.0202
7.053,-0.0073
7.054,-0.0269
7.055,-0.0304
7.056,-0.0335
7.057,-0.0305
7.058,-0.0384
7.059,-0.036
7.06,-0.0382
7.061,-0.0523
7.062,-0.0652
7.063,-0.0767
7.064,-0.0542
7.065,-0.0185
7.066,0.0246
7.067,0.0533
7.068,0.0378
7.069,0.033
7.07,0.0288
7.071,0.0092
7.072,0.0127
7.073,0.0222
7.074,0.0251
7.075,0.0172
7.076,0.0196
7.077,0.0086
7.078,0.0187
7.079,0.0169
7.08,0.0053
7.081,0.0039
7.082,0.0079
7.083,0.0139
7.084,0.0196
7.085,0.0226
7.086,0.0216
7.087,0.0273
7.088,0.0251
7.089,0.007
7.09,-0.0005
7.091,-0.0014
7.092,0.0031
7.093,-0.0093
7.094,-0.0038
7.095,-0.0088
7.096,-0.0223
7.097,-0.0205
7.098,-0.0055
7.099,0.0086
7.1,0.0105
7.101,0.0022
7.102,0.0008
7.103,-0.0197
7.104,-0.0285
7.105,-0.0364
7.106,-0.0485
7.107,-0.0463
7.108,-0.0241
7.109,-0.0153
7.11,-0.002
7.111,0.0004
7.112,0.0026
7.113,0.0086
7.114,0.0031
7.115,0.0048
7.116,0.0092
7.117,0.0105
7.118,0.007
7.119,0.0013
7.12,0.0004
7.121,0.0107
7.122,0.0011
7.123,0.0046
7.124,0.0103
7.125,0.0152
7.126,0.0237
7.127,0.0293
7.128,0.0343
7.129,0.0279
7.13,0.0222
7.131,0.0107
7.132,-0.0143
7.133,-0.0536
7.134,-0.0587
7.135,-0.0635
7.136,-0.0507
7.137,-0.0311
7.138,-0.0133
7.139,0.016
7.14,0.0312
7.141,0.0429
7.142,0.0535
7.143,0.044
7.144,0.0172
7.145,0.0207
7.146,0.0176
7.147,-0.0091
7.148,-0.0126
7.149,-0.0157
7.15,-0.0069
7.151,-0.0148
7.152,-0.0124
7.153,-0.0058
7.154,-0.0038
7.155,-0.0056
7.156,-0.0007
7.157,0.0068
7.158,-0.0027
7.159,-0.0212
7.16,-0.0291
7.161,-0.0219
7.162,-0.0153
7.163,-0.0093
7.164,-0.0038
7.165,-0.0055
7.166,-0.0011
7.167,0.0057
7.168,0.0193
7.169,0.0284
7.17,0.0235
7.171,0.0249
7.172,0.0099
7.173,0.016
7.174,0.0105
7.175,-0.0045
7.176,-0.0146
7.177,-0.0274
7.178,-0.0291
7.179,-0.0186
7.18,0.0019
7.181,-0.0069
7.182,-0.0095
7.183,-0.0166
7.184,-0.0188
7.185,-0.0088
7.186,0.0041
7.187,0.0191
7.188,0.013
7.189,0.0075
7.19,0.0125
7.191,0.007
7.192,0.0055
7.193,0.0178
7.194,0.026
7.195,0.0396
7.196,0.0451
7.197,0.0467
7.198,0.0302
7.199,0.0502
7.2,0.0315
7.201,0.0048
7.202,-0.013
7.203,-0.0161
7.204,-0.0132
7.205,-0.021
7.206,-0.0331
7.207,-0.0397
7.208,-0.0377
7.209,-0.0359
7.21,-0.0309
7.211,-0.0265
7.212,-0.0143
7.213,-0.0126
7.214,-0.0022
7.215,-0.0062
7.216,0.0022
7.217,0.0011
7.218,-0.008
7.219,-0.0141
7.22,-0.013
7.221,-0.0159
7.222,-0.0095
7.223,0.003
7.224,0.0304
7.225,0.0187
7.226,0.0081
7.227,0.005
7.228,0.002
7.229,-0.0005
7.23,0.0019
7.231,0.0128
7.232,0.0189
7.233,-0.0012
7.234,-0.0091
7.235,-0.0115
7.236,-0.0049
7.237,-0.015
7.238,-0.0132
7.239,-0.0181
7.24,-0.0225
7.241,-0.013
7.242,-0.0069
7.243,0.0015
7.244,0.0185
7.245,0.0306
7.246,0.046
7.247,0.0359
7.248,0.0231
7.249,0.0182
7.25,0.0138
7.251,-0.0067
7.252,-0.0038
7.253,-0.0064
7.254,-0.0135
7.255,-0.0201
7.256,-0.01
7.257,-0.0082
7.258,-0.0265
7.259,-0.0144
7.26,-0.0034
7.261,-0.0014
7.262,-0.0033
7.263,0.0017
7.264,-0.0027
7.265,0.0013
7.266,0.0097
7.267,0.0019
7.268,-0.0011
7.269,-0.0056
7.27,-0.008
7.271,-0.0119
7.272,-0.0181
7.273,-0.0305
7.274,-0.0214
7.275,-0.0031
7.276,0.0189
7.277,0.0218
7.278,0.0405
7.279,0.0284
7.28,0.0218
7.281,0.0077
7.282,-0.0014
7.283,-0.013
7.284,-0.0205
7.285,-0.0245
7.286,-0.0133
7.287,-0.0029
7.288,-0.0069
7.289,0.0042
7.29,0.0086
7.291,0.0019
7.292,0.0103
7.293,-0.0011
7.294,0.0022
7.295,0.0114
7.296,0.0053
7.297,0.0178
7.298,0.0227
7.299,0.0271
7.3,0.0149
7.301,0.0033
7.302,-0.0011
7.303,0.0057
7.304,-0.0003
7.305,-0.0128
7.306,-0.0177
7.307,-0.0342
7.308,-0.032
7.309,-0.026
7.31,-0.0058
7.311,0.002
7.312,0.0189
7.313,0.0255
7.314,0.0033
7.315,-0.0055
7.316,-0.0133
7.317,-0.0157
7.318,-0.0003
7.319,0.0057
7.32,0.0075
7.321,0.0026
7.322,-0.0049
7.323,0.0019
7.324,0.0053
7.325,-0.0049
7.326,-0.0089
7.327,-0.0124
7.328,-0.0045
7.329,-0.0036
7.33,-0.0064
7.331,-0.004
7.332,-0.0018
7.333,0
7.334,-0.0056
7.335,0.0013
7.336,0.0022
7.337,-0.0002
7.338,-0.0055
7.339,-0.0088
7.34,-0.0031
7.341,-0.0023
7.342,-0.0086
7.343,-0.0161
7.344,-0.0099
7.345,0.0033
7.346,0.0198
7.347,0.0442
7.348,0.0537
7.349,0.0685
7.35,0.0498
7.351,0.0231
7.352,0.0125
7.353,0.003
7.354,-0.0119
7.355,-0.0252
7.356,-0.0276
7.357,-0.0166
7.358,-0.0146
7.359,-0.0164
7.36,-0.0148
7.361,-0.0223
7.362,-0.0318
7.363,-0.0207
7.364,-0.0042
7.365,0.0068
7.366,0.0249
7.367,0.0178
7.368,0.0068
7.369,-0.0113
7.37,-0.0234
7.371,-0.0344
7.372,-0.0283
7.373,-0.0155
7.374,-0.0073
7.375,-0.0088
7.376,-0.0047
7.377,-0.0108
7.378,-0.0051
7.379,-0.006
7.38,0.0061
7.381,0.0077
7.382,0.0242
7.383,0.0308
7.384,0.0248
7.385,0.0266
7.386,0.0282
7.387,0.0178
7.388,0.0191
7.389,0.003
7.39,-0.008
7.391,-0.006
7.392,-0.0005
7.393,-0.0088
7.394,-0.0073
7.395,0.0011
7.396,-0.0029
7.397,0.0055
7.398,0.0134
7.399,0.0105
7.4,0.0096
7.401,0.0055
7.402,0.0063
7.403,0.0081
7.404,-0.0014
7.405,-0.0164
7.406,-0.0144
7.407,-0.0163
7.408,-0.0245
7.409,-0.0289
7.41,-0.0329
7.411,-0.0294
7.412,-0.017
7.413,-0.0088
7.414,-0.0132
7.415,-0.0009
7.416,0.0074
7.417,0.0209
7.418,0.0227
7.419,0.0343
7.42,0.0328
7.421,0.0178
7.422,0.0037
7.423,-0.0018
7.424,-0.01
7.425,-0.0175
7.426,-0.0188
7.427,-0.0153
7.428,-0.0097
7.429,-0.0106
7.43,-0.006
7.431,-0.0036
7.432,0.0033
7.433,0.0079
7.434,0.0055
7.435,0.0002
7.436,0.0048
7.437,0.0143
7.438,0.0238
7.439,0.0103
7.44,-0.0062
7.441,-0.0172
7.442,-0.0273
7.443,-0.0254
7.444,-0.0238
7.445,-0.0012
7.446,0.0224
7.447,0.0193
7.448,0.028
7.449,0.0255
7.45,0.0134
7.451,0.0334
7.452,0.0359
7.453,0.0238
7.454,-0.0093
7.455,-0.0331
7.456,-0.0373
7.457,-0.049
7.458,-0.0597
7.459,-0.0435
7.46,-0.0168
7.461,0.0154
7.462,0.037
7.463,0.0332
7.464,0.0226
7.465,0.0194
7.466,0.0107
7.467,-0.008
7.468,-0.0104
7.469,-0.0126
7.47,-0.0025
7.471,-0.0007
7.472,-0.0056
7.473,0.0079
7.474,0.0097
7.475,0.0048
7.476,0.0033
7.477,0.002
7.478,0.0009
7.479,-0.0047
7.48,0.0002
7.481,0.0141
7.482,0.0081
7.483,0.0099
7.484,0.005
7.485,-0.0025
7.486,-0.0012
7.487,-0.0047
7.488,-0.008
7.489,-0.0071
7.49,-0.0099
7.491,-0.0207
7.492,-0.0192
7.493,-0.0152
7.494,-0.0117
7.495,-0.0084
7.496,-0.0034
7.497,-0.0047
7.498,0.0017
7.499,0.0141
7.5,0.0269
7.501,0.0053
7.502,0.026
7.503,0.0286
7.504,0.0066
7.505,-0.0082
7.506,-0.0161
7.507,-0.0137
7.508,-0.0159
7.509,-0.0058
7.51,-0.0113
7.511,-0.0097
7.512,-0.0053
7.513,-0.0093
7.514,-0.0128
7.515,-0.0049
7.516,0.0083
7.517,0.0101
7.518,0.0052
7.519,0.0127
7.52,0.0277
7.521,0.0216
7.522,0.0198
7.523,0.0182
7.524,0.0107
7.525,0.0039
7.526,-0.0146
7.527,-0.028
7.528,-0.0304
7.529,-0.0238
7.53,-0.0379
7.531,-0.036
7.532,-0.0311
7.533,-0.0415
7.534,-0.0483
7.535,-0.0298
7.536,0.0105
7.537,0.0277
7.538,0.0226
7.539,-0.0012
7.54,-0.0141
7.541,-0.0179
7.542,-0.0144
7.543,-0.0175
7.544,-0.0027
7.545,0.0052
7.546,0.0123
7.547,0.0277
7.548,0.0216
7.549,0.0237
7.55,0.0328
7.551,0.0511
7.552,0.0487
7.553,0.0421
7.554,0.0361
7.555,0.0306
7.556,0.0156
7.557,0.0015
7.558,-0.0113
7.559,-0.013
7.56,-0.0115
7.561,-0.0075
7.562,-0.011
7.563,-0.0007
7.564,0.0116
7.565,0.0132
7.566,-0.0003
7.567,-0.0132
7.568,-0.0115
7.569,-0.0159
7.57,-0.0227
7.571,-0.0262
7.572,-0.0113
7.573,-0.0012
7.574,-0.0031
7.575,-0.0047
7.576,-0.0122
7.577,-0.011
7.578,-0.0049
7.579,-0.006
7.58,-0.0031
7.581,-0.0003
7.582,0.0004
7.583,0.0011
7.584,0.003
7.585,0.0125
7.586,0.003
7.587,-0.0005
7.588,0.0028
7.589,0.0037
7.59,0.0101
7.591,0.0044
7.592,0.0097
7.593,0.02
7.594,0.0365
7.595,0.0387
7.596,0.0326
7.597,0.0381
7.598,0.0332
7.599,0.0158
7.6,0.0083
7.601,-0.0095
7.602,-0.0071
7.603,-0.0049
7.604,0.0253
7.605,0.0555
7.606,0.0594
7.607,0.0559
7.608,0.0528
7.609,0.0202
7.61,-0.0448
7.611,-0.0728
7.612,-0.1151
7.613,-0.169
7.614,-0.2039
7.615,-0.2102
7.616,-0.193
7.617,-0.1563
7.618,-0.1421
7.619,-0.1292
7.62,-0.1096
7.621,-0.0919
7.622,-0.0432
7.623,0.0339
7.624,0.0442
7.625,0.0535
7.626,0.0451
7.627,0.0528
7.628,0.0597
7.629,0.0535
7.63,0.0707
7.631,0.0863
7.632,0.0815
7.633,0.0943
7.634,0.0905
7.635,0.0727
7.636,0.0696
7.637,0.0608
7.638,0.0529
7.639,0.0458
7.64,0.0524
7.641,0.0544
7.642,0.0306
7.643,0.0081
7.644,0.011
7.645,0.0189
7.646,0.0409
7.647,0.0379
7.648,0.0354
7.649,0.0475
7.65,0.0465
7.651,0.0575
7.652,0.0636
7.653,0.0837
7.654,0.0916
7.655,0.0696
7.656,0.0548
7.657,0.0469
7.658,0.0348
7.659,0.0458
7.66,0.0438
7.661,0.0346
7.662,0.0264
7.663,0.0128
7.664,-0.011
7.665,-0.0467
7.666,-0.0705
7.667,-0.0833
7.668,-0.1188
7.669,-0.1236
7.67,-0.1194
7.671,-0.1155
7.672,-0.0977
7.673,-0.0816
7.674,-0.0846
7.675,-0.0767
7.676,-0.0646
7.677,-0.0624
7.678,-0.0604
7.679,-0.0476
7.68,-0.036
7.681,-0.0135
7.682,-0.004
7.683,0.0167
7.684,0.0246
7.685,0.0269
7.686,0.0335
7.687,0.0235
7.688,0.0143
7.689,0.0028
7.69,-0.0197
7.691,-0.0166
7.692,-0.0196
7.693,-0.0009
7.694,0.0112
7.695,0.0178
7.696,0.0077
7.697,0.0096
7.698,-0.0055
7.699,-0.0115
7.7,-0.0243
7.701,-0.0326
7.702,-0.0309
7.703,-0.0113
7.704,-0.0139
7.705,-0.0067
7.706,0.0086
7.707,0.0308
7.708,0.0337
7.709,0.0312
7.71,0.0288
7.711,0.031
7.712,0.0128
7.713,0.0105
7.714,-0.0139
7.715,0.0022
7.716,0.011
7.717,0.0189
7.718,0.0118
7.719,0.0096
7.72,0.0075
7.721,-0.0089
7.722,-0.0111
7.723,-0.0212
7.724,-0.0157
7.725,-0.0075
7.726,-0.0031
7.727,0.0174
7.728,0.0262
7.729,0.0128
7.73,0.0057
7.731,0.0079
7.732,0.0099
7.733,0.0154
7.734,0.0204
7.735,0.016
7.736,0.0064
7.737,0.0125
7.738,0.0114
7.739,0.0002
7.74,-0.0042
7.741,-0.0164
7.742,-0.0181
7.743,-0.0196
7.744,-0.0183
7.745,-0.0194
7.746,-0.0091
7.747,-0.0051
7.748,0.0009
7.749,0.0042
7.75,0.0033
7.751,-0.0106
7.752,-0.0077
7.753,-0.0056
7.754,0.0108
7.755,0.0042
7.756,0.0224
7.757,0.02
7.758,0.0443
7.759,0.0348
7.76,0.026
7.761,0.0182
7.762,0.0061
7.763,-0.0093
7.764,-0.0073
7.765,-0.0128
7.766,-0.0111
7.767,-0.0126
7.768,-0.0113
7.769,0.0072
7.77,-0.0007
7.771,-0.0031
7.772,-0.0053
7.773,-0.0153
7.774,-0.0282
7.775,-0.0199
7.776,-0.0214
7.777,-0.0337
7.778,-0.0254
7.779,-0.021
7.78,-0.0143
7.781,-0.0278
7.782,-0.0333
7.783,-0.0316
7.784,-0.0241
7.785,-0.0174
7.786,-0.0062
7.787,0.0163
7.788,0.0259
7.789,0.0288
7.79,0.0154
7.791,0.0083
7.792,0.0149
7.793,0.0128
7.794,0.0183
7.795,0.0432
7.796,0.0467
7.797,0.0372
7.798,0.0224
7.799,0.0198
7.8,0.0077
7.801,-0.0077
7.802,-0.0218
7.803,-0.0289
7.804,-0.0234
7.805,-0.0084
7.806,0.0097
7.807,0.0266
7.808,0.0376
7.809,0.0275
7.81,0.0183
7.811,0.0068
7.812,-0.0067
7.813,-0.0159
7.814,-0.0175
7.815,-0.019
7.816,-0.0203
7.817,-0.0214
7.818,-0.0066
7.819,0.0075
7.82,0.0057
7.821,0.0074
7.822,-0.0091
7.823,-0.0157
7.824,-0.0218
7.825,-0.0309
7.826,-0.0227
7.827,-0.0031
7.828,-0.0056
7.829,-0.0177
7.83,-0.0111
7.831,-0.0051
7.832,-0.0143
7.833,-0.0159
7.834,-0.0115
7.835,0.0008
7.836,0.0024
7.837,0.0189
7.838,0.0389
7.839,0.0414
7.84,0.0246
7.841,0.0002
7.842,-0.0029
7.843,0.0059
7.844,-0.002
7.845,-0.0091
7.846,-0.0069
7.847,-0.0009
7.848,-0.0064
7.849,-0.0047
7.85,0.0057
7.851,-0.0011
7.852,0.0101
7.853,0.0116
7.854,0.0048
7.855,0.0061
7.856,0.0096
7.857,0.0174
7.858,0.0224
7.859,0.0233
7.86,0.0108
7.861,-0.0166
7.862,-0.0205
7.863,-0.0099
7.864,-0.0067
7.865,0.002
7.866,0.0262
7.867,0.0357
7.868,0.009
7.869,-0.0088
7.87,-0.0313
7.871,-0.0461
7.872,-0.0703
7.873,-0.0734
7.874,-0.0586
7.875,-0.0291
7.876,-0.0095
7.877,0.0083
7.878,0.0178
7.879,0.0207
7.88,0.0286
7.881,0.0262
7.882,0.0462
7.883,0.0487
7.884,0.0367
7.885,0.0213
7.886,0.0112
7.887,0.0167
7.888,0.0216
7.889,0.0112
7.89,-0.0011
7.891,-0.0027
7.892,-0.0071
7.893,-0.0166
7.894,-0.0155
7.895,-0.0166
7.896,-0.0298
7.897,-0.0316
7.898,-0.0333
7.899,-0.0168
7.9,-0.0014
7.901,0.0046
7.902,0.0064
7.903,0.0114
7.904,0.0158
7.905,0.0114
7.906,0.0154
7.907,0.0215
7.908,0.0385
7.909,0.0409
7.91,0.0431
7.911,0.0249
7.912,0.0178
7.913,0.0156
7.914,-0.0066
7.915,-0.0095
7.916,-0.0121
7.917,-0.0097
7.918,-0.0163
7.919,-0.0223
7.92,-0.0241
7.921,-0.0225
7.922,-0.0181
7.923,-0.0168
7.924,-0.0157
7.925,-0.019
7.926,-0.0099
7.927,-0.0014
7.928,0.0064
7.929,0.0094
7.93,0.0178
7.931,0.0189
7.932,0.018
7.933,0.0189
7.934,0.0064
7.935,-0.0064
7.936,-0.0179
7.937,-0.0283
7.938,-0.0351
7.939,-0.0267
7.94,-0.0324
7.941,-0.0333
7.942,-0.0324
7.943,-0.0199
7.944,-0.0218
7.945,-0.0135
7.946,0.003
7.947,0.0183
7.948,0.0244
7.949,0.0226
7.95,0.0209
7.951,0.0194
7.952,0.0207
7.953,0.0242
7.954,0.0185
7.955,0.0116
7.956,0.0092
7.957,0.0028
7.958,0.0085
7.959,0.02
7.96,0.035
7.961,0.0209
7.962,0.0008
7.963,0.0033
7.964,-0.0088
7.965,-0.0153
7.966,-0.0174
7.967,-0.0229
7.968,-0.0179
7.969,-0.0135
7.97,-0.0095
7.971,0.0041
7.972,0.0169
7.973,0.0185
7.974,0.0081
7.975,-0.0124
7.976,-0.0095
7.977,-0.0121
7.978,-0.0241
7.979,-0.0307
7.98,-0.0126
7.981,-0.0102
7.982,-0.008
7.983,-0.006
7.984,-0.0042
7.985,0.0008
7.986,-0.0007
7.987,-0.002
7.988,-0.008
7.989,-0.0091
7.99,-0.0042
7.991,-0.0069
7.992,-0.0077
7.993,-0.0069
7.994,0.002
7.995,0.0205
7.996,0.0231
7.997,0.011
7.998,0.022
7.999,0.024
8,0.0185
8.001,0.0268
8.002,0.0224
8.003,0.0156
8.004,0.002
8.005,0.0039
8.006,-0.0077
8.007,-0.0223
8.008,-0.0359
8.009,-0.0194
8.01,-0.0172
8.011,-0.0071
8.012,0.0094
8.013,0.0116
8.014,-0.0146
8.015,-0.0181
8.016,-0.015
8.017,-0.0121
8.018,-0.0042
8.019,0.0079
8.02,0.0189
8.021,0.0169
8.022,0.015
8.023,0.0167
8.024,0.0092
8.025,-0.0031
8.026,-0.008
8.027,-0.0095
8.028,-0.0108
8.029,-0.0168
8.03,-0.0201
8.031,-0.0251
8.032,-0.026
8.033,-0.0135
8.034,0.0139
8.035,0.0101
8.036,0.0066
8.037,-0.0095
8.038,-0.0124
8.039,-0.0099
8.04,-0.0122
8.041,-0.0056
8.042,0.0004
8.043,0.0132
8.044,0.0348
8.045,0.026
8.046,0.0127
8.047,0.0103
8.048,-0.0051
8.049,-0.0192
8.05,-0.021
8.051,-0.0194
8.052,-0.0179
8.053,-0.0111
8.054,0.0024
8.055,0.0189
8.056,0.0343
8.057,0.0202
8.058,0.0143
8.059,-0.0058
8.06,-0.0033
8.061,0.0039
8.062,-0.0027
8.063,0.0114
8.064,-0.0051
8.065,-0.0117
8.066,-0.0137
8.067,-0.0155
8.068,-0.004
8.069,0.0064
8.07,0.0052
8.071,-0.0033
8.072,-0.0066
8.073,-0.0056
8.074,0.0083
8.075,0.0022
8.076,0.0114
8.077,0.0097
8.078,0.0172
8.079,0.0185
8.08,0.0196
8.081,0.0163
8.082,0.0114
8.083,0.0011
8.084,-0.0194
8.085,-0.0223
8.086,-0.0249
8.087,-0.037
8.088,-0.026
8.089,-0.0119
8.09,-0.0027
8.091,0.0022
8.092,-0.0022
8.093,-0.0089
8.094,-0.0029
8.095,-0.0108
8.096,-0.0199
8.097,-0.021
8.098,-0.0267
8.099,-0.0135
8.1,-0.0007
8.101,0.0042
8.102,0.0147
8.103,0.0324
8.104,0.0348
8.105,0.0238
8.106,0.0138
8.107,0.0083
8.108,0.0066
8.109,0.0011
8.11,-0.0093
8.111,0.0002
8.112,0.0114
8.113,0.0189
8.114,0.0257
8.115,0.0222
8.116,0.0074
8.117,0.0013
8.118,0.0068
8.119,0.0052
8.12,0.0037
8.121,-0.0031
8.122,-0.0091
8.123,-0.0102
8.124,-0.0152
8.125,-0.0161
8.126,-0.0201
8.127,-0.0117
8.128,-0.0128
8.129,-0.026
8.13,-0.0205
8.131,-0.0188
8.132,-0.0293
8.133,-0.036
8.134,-0.0249
8.135,-0.0053
8.136,0.0081
8.137,0.0202
8.138,0.018
8.139,0.0079
8.14,0.0061
8.141,0.0011
8.142,0.0086
8.143,0.0237
8.144,0.0297
8.145,0.0389
8.146,0.0372
8.147,0.0328
8.148,0.026
8.149,0.0075
8.15,-0.0058
8.151,-0.0227
8.152,-0.0249
8.153,-0.039
8.154,-0.0262
8.155,-0.0111
8.156,-0.0051
8.157,-0.0069
8.158,-0.002
8.159,-0.0095
8.16,-0.004
8.161,-0.0027
8.162,0.0108
8.163,0.0237
8.164,0.0253
8.165,0.0297
8.166,0.0365
8.167,0.033
8.168,0.016
8.169,-0.0157
8.17,-0.0285
8.171,-0.0324
8.172,-0.0146
8.173,-0.0177
8.174,-0.0029
8.175,0.0105
8.176,0.0176
8.177,0.011
8.178,-0.0031
8.179,-0.0159
8.18,-0.0342
8.181,-0.0511
8.182,-0.0357
8.183,-0.0175
8.184,-0.0152
8.185,-0.0086
8.186,0.0015
8.187,0.0033
8.188,0.0083
8.189,0.0008
8.19,0.0075
8.191,0.0086
8.192,0.003
8.193,0.002
8.194,0.0011
8.195,0.0068
8.196,-0.0047
8.197,-0.0163
8.198,-0.0088
8.199,-0.0047
8.2,0.0088
8.201,0.007
8.202,0.0152
8.203,-0.0012
8.204,0.0053
8.205,0.0154
8.206,0.0319
8.207,0.0429
8.208,0.0288
8.209,0.0123
8.21,0.0189
8.211,0.0187
8.212,0.0006
8.213,-0.0018
8.214,-0.0128
8.215,-0.0188
8.216,-0.017
8.217,-0.0219
8.218,-0.0084
8.219,0.0008
8.22,-0.0175
8.221,-0.0199
8.222,0
8.223,0.0187
8.224,0.0407
8.225,0.0319
8.226,0.0185
8.227,0.0114
8.228,0.0048
8.229,-0.0053
8.23,-0.0108
8.231,-0.0157
8.232,-0.0082
8.233,-0.0042
8.234,-0.0177
8.235,-0.0342
8.236,-0.032
8.237,-0.0219
8.238,-0.0201
8.239,-0.0119
8.24,-0.0075
8.241,0.0048
8.242,0.013
8.243,-0.0034
8.244,-0.0144
8.245,-0.0205
8.246,-0.026
8.247,-0.011
8.248,-0.017
8.249,-0.0115
8.25,0.0035
8.251,0.0216
8.252,0.0288
8.253,0.0134
8.254,0.0074
8.255,0.0128
8.256,-0.0055
8.257,-0.0175
8.258,-0.0197
8.259,-0.0137
8.26,-0.0155
8.261,-0.0106
8.262,-0.0033
8.263,0.0103
8.264,0.0378
8.265,0.0495
8.266,0.0672
8.267,0.0511
8.268,0.0185
8.269,0.0143
8.27,0.0026
8.271,-0.008
8.272,-0.0049
8.273,-0.002
8.274,-0.0099
8.275,-0.0219
8.276,-0.0197
8.277,-0.0218
8.278,-0.0236
8.279,-0.0252
8.28,-0.0177
8.281,-0.03
8.282,-0.0283
8.283,-0.0179
8.284,-0.0029
8.285,-0.0049
8.286,-0.0104
8.287,0.0011
8.288,0.0086
8.289,0.0074
8.29,0.0108
8.291,0.003
8.292,0.0141
8.293,0.0127
8.294,0.0114
8.295,0.0249
8.296,0.0268
8.297,0.0152
8.298,0.0017
8.299,-0.0111
8.3,-0.0095
8.301,-0.017
8.302,-0.0265
8.303,-0.023
8.304,-0.0263
8.305,-0.0132
8.306,-0.015
8.307,-0.01
8.308,-0.0025
8.309,0.018
8.31,0.0387
8.311,0.0465
8.312,0.0297
8.313,0.0085
8.314,-0.0025
8.315,0.0075
8.316,0.0167
8.317,0.0183
8.318,-0.0012
8.319,-0.0146
8.32,0.0074
8.321,0.0103
8.322,0.0024
8.323,0.0096
8.324,0.0074
8.325,-0.0067
8.326,-0.0122
8.327,-0.0273
8.328,-0.0252
8.329,-0.0271
8.33,-0.0254
8.331,-0.0298
8.332,-0.0148
8.333,-0.0168
8.334,-0.0223
8.335,-0.0207
8.336,-0.0163
8.337,-0.0095
8.338,-0.0011
8.339,0.0092
8.34,0.0052
8.341,0.0063
8.342,0.0096
8.343,0.0046
8.344,0.0019
8.345,0.0011
8.346,-0.0042
8.347,-0.0023
8.348,0.0008
8.349,0.0092
8.35,0.0277
8.351,0.0356
8.352,0.0284
8.353,0.0174
8.354,0.0194
8.355,0.0066
8.356,0.0017
8.357,0.0002
8.358,-0.0093
8.359,-0.0058
8.36,-0.0002
8.361,0.0068
8.362,0.0041
8.363,-0.0016
8.364,-0.0025
8.365,0.0013
8.366,0.0116
8.367,0.0251
8.368,0.0269
8.369,0.0187
8.37,0.0052
8.371,-0.0003
8.372,-0.0119
8.373,-0.0223
8.374,-0.021
8.375,-0.0221
8.376,-0.0119
8.377,-0.0051
8.378,0.0009
8.379,-0.0002
8.38,-0.0071
8.381,-0.0135
8.382,-0.006
8.383,0.0072
8.384,-0.002
8.385,-0.0135
8.386,-0.021
8.387,-0.0305
8.388,-0.034
8.389,-0.0262
8.39,-0.0252
8.391,-0.0262
8.392,-0.0137
8.393,0.0101
8.394,0.0132
8.395,0.0161
8.396,0.0136
8.397,0.0064
8.398,0.013
8.399,0.015
8.4,0.0059
8.401,0.0009
8.402,0.0085
8.403,0.0262
8.404,0.0334
8.405,0.0399
8.406,0.0299
8.407,0.028
8.408,0.033
8.409,0.0345
8.41,0.0222
8.411,0.0107
8.412,0.0242
8.413,0.037
8.414,0.0553
8.415,0.0561
8.416,0.0584
8.417,0.0253
8.418,0.0015
8.419,-0.0201
8.42,-0.0714
8.421,-0.1346
8.422,-0.1937
8.423,-0.2014
8.424,-0.1805
8.425,-0.1743
8.426,-0.1455
8.427,-0.1194
8.428,-0.0763
8.429,-0.036
8.43,0.0112
8.431,0.0301
8.432,0.0357
8.433,0.0202
8.434,0.0154
8.435,0.0282
8.436,0.0321
8.437,0.0215
8.438,0.0376
8.439,0.0464
8.44,0.065
8.441,0.0722
8.442,0.0788
8.443,0.0768
8.444,0.0786
8.445,0.0636
8.446,0.0495
8.447,0.0403
8.448,0.0354
8.449,0.0489
8.45,0.0324
8.451,0.0125
8.452,0.015
8.453,0.0222
8.454,0.0244
8.455,0.0103
8.456,0.0231
8.457,0.0313
8.458,0.0269
8.459,0.0392
8.46,0.0608
8.461,0.0934
8.462,0.0718
8.463,0.0601
8.464,0.0779
8.465,0.0617
8.466,0.0495
8.467,0.0407
8.468,0.0381
8.469,0.026
8.47,0.0414
8.471,0.0233
8.472,-0.0132
8.473,-0.0604
8.474,-0.0921
8.475,-0.0864
8.476,-0.102
8.477,-0.1067
8.478,-0.1109
8.479,-0.1071
8.48,-0.0965
8.481,-0.0739
8.482,-0.0591
8.483,-0.0512
8.484,-0.0196
8.485,-0.0238
8.486,-0.0355
8.487,-0.032
8.488,-0.0351
8.489,-0.0263
8.49,-0.0342
8.491,-0.0221
8.492,-0.0243
8.493,-0.0102
8.494,-0.0084
8.495,-0.0067
8.496,-0.0143
8.497,-0.0183
8.498,-0.0148
8.499,-0.0023
8.5,-0.004
8.501,0.0064
8.502,0.0187
8.503,0.0237
8.504,0.0161
8.505,0.0174
8.506,0.0063
8.507,-0.0133
8.508,-0.0212
8.509,-0.0188
8.51,-0.0078
8.511,-0.0139
8.512,-0.0011
8.513,0.0072
8.514,0.0147
8.515,0.0269
8.516,0.0319
8.517,0.0341
8.518,0.0356
8.519,0.0561
8.52,0.0709
8.521,0.0683
8.522,0.0464
8.523,0.0077
8.524,-0.0289
8.525,-0.0432
8.526,-0.0474
8.527,-0.0512
8.528,-0.0406
8.529,-0.0311
8.53,-0.0104
8.531,0.0138
8.532,0.0363
8.533,0.0275
8.534,0.0249
8.535,0.0178
8.536,0.0112
8.537,0.0052
8.538,-0.0003
8.539,-0.002
8.54,-0.0124
8.541,-0.0164
8.542,-0.008
8.543,-0.0113
8.544,-0.0104
8.545,-0.0058
8.546,-0.0082
8.547,-0.006
8.548,-0.0093
8.549,-0.0036
8.55,0.0079
8.551,0.0262
8.552,0.0238
8.553,0.0085
8.554,-0.0016
8.555,-0.0071
8.556,-0.0153
8.557,-0.0229
8.558,-0.0106
8.559,-0.0023
8.56,0.0081
8.561,0.0121
8.562,0.0009
8.563,-0.0034
8.564,-0.0075
8.565,-0.011
8.566,-0.0053
8.567,-0.0003
8.568,0.0055
8.569,0.0119
8.57,0.0244
8.571,0.0372
8.572,0.0487
8.573,0.0383
8.574,0.0178
8.575,0.003
8.576,-0.0104
8.577,-0.0225
8.578,-0.0291
8.579,-0.0311
8.58,-0.0366
8.581,-0.0283
8.582,-0.0058
8.583,0.0235
8.584,0.0273
8.585,0.0167
8.586,-0.0058
8.587,-0.0326
8.588,-0.0503
8.589,-0.0472
8.59,-0.0384
8.591,-0.0359
8.592,-0.019
8.593,0.0141
8.594,0.0189
8.595,0.0061
8.596,-0.0056
8.597,-0.0022
8.598,-0.0053
8.599,0.0035
8.6,0.0009
8.601,0.0178
8.602,0.0244
8.603,0.0304
8.604,0.0249
8.605,0.0299
8.606,0.0343
8.607,0.0165
8.608,0.0094
8.609,0.0028
8.61,0.0008
8.611,-0.0047
8.612,-0.013
8.613,-0.0086
8.614,-0.0073
8.615,-0.0185
8.616,-0.0229
8.617,-0.0188
8.618,-0.0077
8.619,-0.0077
8.62,-0.0121
8.621,-0.0108
8.622,-0.0023
8.623,0.0147
8.624,0.0315
8.625,0.0205
8.626,0.0266
8.627,0.0357
8.628,0.0275
8.629,0.02
8.63,-0.0005
8.631,-0.0153
8.632,-0.0232
8.633,-0.0208
8.634,-0.0143
8.635,-0.0122
8.636,-0.0214
8.637,-0.0132
8.638,-0.0146
8.639,-0.0106
8.64,-0.0095
8.641,-0.0038
8.642,-0.015
8.643,-0.0106
8.644,-0.0011
8.645,0.0024
8.646,0.0127
8.647,0.0139
8.648,0.0028
8.649,0.0072
8.65,0.0031
8.651,0.0066
8.652,0.0099
8.653,0.0108
8.654,0.0024
8.655,-0.0033
8.656,0.0099
8.657,0.0154
8.658,0.0204
8.659,0.016
8.66,0.0172
8.661,0.0257
8.662,0.0224
8.663,0.0072
8.664,-0.026
8.665,-0.0593
8.666,-0.0809
8.667,-0.0613
8.668,-0.0364
8.669,-0.0139
8.67,-0.0143
8.671,-0.0055
8.672,0.0132
8.673,0.0352
8.674,0.0381
8.675,0.0356
8.676,0.0235
8.677,0.0035
8.678,-0.0099
8.679,-0.0075
8.68,-0.0053
8.681,0.0008
8.682,0.0136
8.683,0.0218
8.684,0.0233
8.685,0.0138
8.686,0.0103
8.687,0.0024
8.688,0.0015
8.689,-0.0088
8.69,-0.0128
8.691,-0.0117
8.692,-0.0174
8.693,-0.0164
8.694,-0.0155
8.695,-0.0148
8.696,-0.017
8.697,-0.0175
8.698,-0.0093
8.699,0.0009
8.7,-0.0086
8.701,-0.0002
8.702,0.0055
8.703,0.0105
8.704,0.0114
8.705,0.0121
8.706,0.0128
8.707,0.0147
8.708,0.0064
8.709,0.0189
8.71,0.0172
8.711,0.0158
8.712,0.0145
8.713,0.0085
8.714,0.0096
8.715,0.0026
8.716,-0.0113
8.717,-0.0375
8.718,-0.041
8.719,-0.0315
8.72,-0.0344
8.721,-0.0282
8.722,-0.0256
8.723,0.0061
8.724,0.0189
8.725,0.0385
8.726,0.035
8.727,0.0255
8.728,0.0226
8.729,0.0251
8.73,0.0227
8.731,0.0205
8.732,0.0266
8.733,0.0211
8.734,0.0326
8.735,0.0222
8.736,0.0182
8.737,0.0046
8.738,-0.0045
8.739,-0.0062
8.74,-0.0287
8.741,-0.0512
8.742,-0.0661
8.743,-0.0686
8.744,-0.0565
8.745,-0.0278
8.746,-0.0082
8.747,0.0096
8.748,0.0389
8.749,0.0427
8.75,0.0178
8.751,0.0147
8.752,-0.0002
8.753,-0.0027
8.754,-0.0051
8.755,-0.0029
8.756,-0.013
8.757,-0.0038
8.758,-0.0055
8.759,-0.004
8.76,0
8.761,-0.0011
8.762,0.0068
8.763,0.0118
8.764,0.0182
8.765,0.0238
8.766,0.0123
8.767,-0.0027
8.768,0.0033
8.769,0.0088
8.77,0.0072
8.771,-0.0033
8.772,-0.0106
8.773,-0.0038
8.774,0.0147
8.775,0.028
8.776,0.0401
8.777,0.0467
8.778,0.0447
8.779,0.0209
8.78,0.0114
8.781,-0.0093
8.782,-0.0227
8.783,-0.0544
8.784,-0.0672
8.785,-0.0789
8.786,-0.0754
8.787,-0.0593
8.788,-0.0326
8.789,-0.0219
8.79,-0.0124
8.791,-0.0095
8.792,-0.0016
8.793,0.0055
8.794,0.0077
8.795,0.0218
8.796,0.0273
8.797,0.029
8.798,0.0215
8.799,0.0282
8.8,0.0317
8.801,0.026
8.802,0.0149
8.803,0.0013
8.804,-0.0042
8.805,-0.0124
8.806,-0.011
8.807,-0.0232
8.808,-0.015
8.809,-0.0106
8.81,0.0017
8.811,0.0066
8.812,0.011
8.813,0.0178
8.814,0.0167
8.815,0.0088
8.816,0.0039
8.817,-0.0045
8.818,-0.017
8.819,-0.0252
8.82,-0.0296
8.821,-0.0392
8.822,-0.028
8.823,-0.0179
8.824,0.0046
8.825,0.0141
8.826,0.0348
8.827,0.0374
8.828,0.0302
8.829,0.0237
8.83,0.0337
8.831,0.0246
8.832,0.013
8.833,-0.0005
8.834,0.0013
8.835,0.003
8.836,-0.0106
8.837,-0.0197
8.838,-0.0148
8.839,-0.0133
8.84,-0.0146
8.841,-0.0086
8.842,-0.0075
8.843,0.0017
8.844,0.0052
8.845,-0.0005
8.846,0.0004
8.847,-0.0099
8.848,-0.0086
8.849,-0.0025
8.85,-0.0082
8.851,-0.0132
8.852,-0.0104
8.853,-0.0047
8.854,0.0053
8.855,0.0013
8.856,-0.0047
8.857,-0.0126
8.858,-0.0077
8.859,-0.0031
8.86,-0.0007
8.861,0.0046
8.862,0
8.863,0.0083
8.864,0.0185
8.865,0.0226
8.866,0.0215
8.867,0.0204
8.868,0.0213
8.869,0.0074
8.87,-0.0067
8.871,-0.0232
8.872,-0.0432
8.873,-0.0353
8.874,-0.0282
8.875,-0.021
8.876,-0.0011
8.877,0.0176
8.878,0.0493
8.879,0.0451
8.88,0.0176
8.881,0.007
8.882,-0.0091
8.883,-0.0298
8.884,-0.0377
8.885,-0.0448
8.886,-0.0382
8.887,-0.0201
8.888,-0.0033
8.889,0.0033
8.89,0.0013
8.891,-0.0005
8.892,0.0011
8.893,-0.0033
8.894,-0.0045
8.895,-0.008
8.896,0.009
8.897,0.0259
8.898,0.0237
8.899,0.0216
8.9,0.0308
8.901,0.039
8.902,0.0194
8.903,-0.01
8.904,-0.0296
8.905,-0.0331
8.906,-0.0362
8.907,-0.0155
8.908,0.0031
8.909,0.0055
8.91,0.0033
8.911,0.0013
8.912,-0.0042
8.913,-0.0124
8.914,-0.0168
8.915,-0.0155
8.916,-0.0121
8.917,0.0004
8.918,0.0086
8.919,0.0101
8.92,0.0006
8.921,0.0041
8.922,0.0119
8.923,0.011
8.924,0.0046
8.925,0.0128
8.926,0.0121
8.927,0.0237
8.928,0.0352
8.929,0.0517
8.93,0.0363
8.931,0.0262
8.932,0.0134
8.933,0.0019
8.934,-0.0056
8.935,-0.0152
8.936,-0.0141
8.937,-0.0243
8.938,-0.0338
8.939,-0.0304
8.94,-0.0201
8.941,-0.0106
8.942,-0.0141
8.943,-0.0108
8.944,-0.0099
8.945,-0.0108
8.946,-0.0033
8.947,-0.0023
8.948,0.0022
8.949,-0.0018
8.95,-0.0119
8.951,-0.0051
8.952,0.0033
8.953,0.0158
8.954,0.0207
8.955,0.0251
8.956,0.0101
8.957,-0.0121
8.958,-0.0208
8.959,-0.0287
8.96,-0.0166
8.961,0.0077
8.962,0.0302
8.963,0.057
8.964,0.0535
8.965,0.0374
8.966,0.0048
8.967,-0.0254
8.968,-0.045
8.969,-0.0485
8.97,-0.058
8.971,-0.0432
8.972,-0.0353
8.973,-0.0282
8.974,-0.026
8.975,-0.024
8.976,-0.0186
8.977,0.0015
8.978,0.0418
8.979,0.0246
8.98,0.0401
8.981,0.0449
8.982,0.0321
8.983,0.0125
8.984,-0.0053
8.985,-0.0214
8.986,-0.0185
8.987,-0.0159
8.988,0.0061
8.989,0.0268
8.99,0.0081
8.991,0.0009
8.992,0.0119
8.993,0.0019
8.994,-0.0183
8.995,-0.0316
8.996,-0.0437
8.997,-0.0327
8.998,-0.0106
8.999,0.0042
9,0.0121
9.001,0.0193
9.002,0.0215
9.003,0.0114
9.004,0.0059
9.005,0.0042
9.006,-0.0033
9.007,-0.01
9.008,-0.0089
9.009,-0.01
9.01,-0.0031
