0,1.622,0
0.001,-0.209,0
0.002,5.284,0
0.003,-6.251,0
0.004,5.284,0
0.005,3.82,0
0.006,2.538,0
0.007,3.636,0
0.008,11.51,0
0.009,6.566,0
0.01,-5.519,0
0.011,-3.871,0
0.012,-2.406,0
0.013,-3.688,0
0.014,-2.589,0
0.015,-1.49,0
0.016,-0.575,0
0.017,-1.49,0
0.018,0.89,0
0.019,0.157,0
0.02,0.707,0
0.021,0.157,0
0.022,-0.392,0
0.023,-1.674,0
0.024,-0.392,0
0.025,-2.406,0
0.026,-2.04,0
0.027,-0.941,0
0.028,-0.758,0
0.029,-1.49,0
0.03,-5.519,0
0.031,-7.167,0
0.032,0.341,0
0.033,-0.758,0
0.034,-1.674,0
0.035,-4.42,0
0.036,-3.688,0
0.037,1.622,0
0.038,-2.955,0
0.039,1.439,0
0.04,1.989,0
0.041,-0.392,0
0.042,1.805,0
0.043,-2.04,0
0.044,1.256,0
0.045,0.89,0
0.046,-0.209,0
0.047,4.003,0
0.048,1.256,0
0.049,2.538,0
0.05,-0.575,0
0.051,0.89,0
0.052,1.256,0
0.053,6.932,0
0.054,2.904,0
0.055,14.44,0
0.056,9.496,0
0.057,1.989,0
0.058,-2.04,0
0.059,-0.941,0
0.06,-2.04,0
0.061,0.89,0
0.062,1.805,0
0.063,9.313,0
0.064,10.228,0
0.065,12.975,0
0.066,18.651,0
0.067,22.496,0
0.068,24.327,0
0.069,22.496,0
0.07,21.947,0
0.071,14.44,0
0.072,13.341,0
0.073,10.411,0
0.074,5.834,0
0.075,5.101,0
0.076,-0.209,0
0.077,-10.463,0
0.078,-20.9,0
0.079,-22.181,0
0.08,-28.224,0
0.081,-43.055,0
0.082,-41.041,0
0.083,-35.548,0
0.084,-24.012,0
0.085,-16.505,0
0.086,-17.787,0
0.087,-16.688,0
0.088,-31.52,0
0.089,-53.676,0
0.09,-74.366,0
0.091,-93.043,0
0.092,-124.72,0
0.093,-154.93,0
0.094,-158.78,0
0.095,-155.3,0
0.096,-145.78,0
0.097,-125.09,0
0.098,-106.41,0
0.099,-74.733,0
0.1,-27.125,0
0.101,55.638,0
0.102,144.44,0
0.103,178.14,0
0.104,188.39,0
0.105,179.05,0
0.106,153.78,0
0.107,130.71,0
0.108,123.75,0
0.109,104.89,0
0.11,99.218,0
0.111,83.654,0
0.112,88.414,0
0.113,92.626,0
0.114,104.34,0
0.115,100.86,0
0.116,91.344,0
0.117,88.414,0
0.118,85.851,0
0.119,83.47,0
0.12,76.879,0
0.121,78.893,0
0.122,62.413,0
0.123,38.06,0
0.124,15.538,0
0.125,12.609,0
0.126,4.735,0
0.127,2.355,0
0.128,0.157,0
0.129,-9.913,0
0.13,-22.731,0
0.131,-34.266,0
0.132,-41.774,0
0.133,-45.802,0
0.134,-49.281,0
0.135,-50.38,0
0.136,-59.535,0
0.137,-63.014,0
0.138,-57.338,0
0.139,-60.267,0
0.14,-53.859,0
0.141,-57.887,0
0.142,-57.155,0
0.143,-56.605,0
0.144,-56.056,0
0.145,-55.507,0
0.146,-52.211,0
0.147,-55.323,0
0.148,-49.83,0
0.149,-47.633,0
0.15,-44.337,0
0.151,-44.886,0
0.152,-37.562,0
0.153,-33.534,0
0.154,-30.604,0
0.155,-16.688,0
0.156,-10.646,0
0.157,-8.815,0
0.158,-13.759,0
0.159,-12.294,0
0.16,-13.575,0
0.161,-10.096,0
0.162,-11.195,0
0.163,-4.237,0
0.164,-1.49,0
0.165,-0.758,0
0.166,1.439,0
0.167,-0.392,0
0.168,1.439,0
0.169,4.186,0
0.17,5.468,0
0.171,7.665,0
0.172,3.087,0
0.173,-0.026,0
0.174,3.82,0
0.175,9.313,0
0.176,8.58,0
0.177,9.13,0
0.178,7.299,0
0.179,11.144,0
0.18,8.763,0
0.181,8.397,0
0.182,8.763,0
0.183,9.13,0
0.184,8.031,0
0.185,8.214,0
0.186,4.003,0
0.187,7.115,0
0.188,5.468,0
0.189,4.186,0
0.19,6.383,0
0.191,5.284,0
0.192,7.848,0
0.193,3.82,0
0.194,4.186,0
0.195,2.904,0
0.196,4.003,0
0.197,7.482,0
0.198,5.284,0
0.199,4.186,0
0.2,2.355,0
0.201,4.186,0
0.202,4.003,0
0.203,2.172,0
0.204,3.087,0
0.205,3.27,0
0.206,6.749,0
0.207,9.13,0
0.208,7.848,0
0.209,14.073,0
0.21,16.82,0
0.211,11.144,0
0.212,4.186,0
0.213,3.27,0
0.214,0.89,0
0.215,-1.307,0
0.216,-3.138,0
0.217,-2.589,0
0.218,-0.941,0
0.219,-1.307,0
0.22,-1.674,0
0.221,2.172,0
0.222,-2.406,0
0.223,0.707,0
0.224,-2.04,0
0.225,-1.674,0
0.226,-2.955,0
0.227,-3.322,0
0.228,-0.758,0
0.229,1.805,0
0.23,0.341,0
0.231,2.172,0
0.232,0.89,0
0.233,3.087,0
0.234,3.82,0
0.235,2.538,0
0.236,-0.941,0
0.237,-2.223,0
0.238,-0.941,0
0.239,0.157,0
0.24,1.989,0
0.241,-3.505,0
0.242,0.341,0
0.243,-1.49,0
0.244,0.341,0
0.245,-0.209,0
0.246,3.087,0
0.247,0.89,0
0.248,1.989,0
0.249,-2.955,0
0.25,-1.124,0
0.251,0.707,0
0.252,-0.941,0
0.253,-2.223,0
0.254,-0.941,0
0.255,-2.04,0
0.256,-1.674,0
0.257,4.003,0
0.258,4.735,0
0.259,-6.801,0
0.26,8.214,0
0.261,6.2,0
0.262,-6.617,0
0.263,-1.674,0
0.264,-3.138,0
0.265,-1.857,0
0.266,-2.955,0
0.267,0.341,0
0.268,-0.575,0
0.269,-3.322,0
0.27,-2.589,0
0.271,-3.322,0
0.272,-3.871,0
0.273,-2.04,0
0.274,-3.688,0
0.275,-0.392,0
0.276,-2.589,0
0.277,0.157,0
0.278,2.721,0
0.279,0.157,0
0.28,-0.575,0
0.281,3.087,0
0.282,0.707,0
0.283,1.073,0
0.284,1.439,0
0.285,1.073,0
0.286,-0.026,0
0.287,-1.49,0
0.288,-4.054,0
0.289,-0.026,0
0.29,-0.392,0
0.291,-2.589,0
0.292,-3.688,0
0.293,-2.589,0
0.294,-3.688,0
0.295,-5.153,0
0.296,-4.42,0
0.297,-4.237,0
0.298,-1.124,0
0.299,-3.138,0
0.3,0.341,0
0.301,-3.871,0
0.302,1.256,0
0.303,-0.575,0
0.304,-1.124,0
0.305,-1.674,0
0.306,-2.772,0
0.307,-1.49,0
0.308,5.468,0
0.309,2.538,0
0.31,8.947,0
0.311,-3.505,0
0.312,-12.66,0
0.313,-4.42,0
0.314,-2.955,0
0.315,-1.674,0
0.316,-2.772,0
0.317,-3.871,0
0.318,-0.941,0
0.319,-0.026,0
0.32,-2.406,0
0.321,-3.138,0
0.322,-2.589,0
0.323,-0.758,0
0.324,-0.209,0
0.325,7.299,0
0.326,1.622,0
0.327,-5.336,0
0.328,-0.758,0
0.329,-0.026,0
0.33,0.707,0
0.331,-2.589,0
0.332,-0.758,0
0.333,-0.209,0
0.334,-1.49,0
0.335,-0.209,0
0.336,-2.955,0
0.337,1.256,0
0.338,-0.392,0
0.339,-0.758,0
0.34,-0.392,0
0.341,2.355,0
0.342,-0.209,0
0.343,-2.04,0
0.344,0.707,0
0.345,-0.392,0
0.346,-0.026,0
0.347,0.707,0
0.348,0.89,0
0.349,2.172,0
0.35,2.355,0
0.351,-0.941,0
0.352,-3.138,0
0.353,-2.772,0
0.354,-0.941,0
0.355,-0.575,0
0.356,1.439,0
0.357,-2.04,0
0.358,1.073,0
0.359,7.299,0
0.36,2.721,0
0.361,11.876,0
0.362,8.397,0
0.363,-6.434,0
0.364,-0.392,0
0.365,1.439,0
0.366,3.087,0
0.367,4.552,0
0.368,5.834,0
0.369,2.355,0
0.37,-0.941,0
0.371,-3.871,0
0.372,-4.786,0
0.373,-0.758,0
0.374,-0.026,0
0.375,0.524,0
0.376,-0.026,0
0.377,-1.674,0
0.378,-0.392,0
0.379,-0.026,0
0.38,-3.871,0
0.381,-2.589,0
0.382,-2.223,0
0.383,-1.124,0
0.384,-0.026,0
0.385,0.341,0
0.386,1.073,0
0.387,-0.758,0
0.388,-0.026,0
0.389,1.073,0
0.39,-0.392,0
0.391,0.89,0
0.392,-0.026,0
0.393,1.439,0
0.394,-0.758,0
0.395,-0.026,0
0.396,2.355,0
0.397,2.538,0
0.398,1.805,0
0.399,-0.026,0
0.4,1.073,0
0.401,-0.392,0
0.402,0.157,0
0.403,-1.49,0
0.404,0.89,0
0.405,-1.124,0
0.406,2.538,0
0.407,0.157,0
0.408,-0.575,0
0.409,1.622,0
0.41,7.115,0
0.411,6.383,0
0.412,-2.589,0
0.413,13.524,0
0.414,6.932,0
0.415,-3.138,0
0.416,-1.307,0
0.417,-2.955,0
0.418,-1.49,0
0.419,-2.772,0
0.42,-1.674,0
0.421,-0.575,0
0.422,-3.505,0
0.423,1.073,0
0.424,-1.307,0
0.425,-2.04,0
0.426,-1.49,0
0.427,-0.941,0
0.428,-2.589,0
0.429,-0.209,0
0.43,-2.406,0
0.431,0.341,0
0.432,-1.49,0
0.433,0.341,0
0.434,-1.674,0
0.435,-0.392,0
0.436,-4.42,0
0.437,-4.969,0
0.438,0.524,0
0.439,-1.674,0
0.44,-1.124,0
0.441,-0.575,0
0.442,-2.223,0
0.443,-1.857,0
0.444,-3.138,0
0.445,-1.124,0
0.446,-2.955,0
0.447,-2.589,0
0.448,-0.575,0
0.449,-1.307,0
0.45,1.073,0
0.451,0.89,0
0.452,1.073,0
0.453,-2.955,0
0.454,-1.307,0
0.455,-2.589,0
0.456,-3.871,0
0.457,-2.772,0
0.458,-0.941,0
0.459,-0.575,0
0.46,-1.674,0
0.461,2.904,0
0.462,-3.322,0
0.463,9.13,0
0.464,3.636,0
0.465,-1.307,0
0.466,0.157,0
0.467,-1.124,0
0.468,-2.223,0
0.469,-1.124,0
0.47,-4.054,0
0.471,-4.969,0
0.472,-0.941,0
0.473,-3.138,0
0.474,-3.688,0
0.475,-0.575,0
0.476,-4.42,0
0.477,-3.138,0
0.478,-3.505,0
0.479,-6.251,0
0.48,-3.688,0
0.481,-1.124,0
0.482,-0.392,0
0.483,-1.124,0
0.484,-1.307,0
0.485,-1.857,0
0.486,-1.307,0
0.487,-1.124,0
0.488,0.89,0
0.489,-0.392,0
0.49,-1.857,0
0.491,1.439,0
0.492,0.157,0
0.493,1.256,0
0.494,-3.688,0
0.495,0.89,0
0.496,1.439,0
0.497,-0.209,0
0.498,-2.589,0
0.499,-2.955,0
0.5,-4.969,0
0.501,-2.406,0
0.502,-2.772,0
0.503,-3.505,0
0.504,0.707,0
0.505,0.157,0
0.506,-1.49,0
0.507,-0.209,0
0.508,-1.49,0
0.509,-2.589,0
0.51,-0.575,0
0.511,0.524,0
0.512,6.017,0
0.513,16.088,0
0.514,12.059,0
0.515,3.636,0
0.516,0.341,0
0.517,1.256,0
0.518,-5.153,0
0.519,-5.885,0
0.52,-2.04,0
0.521,-1.49,0
0.522,-2.04,0
0.523,-2.589,0
0.524,-0.209,0
0.525,0.157,0
0.526,-0.941,0
0.527,-2.04,0
0.528,0.524,0
0.529,-0.209,0
0.53,-0.392,0
0.531,2.538,0
0.532,-0.026,0
0.533,-2.589,0
0.534,-4.054,0
0.535,-3.322,0
0.536,-2.589,0
0.537,-2.04,0
0.538,-1.49,0
0.539,-2.772,0
0.54,-1.857,0
0.541,0.157,0
0.542,3.453,0
0.543,1.439,0
0.544,-2.04,0
0.545,-0.758,0
0.546,-1.124,0
0.547,0.707,0
0.548,0.341,0
0.549,0.157,0
0.55,-4.054,0
0.551,-2.223,0
0.552,0.524,0
0.553,1.805,0
0.554,1.439,0
0.555,1.805,0
0.556,-0.026,0
0.557,-2.589,0
0.558,-1.857,0
0.559,-1.124,0
0.56,0.707,0
0.561,0.157,0
0.562,1.622,0
0.563,2.172,0
0.564,5.101,0
0.565,7.848,0
0.566,3.636,0
0.567,-1.49,0
0.568,0.341,0
0.569,-1.49,0
0.57,-2.04,0
0.571,5.468,0
0.572,2.172,0
0.573,-0.758,0
0.574,-3.505,0
0.575,-1.124,0
0.576,-1.857,0
0.577,-0.026,0
0.578,0.524,0
0.579,-0.026,0
0.58,-4.603,0
0.581,-1.49,0
0.582,-0.941,0
0.583,0.341,0
0.584,-3.871,0
0.585,1.256,0
0.586,-3.322,0
0.587,1.073,0
0.588,-0.575,0
0.589,0.707,0
0.59,1.073,0
0.591,2.172,0
0.592,-0.392,0
0.593,2.172,0
0.594,-0.575,0
0.595,0.524,0
0.596,0.157,0
0.597,-1.307,0
0.598,-3.138,0
0.599,-1.307,0
0.6,-3.505,0
0.601,-0.392,0
0.602,-1.49,0
0.603,-1.857,0
0.604,-4.42,0
0.605,-2.406,0
0.606,-1.124,0
0.607,0.707,0
0.608,-0.758,0
0.609,0.341,0
0.61,-2.223,0
0.611,-4.054,0
0.612,0.89,0
0.613,1.073,0
0.614,5.284,0
0.615,7.115,0
0.616,-1.307,0
0.617,14.806,0
0.618,8.214,0
0.619,-1.857,0
0.62,-3.688,0
0.621,-2.04,0
0.622,-6.434,0
0.623,-2.406,0
0.624,-1.307,0
0.625,-4.603,0
0.626,-3.688,0
0.627,-4.603,0
0.628,-0.575,0
0.629,-1.307,0
0.63,-3.138,0
0.631,-3.688,0
0.632,1.439,0
0.633,-1.857,0
0.634,-1.307,0
0.635,0.341,0
0.636,-0.026,0
0.637,-0.392,0
0.638,0.707,0
0.639,-1.124,0
0.64,-1.49,0
0.641,1.805,0
0.642,-1.307,0
0.643,-0.209,0
0.644,-0.575,0
0.645,-1.674,0
0.646,0.341,0
0.647,2.172,0
0.648,-0.758,0
0.649,0.341,0
0.65,-0.026,0
0.651,-1.49,0
0.652,-3.322,0
0.653,0.157,0
0.654,0.524,0
0.655,-1.49,0
0.656,1.073,0
0.657,-2.223,0
0.658,-1.124,0
0.659,2.355,0
0.66,-0.758,0
0.661,1.256,0
0.662,1.622,0
0.663,-0.575,0
0.664,1.256,0
0.665,5.834,0
0.666,5.284,0
0.667,10.961,0
0.668,7.115,0
0.669,-3.138,0
0.67,-1.674,0
0.671,-2.955,0
0.672,-1.857,0
0.673,-0.758,0
0.674,-3.688,0
0.675,-0.941,0
0.676,-0.209,0
0.677,-4.054,0
0.678,-4.603,0
0.679,3.636,0
0.68,2.538,0
0.681,1.622,0
0.682,-1.124,0
0.683,-0.392,0
0.684,-4.237,0
0.685,-2.406,0
0.686,-0.575,0
0.687,-3.322,0
0.688,1.256,0
0.689,-3.138,0
0.69,-0.392,0
0.691,-2.772,0
0.692,-3.138,0
0.693,-3.505,0
0.694,-1.674,0
0.695,0.157,0
0.696,0.89,0
0.697,1.073,0
0.698,0.341,0
0.699,1.805,0
0.7,-1.49,0
0.701,-1.857,0
0.702,-2.223,0
0.703,-2.589,0
0.704,-0.026,0
0.705,1.439,0
0.706,2.172,0
0.707,0.341,0
0.708,-0.758,0
0.709,0.707,0
0.71,-2.223,0
0.711,2.355,0
0.712,4.186,0
0.713,0.341,0
0.714,0.157,0
0.715,-1.124,0
0.716,5.834,0
0.717,2.904,0
0.718,13.158,0
0.719,3.636,0
0.72,4.735,0
0.721,-5.519,0
0.722,-4.237,0
0.723,-0.758,0
0.724,0.341,0
0.725,-2.589,0
0.726,-1.674,0
0.727,-0.941,0
0.728,1.256,0
0.729,-0.575,0
0.73,-0.026,0
0.731,-3.871,0
0.732,-2.589,0
0.733,-5.702,0
0.734,-1.857,0
0.735,-1.49,0
0.736,-4.603,0
0.737,-4.237,0
0.738,-5.336,0
0.739,-2.04,0
0.74,-3.138,0
0.741,-1.307,0
0.742,0.524,0
0.743,0.341,0
0.744,1.622,0
0.745,-0.758,0
0.746,0.707,0
0.747,-1.124,0
0.748,-4.054,0
0.749,0.157,0
0.75,4.003,0
0.751,-0.575,0
0.752,-0.026,0
0.753,0.524,0
0.754,0.89,0
0.755,-0.392,0
0.756,1.622,0
0.757,3.453,0
0.758,-0.575,0
0.759,-0.209,0
0.76,-0.575,0
0.761,-0.209,0
0.762,3.27,0
0.763,-0.941,0
0.764,-2.589,0
0.765,-1.307,0
0.766,-1.674,0
0.767,5.284,0
0.768,4.369,0
0.769,8.947,0
0.77,12.975,0
0.771,2.904,0
0.772,-1.124,0
0.773,-4.603,0
0.774,-3.505,0
0.775,-2.589,0
0.776,0.157,0
0.777,2.538,0
0.778,-1.307,0
0.779,-3.138,0
0.78,-1.307,0
0.781,-1.857,0
0.782,-2.223,0
0.783,-3.505,0
0.784,2.721,0
0.785,-0.026,0
0.786,2.355,0
0.787,0.157,0
0.788,-0.392,0
0.789,-0.941,0
0.79,-2.589,0
0.791,-2.223,0
0.792,-1.857,0
0.793,-2.223,0
0.794,1.256,0
0.795,-2.955,0
0.796,-2.406,0
0.797,-3.688,0
0.798,-4.969,0
0.799,-6.068,0
0.8,-1.857,0
0.801,1.989,0
0.802,-0.392,0
0.803,3.82,0
0.804,6.566,0
0.805,5.284,0
0.806,4.918,0
0.807,4.552,0
0.808,-1.124,0
0.809,-3.505,0
0.81,-1.307,0
0.811,0.524,0
0.812,1.073,0
0.813,-0.575,0
0.814,2.721,0
0.815,1.439,0
0.816,-0.575,0
0.817,5.651,0
0.818,6.566,0
0.819,-4.237,0
0.82,-2.772,0
0.821,1.256,0
0.822,4.735,0
0.823,12.609,0
0.824,15.538,0
0.825,1.622,0
0.826,3.636,0
0.827,1.805,0
0.828,3.453,0
0.829,-0.941,0
0.83,0.341,0
0.831,-3.138,0
0.832,0.157,0
0.833,1.073,0
0.834,-7.35,0
0.835,-6.251,0
0.836,-13.209,0
0.837,-6.801,0
0.838,-6.068,0
0.839,-2.223,0
0.84,-6.801,0
0.841,-2.406,0
0.842,1.439,0
0.843,-0.941,0
0.844,-3.138,0
0.845,2.355,0
0.846,-1.49,0
0.847,-3.322,0
0.848,-5.153,0
0.849,-3.505,0
0.85,-3.138,0
0.851,-4.42,0
0.852,-4.786,0
0.853,-2.223,0
0.854,-1.857,0
0.855,0.89,0
0.856,-0.941,0
0.857,3.087,0
0.858,0.707,0
0.859,2.904,0
0.86,-1.674,0
0.861,1.439,0
0.862,-0.209,0
0.863,5.284,0
0.864,3.087,0
0.865,1.256,0
0.866,-5.702,0
0.867,-0.575,0
0.868,0.341,0
0.869,6.017,0
0.87,0.707,0
0.871,9.679,0
0.872,6.2,0
0.873,-4.054,0
0.874,2.721,0
0.875,1.622,0
0.876,2.721,0
0.877,-0.209,0
0.878,-2.955,0
0.879,-0.575,0
0.88,1.622,0
0.881,2.172,0
0.882,-0.941,0
0.883,-1.49,0
0.884,-2.772,0
0.885,-5.885,0
0.886,-3.138,0
0.887,-1.307,0
0.888,-2.406,0
0.889,-2.589,0
0.89,1.073,0
0.891,-0.209,0
0.892,-0.575,0
0.893,-1.674,0
0.894,0.89,0
0.895,1.256,0
0.896,-2.04,0
0.897,-0.758,0
0.898,-0.392,0
0.899,-0.758,0
0.9,-2.589,0
0.901,-0.575,0
0.902,-4.237,0
0.903,-2.955,0
0.904,-1.674,0
0.905,-2.04,0
0.906,-0.209,0
0.907,0.157,0
0.908,-0.575,0
0.909,0.707,0
0.91,1.439,0
0.911,1.622,0
0.912,-1.307,0
0.913,2.904,0
0.914,-3.322,0
0.915,2.355,0
0.916,3.087,0
0.917,-1.49,0
0.918,-0.575,0
0.919,1.256,0
0.92,9.679,0
0.921,8.58,0
0.922,25.609,0
0.923,23.229,0
0.924,21.031,0
0.925,19.017,0
0.926,20.848,0
0.927,19.2,0
0.928,23.595,0
0.929,16.82,0
0.93,15.721,0
0.931,10.045,0
0.932,9.13,0
0.933,4.552,0
0.934,-4.603,0
0.935,-20.717,0
0.936,-27.308,0
0.937,-29.323,0
0.938,-38.478,0
0.939,-43.422,0
0.94,-35.914,0
0.941,-26.393,0
0.942,-12.843,0
0.943,-11.012,0
0.944,-26.027,0
0.945,-40.126,0
0.946,-52.943,0
0.947,-77.845,0
0.948,-95.607,0
0.949,-118.13,0
0.95,-144.86,0
0.951,-141.38,0
0.952,-157.5,0
0.953,-154.57,0
0.954,-125.09,0
0.955,-105.49,0
0.956,-87.733,0
0.957,-45.436,0
0.958,29.637,0
0.959,122.11,0
0.96,159.46,0
0.961,170.63,0
0.962,160.38,0
0.963,151.04,0
0.964,125.77,0
0.965,118.08,0
0.966,111.12,0
0.967,117.34,0
0.968,100.13,0
0.969,109.29,0
0.97,114.42,0
0.971,138.22,0
0.972,125.4,0
0.973,105.81,0
0.974,73.583,0
0.975,60.765,0
0.976,64.611,0
0.977,75.231,0
0.978,65.709,0
0.979,50.878,0
0.98,26.708,0
0.981,10.594,0
0.982,7.665,0
0.983,5.101,0
0.984,2.721,0
0.985,-3.871,0
0.986,-9.913,0
0.987,-22.731,0
0.988,-27.675,0
0.989,-41.224,0
0.99,-46.718,0
0.991,-41.774,0
0.992,-52.211,0
0.993,-58.986,0
0.994,-55.507,0
0.995,-54.408,0
0.996,-51.478,0
0.997,-57.887,0
0.998,-53.859,0
0.999,-54.591,0
1,-57.887,0
1.001,-56.056,0
1.002,-61.183,0
1.003,-65.76,0
1.004,-56.239,0
1.005,-52.211,0
1.006,-46.168,0
1.007,-45.07,0
1.008,-44.154,0
1.009,-35.731,0
1.01,-32.435,0
1.011,-29.506,0
1.012,-26.759,0
1.013,-21.083,0
1.014,-18.885,0
1.015,-15.59,0
1.016,-16.139,0
1.017,-11.012,0
1.018,-10.463,0
1.019,-7.35,0
1.02,-8.632,0
1.021,-2.406,0
1.022,10.045,0
1.023,8.214,0
1.024,-3.322,0
1.025,16.271,0
1.026,8.397,0
1.027,1.256,0
1.028,7.848,0
1.029,1.805,0
1.03,7.299,0
1.031,8.947,0
1.032,7.482,0
1.033,3.453,0
1.034,4.552,0
1.035,3.453,0
1.036,6.383,0
1.037,7.299,0
1.038,8.031,0
1.039,8.763,0
1.04,6.932,0
1.041,6.383,0
1.042,10.228,0
1.043,6.932,0
1.044,10.045,0
1.045,4.552,0
1.046,9.862,0
1.047,6.566,0
1.048,8.397,0
1.049,5.651,0
1.05,2.355,0
1.051,5.468,0
1.052,3.453,0
1.053,1.622,0
1.054,4.186,0
1.055,3.453,0
1.056,6.566,0
1.057,1.073,0
1.058,3.27,0
1.059,1.439,0
1.06,8.397,0
1.061,7.482,0
1.062,6.749,0
1.063,12.059,0
1.064,1.805,0
1.065,-2.589,0
1.066,1.439,0
1.067,4.918,0
1.068,3.82,0
1.069,0.89,0
1.07,1.805,0
1.071,1.622,0
1.072,0.89,0
1.073,7.848,0
1.074,10.594,0
1.075,12.975,0
1.076,1.439,0
1.077,-6.801,0
1.078,0.707,0
1.079,-0.575,0
1.08,2.904,0
1.081,-2.772,0
1.082,-1.857,0
1.083,0.89,0
1.084,-4.786,0
1.085,-5.519,0
1.086,-3.688,0
1.087,-4.237,0
1.088,-0.392,0
1.089,-0.026,0
1.09,-2.223,0
1.091,-1.857,0
1.092,3.82,0
1.093,-1.857,0
1.094,5.101,0
1.095,0.524,0
1.096,-0.209,0
1.097,0.524,0
1.098,2.355,0
1.099,-0.758,0
1.1,-0.209,0
1.101,-0.575,0
1.102,-0.209,0
1.103,-2.955,0
1.104,1.989,0
1.105,0.157,0
1.106,-0.392,0
1.107,-3.138,0
1.108,-1.857,0
1.109,-2.223,0
1.11,2.355,0
1.111,0.524,0
1.112,2.172,0
1.113,1.805,0
1.114,0.524,0
1.115,-0.575,0
1.116,-3.138,0
1.117,-4.237,0
1.118,-4.054,0
1.119,-2.772,0
1.12,-4.054,0
1.121,-2.589,0
1.122,-0.575,0
1.123,-0.392,0
1.124,2.538,0
1.125,6.383,0
1.126,6.749,0
1.127,3.636,0
1.128,9.862,0
1.129,10.778,0
1.13,-1.674,0
1.131,0.157,0
1.132,-1.49,0
1.133,-5.885,0
1.134,-7.167,0
1.135,-6.068,0
1.136,-2.772,0
1.137,-1.857,0
1.138,-4.603,0
1.139,-8.632,0
1.14,-3.322,0
1.141,-1.49,0
1.142,-3.322,0
1.143,-1.674,0
1.144,2.904,0
1.145,-0.209,0
1.146,1.439,0
1.147,1.073,0
1.148,3.27,0
1.149,-2.955,0
1.15,1.622,0
1.151,-4.054,0
1.152,-6.251,0
1.153,2.721,0
1.154,1.622,0
1.155,-1.674,0
1.156,3.27,0
1.157,-1.307,0
1.158,-3.688,0
1.159,0.157,0
1.16,0.707,0
1.161,2.538,0
1.162,1.989,0
1.163,3.27,0
1.164,1.073,0
1.165,1.439,0
1.166,-4.237,0
1.167,-4.969,0
1.168,-4.237,0
1.169,-0.941,0
1.17,-2.772,0
1.171,-2.223,0
1.172,-3.505,0
1.173,-0.575,0
1.174,0.707,0
1.175,6.932,0
1.176,2.355,0
1.177,11.51,0
1.178,12.609,0
1.179,6.932,0
1.18,-2.223,0
1.181,-1.124,0
1.182,-4.42,0
1.183,0.524,0
1.184,-4.054,0
1.185,-6.434,0
1.186,-5.702,0
1.187,-3.871,0
1.188,-3.322,0
1.189,-1.674,0
1.19,-0.392,0
1.191,-3.505,0
1.192,-1.49,0
1.193,-1.857,0
1.194,0.707,0
1.195,-2.04,0
1.196,2.172,0
1.197,4.918,0
1.198,-1.674,0
1.199,-0.758,0
1.2,1.622,0
1.201,-0.575,0
1.202,1.256,0
1.203,-1.857,0
1.204,0.89,0
1.205,1.256,0
1.206,0.89,0
1.207,-0.209,0
1.208,0.89,0
1.209,1.256,0
1.21,4.552,0
1.211,5.834,0
1.212,3.82,0
1.213,-1.124,0
1.214,0.707,0
1.215,2.538,0
1.216,-2.589,0
1.217,-5.885,0
1.218,-5.336,0
1.219,-1.49,0
1.22,-1.857,0
1.221,1.256,0
1.222,-2.589,0
1.223,-0.209,0
1.224,0.89,0
1.225,-2.223,0
1.226,4.003,0
1.227,10.411,0
1.228,8.031,0
1.229,8.763,0
1.23,9.313,0
1.231,3.636,0
1.232,12.059,0
1.233,8.763,0
1.234,-4.42,0
1.235,-2.589,0
1.236,-4.237,0
1.237,-5.702,0
1.238,-1.674,0
1.239,-2.772,0
1.24,-6.068,0
1.241,-5.153,0
1.242,-0.575,0
1.243,-4.603,0
1.244,3.82,0
1.245,0.524,0
1.246,1.439,0
1.247,4.186,0
1.248,1.805,0
1.249,2.538,0
1.25,1.989,0
1.251,1.439,0
1.252,-2.406,0
1.253,-3.688,0
1.254,-4.054,0
1.255,-2.04,0
1.256,-0.209,0
1.257,-0.575,0
1.258,1.439,0
1.259,-0.392,0
1.26,2.538,0
1.261,5.101,0
1.262,0.341,0
1.263,2.172,0
1.264,3.82,0
1.265,0.524,0
1.266,1.805,0
1.267,0.707,0
1.268,0.341,0
1.269,-3.688,0
1.27,0.89,0
1.271,-0.941,0
1.272,-1.49,0
1.273,-1.124,0
1.274,-1.49,0
1.275,0.89,0
1.276,-1.124,0
1.277,4.552,0
1.278,15.355,0
1.279,16.82,0
1.28,7.299,0
1.281,1.256,0
1.282,-2.04,0
1.283,-4.969,0
1.284,-2.223,0
1.285,-11.378,0
1.286,-10.28,0
1.287,2.172,0
1.288,3.82,0
1.289,-0.575,0
1.29,-4.603,0
1.291,-1.124,0
1.292,-0.026,0
1.293,-2.955,0
1.294,1.622,0
1.295,0.89,0
1.296,3.087,0
1.297,-4.42,0
1.298,-1.49,0
1.299,-2.406,0
1.3,-1.674,0
1.301,-5.519,0
1.302,-3.688,0
1.303,-3.138,0
1.304,-1.49,0
1.305,-3.871,0
1.306,-0.758,0
1.307,-2.772,0
1.308,-0.941,0
1.309,4.552,0
1.31,-2.406,0
1.311,0.341,0
1.312,-2.04,0
1.313,-2.772,0
1.314,0.524,0
1.315,-3.871,0
1.316,-1.124,0
1.317,-4.42,0
1.318,-4.786,0
1.319,0.707,0
1.32,-0.026,0
1.321,-3.322,0
1.322,-1.49,0
1.323,-2.04,0
1.324,3.453,0
1.325,-0.392,0
1.326,1.622,0
1.327,3.453,0
1.328,12.975,0
1.329,14.257,0
1.33,3.087,0
1.331,7.482,0
1.332,-7.533,0
1.333,10.594,0
1.334,-1.49,0
1.335,-3.688,0
1.336,-5.702,0
1.337,-3.871,0
1.338,-5.519,0
1.339,-6.984,0
1.34,-2.955,0
1.341,-1.857,0
1.342,-0.758,0
1.343,-1.674,0
1.344,-2.589,0
1.345,1.439,0
1.346,-0.758,0
1.347,-2.589,0
1.348,0.524,0
1.349,-1.124,0
1.35,-6.617,0
1.351,-7.35,0
1.352,-2.772,0
1.353,-2.223,0
1.354,-1.674,0
1.355,-2.955,0
1.356,1.256,0
1.357,-3.871,0
1.358,0.707,0
1.359,1.256,0
1.36,2.904,0
1.361,6.2,0
1.362,1.989,0
1.363,4.735,0
1.364,0.157,0
1.365,0.707,0
1.366,0.157,0
1.367,-3.138,0
1.368,-1.857,0
1.369,-6.434,0
1.37,-3.322,0
1.371,-1.674,0
1.372,-0.392,0
1.373,-1.674,0
1.374,-1.307,0
1.375,1.256,0
1.376,1.622,0
1.377,-2.04,0
1.378,-1.307,0
1.379,2.904,0
1.38,3.453,0
1.381,7.299,0
1.382,10.594,0
1.383,3.636,0
1.384,-5.519,0
1.385,0.524,0
1.386,-2.772,0
1.387,-3.688,0
1.388,-4.603,0
1.389,-6.984,0
1.39,-0.026,0
1.391,-0.941,0
1.392,-0.209,0
1.393,3.636,0
1.394,4.186,0
1.395,3.636,0
1.396,-1.49,0
1.397,1.805,0
1.398,3.636,0
1.399,-0.209,0
1.4,-3.505,0
1.401,-3.871,0
1.402,-3.505,0
1.403,-8.448,0
1.404,-3.871,0
1.405,-2.04,0
1.406,-4.786,0
1.407,-1.49,0
1.408,-0.209,0
1.409,0.89,0
1.41,-0.941,0
1.411,0.89,0
1.412,2.355,0
1.413,1.073,0
1.414,0.89,0
1.415,-2.223,0
1.416,0.524,0
1.417,4.003,0
1.418,-2.955,0
1.419,-0.026,0
1.42,-0.941,0
1.421,-3.322,0
1.422,-1.124,0
1.423,-1.674,0
1.424,4.003,0
1.425,-1.307,0
1.426,0.524,0
1.427,1.073,0
1.428,3.087,0
1.429,1.439,0
1.43,8.947,0
1.431,25.975,0
1.432,9.13,0
1.433,2.538,0
1.434,-3.505,0
1.435,-1.674,0
1.436,-6.617,0
1.437,-2.223,0
1.438,-3.505,0
1.439,-4.603,0
1.44,1.073,0
1.441,0.157,0
1.442,-2.589,0
1.443,1.439,0
1.444,0.707,0
1.445,1.256,0
1.446,1.805,0
1.447,0.157,0
1.448,-1.124,0
1.449,-1.49,0
1.45,-6.068,0
1.451,-4.237,0
1.452,-3.688,0
1.453,-4.054,0
1.454,-0.941,0
1.455,-3.688,0
1.456,-1.124,0
1.457,-2.223,0
1.458,2.355,0
1.459,0.524,0
1.46,2.355,0
1.461,4.003,0
1.462,5.284,0
1.463,1.073,0
1.464,-1.674,0
1.465,1.622,0
1.466,1.256,0
1.467,-1.49,0
1.468,-4.969,0
1.469,-4.603,0
1.47,-0.026,0
1.471,-3.138,0
1.472,-1.49,0
1.473,-0.209,0
1.474,1.989,0
1.475,-1.857,0
1.476,2.721,0
1.477,2.172,0
1.478,1.622,0
1.479,2.355,0
1.48,2.721,0
1.481,9.679,0
1.482,-1.49,0
1.483,2.904,0
1.484,12.426,0
1.485,-6.068,0
1.486,-13.942,0
1.487,-6.801,0
1.488,-4.603,0
1.489,-2.589,0
1.49,-4.42,0
1.491,-2.772,0
1.492,-1.307,0
1.493,-2.589,0
1.494,-6.068,0
1.495,-2.772,0
1.496,2.172,0
1.497,-0.575,0
1.498,1.805,0
1.499,1.073,0
1.5,-3.505,0
1.501,-4.054,0
1.502,-2.406,0
1.503,-0.026,0
1.504,-2.223,0
1.505,0.524,0
1.506,2.355,0
1.507,-3.138,0
1.508,-3.871,0
1.509,-0.575,0
1.51,2.538,0
1.511,-0.209,0
1.512,1.073,0
1.513,2.355,0
1.514,2.721,0
1.515,-0.758,0
1.516,-0.392,0
1.517,2.355,0
1.518,-1.124,0
1.519,-2.406,0
1.52,-5.153,0
1.521,-4.786,0
1.522,0.707,0
1.523,-3.138,0
1.524,-1.307,0
1.525,0.524,0
1.526,-1.124,0
1.527,0.157,0
1.528,3.27,0
1.529,0.524,0
1.53,-1.307,0
1.531,-0.941,0
1.532,4.552,0
1.533,6.749,0
1.534,7.299,0
1.535,4.186,0
1.536,0.341,0
1.537,-5.153,0
1.538,-5.885,0
1.539,-2.589,0
1.54,-3.138,0
1.541,-1.49,0
1.542,-6.068,0
1.543,-6.617,0
1.544,0.707,0
1.545,5.651,0
1.546,-0.758,0
1.547,3.27,0
1.548,-0.575,0
1.549,1.256,0
1.55,-1.857,0
1.551,-1.307,0
1.552,-2.589,0
1.553,-3.871,0
1.554,2.355,0
1.555,-0.392,0
1.556,-2.772,0
1.557,-2.04,0
1.558,1.256,0
1.559,0.707,0
1.56,-0.941,0
1.561,2.355,0
1.562,1.989,0
1.563,0.89,0
1.564,-0.209,0
1.565,-2.04,0
1.566,-0.026,0
1.567,-4.237,0
1.568,-3.688,0
1.569,-7.533,0
1.57,-4.237,0
1.571,-2.955,0
1.572,-0.209,0
1.573,-2.04,0
1.574,3.453,0
1.575,-0.392,0
1.576,2.904,0
1.577,1.073,0
1.578,-1.674,0
1.579,2.904,0
1.58,1.073,0
1.581,-0.575,0
1.582,-0.026,0
1.583,7.482,0
1.584,1.805,0
1.585,8.763,0
1.586,6.017,0
1.587,-6.434,0
1.588,-8.265,0
1.589,-3.322,0
1.59,-4.786,0
1.591,-3.505,0
1.592,-2.406,0
1.593,-1.307,0
1.594,1.622,0
1.595,2.538,0
1.596,0.157,0
1.597,-2.04,0
1.598,1.256,0
1.599,-0.575,0
1.6,-2.223,0
1.601,-1.857,0
1.602,-3.138,0
1.603,-1.124,0
1.604,-0.758,0
1.605,-0.392,0
1.606,-1.857,0
1.607,0.707,0
1.608,3.27,0
1.609,-0.758,0
1.61,4.369,0
1.611,3.82,0
1.612,1.989,0
1.613,1.439,0
1.614,4.735,0
1.615,2.538,0
1.616,2.172,0
1.617,0.341,0
1.618,-5.153,0
1.619,0.157,0
1.62,0.707,0
1.621,-1.124,0
1.622,-3.871,0
1.623,-3.505,0
1.624,-0.392,0
1.625,-5.885,0
1.626,-3.688,0
1.627,-1.857,0
1.628,-3.688,0
1.629,1.439,0
1.63,-1.857,0
1.631,-1.307,0
1.632,1.622,0
1.633,-1.124,0
1.634,6.383,0
1.635,0.707,0
1.636,1.622,0
1.637,6.2,0
1.638,3.82,0
1.639,9.13,0
1.64,9.679,0
1.641,1.439,0
1.642,-1.857,0
1.643,-2.772,0
1.644,-1.857,0
1.645,2.172,0
1.646,-0.026,0
1.647,1.805,0
1.648,-1.307,0
1.649,1.439,0
1.65,-5.153,0
1.651,-4.237,0
1.652,-3.505,0
1.653,-1.307,0
1.654,-0.758,0
1.655,-0.209,0
1.656,-4.054,0
1.657,-5.336,0
1.658,-0.209,0
1.659,-0.758,0
1.66,-2.589,0
1.661,0.157,0
1.662,0.524,0
1.663,0.89,0
1.664,-2.955,0
1.665,0.341,0
1.666,-2.772,0
1.667,-1.674,0
1.668,-3.505,0
1.669,-5.336,0
1.67,-0.758,0
1.671,-2.589,0
1.672,1.805,0
1.673,-0.941,0
1.674,0.341,0
1.675,3.453,0
1.676,-0.392,0
1.677,-0.026,0
1.678,1.256,0
1.679,0.89,0
1.68,1.989,0
1.681,-2.04,0
1.682,0.341,0
1.683,0.157,0
1.684,-1.124,0
1.685,-7.35,0
1.686,1.073,0
1.687,8.947,0
1.688,11.876,0
1.689,5.468,0
1.69,3.087,0
1.691,5.284,0
1.692,1.989,0
1.693,5.101,0
1.694,-0.026,0
1.695,0.524,0
1.696,-0.026,0
1.697,-1.674,0
1.698,-2.04,0
1.699,-0.758,0
1.7,-5.336,0
1.701,-0.941,0
1.702,-4.786,0
1.703,-2.406,0
1.704,-5.519,0
1.705,0.707,0
1.706,-0.209,0
1.707,0.524,0
1.708,4.369,0
1.709,1.073,0
1.71,6.749,0
1.711,10.594,0
1.712,6.017,0
1.713,4.186,0
1.714,0.341,0
1.715,-4.237,0
1.716,-3.688,0
1.717,-2.04,0
1.718,-2.406,0
1.719,-2.04,0
1.72,-4.786,0
1.721,-7.35,0
1.722,-3.322,0
1.723,-4.603,0
1.724,-2.406,0
1.725,-2.772,0
1.726,-1.674,0
1.727,-2.04,0
1.728,-0.026,0
1.729,-0.758,0
1.73,-0.026,0
1.731,-3.505,0
1.732,-0.209,0
1.733,-2.406,0
1.734,-2.772,0
1.735,-5.519,0
1.736,0.157,0
1.737,-0.575,0
1.738,10.961,0
1.739,6.017,0
1.74,-1.49,0
1.741,-0.209,0
1.742,-1.307,0
1.743,-0.209,0
1.744,-1.124,0
1.745,-0.209,0
1.746,3.82,0
1.747,6.017,0
1.748,4.186,0
1.749,1.073,0
1.75,-0.575,0
1.751,-2.955,0
1.752,-2.589,0
1.753,-5.336,0
1.754,-2.772,0
1.755,0.524,0
1.756,-1.49,0
1.757,-1.857,0
1.758,-0.758,0
1.759,-1.49,0
1.76,1.622,0
1.761,2.721,0
1.762,-0.758,0
1.763,3.453,0
1.764,1.805,0
1.765,0.524,0
1.766,-1.674,0
1.767,-2.04,0
1.768,-5.519,0
1.769,-5.153,0
1.77,-0.575,0
1.771,-2.406,0
1.772,-2.955,0
1.773,2.538,0
1.774,3.27,0
1.775,2.721,0
1.776,-0.392,0
1.777,-3.138,0
1.778,4.369,0
1.779,1.073,0
1.78,4.003,0
1.781,-2.406,0
1.782,1.622,0
1.783,-5.336,0
1.784,1.073,0
1.785,-2.04,0
1.786,-1.307,0
1.787,8.763,0
1.788,-8.998,0
1.789,7.848,0
1.79,5.651,0
1.791,-4.42,0
1.792,-2.589,0
1.793,5.651,0
1.794,4.186,0
1.795,2.904,0
1.796,1.805,0
1.797,0.707,0
1.798,-2.223,0
1.799,-1.307,0
1.8,6.2,0
1.801,3.27,0
1.802,-5.153,0
1.803,-4.054,0
1.804,0.89,0
1.805,-0.026,0
1.806,2.355,0
1.807,10.778,0
1.808,11.876,0
1.809,12.792,0
1.81,15.538,0
1.811,21.215,0
1.812,20.482,0
1.813,22.313,0
1.814,16.637,0
1.815,18.834,0
1.816,11.327,0
1.817,6.383,0
1.818,3.636,0
1.819,-7.167,0
1.82,-20.717,0
1.821,-18.885,0
1.822,-23.829,0
1.823,-28.224,0
1.824,-24.196,0
1.825,-20.717,0
1.826,-10.463,0
1.827,1.805,0
1.828,0.157,0
1.829,-13.392,0
1.83,-26.21,0
1.831,-44.52,0
1.832,-71.254,0
1.833,-96.156,0
1.834,-118.68,0
1.835,-133.51,0
1.836,-141.93,0
1.837,-144.5,0
1.838,-142.12,0
1.839,-113.37,0
1.84,-93.776,0
1.841,-83.156,0
1.842,-47.45,0
1.843,24.144,0
1.844,116.61,0
1.845,129.06,0
1.846,140.23,0
1.847,150.49,0
1.848,141.15,0
1.849,98.851,0
1.85,91.161,0
1.851,98.119,0
1.852,79.259,0
1.853,73.583,0
1.854,89.147,0
1.855,93.907,0
1.856,89.696,0
1.857,77.977,0
1.858,67.357,0
1.859,57.836,0
1.86,60.765,0
1.861,68.639,0
1.862,80.724,0
1.863,78.527,0
1.864,64.427,0
1.865,44.286,0
1.866,25.609,0
1.867,27.99,0
1.868,21.398,0
1.869,23.412,0
1.87,14.257,0
1.871,6.017,0
1.872,-4.42,0
1.873,-11.195,0
1.874,-22.365,0
1.875,-26.759,0
1.876,-30.787,0
1.877,-41.957,0
1.878,-46.351,0
1.879,-47.633,0
1.88,-51.112,0
1.881,-47.816,0
1.882,-52.76,0
1.883,-55.507,0
1.884,-56.239,0
1.885,-55.507,0
1.886,-58.802,0
1.887,-55.507,0
1.888,-58.619,0
1.889,-50.197,0
1.89,-31.703,0
1.891,-34.266,0
1.892,-36.647,0
1.893,-43.239,0
1.894,-37.196,0
1.895,-35.365,0
1.896,-30.421,0
1.897,-28.956,0
1.898,-22.181,0
1.899,-25.66,0
1.9,-17.787,0
1.901,-12.843,0
1.902,-13.759,0
1.903,-13.026,0
1.904,-7.716,0
1.905,-7.167,0
1.906,-6.617,0
1.907,-3.871,0
1.908,-3.505,0
1.909,2.538,0
1.91,4.918,0
1.911,10.228,0
1.912,6.932,0
1.913,8.763,0
1.914,3.636,0
1.915,4.186,0
1.916,3.636,0
1.917,4.186,0
1.918,3.82,0
1.919,4.186,0
1.92,6.2,0
1.921,5.101,0
1.922,4.735,0
1.923,6.2,0
1.924,4.369,0
1.925,4.552,0
1.926,8.031,0
1.927,9.313,0
1.928,10.594,0
1.929,7.848,0
1.93,9.679,0
1.931,7.848,0
1.932,7.115,0
1.933,10.228,0
1.934,7.482,0
1.935,1.805,0
1.936,2.538,0
1.937,4.735,0
1.938,6.749,0
1.939,4.918,0
1.94,14.44,0
1.941,10.411,0
1.942,18.834,0
1.943,17.736,0
1.944,10.778,0
1.945,4.369,0
1.946,3.636,0
1.947,1.439,0
1.948,4.735,0
1.949,-0.941,0
1.95,1.256,0
1.951,-0.575,0
1.952,-2.406,0
1.953,-2.955,0
1.954,-0.575,0
1.955,1.622,0
1.956,0.524,0
1.957,0.89,0
1.958,1.256,0
1.959,-0.758,0
1.96,1.073,0
1.961,2.355,0
1.962,1.805,0
1.963,5.101,0
1.964,0.89,0
1.965,2.538,0
1.966,-0.758,0
1.967,-3.871,0
1.968,-1.124,0
1.969,-0.026,0
1.97,-1.124,0
1.971,2.904,0
1.972,1.256,0
1.973,-0.026,0
1.974,1.256,0
1.975,2.355,0
1.976,-1.857,0
1.977,-0.209,0
1.978,1.073,0
1.979,4.186,0
1.98,1.439,0
1.981,6.383,0
1.982,4.552,0
1.983,-4.969,0
1.984,-3.688,0
1.985,-0.209,0
1.986,-5.885,0
1.987,-2.955,0
1.988,-2.04,0
1.989,1.622,0
1.99,0.89,0
1.991,9.313,0
1.992,6.017,0
1.993,21.215,0
1.994,14.623,0
1.995,4.552,0
1.996,-4.603,0
1.997,0.341,0
1.998,1.805,0
1.999,-2.223,0
2,-3.322,0
2.001,-4.42,0
2.002,-5.336,0
2.003,-4.42,0
2.004,-5.153,0
2.005,-4.42,0
2.006,-2.589,0
2.007,-3.138,0
2.008,0.707,0
2.009,6.2,0
2.01,2.355,0
2.011,0.524,0
2.012,3.636,0
2.013,-2.589,0
2.014,-0.209,0
2.015,-4.054,0
2.016,-4.603,0
2.017,-4.054,0
2.018,-2.406,0
2.019,-5.702,0
2.02,-6.984,0
2.021,-0.758,0
2.022,0.157,0
2.023,0.89,0
2.024,1.622,0
2.025,-0.209,0
2.026,-0.758,0
2.027,6.566,0
2.028,1.622,0
2.029,2.538,0
2.03,1.805,0
2.031,1.073,0
2.032,-0.758,0
2.033,-1.307,0
2.034,-4.054,0
2.035,-4.42,0
2.036,-7.533,0
2.037,-2.955,0
2.038,-1.124,0
2.039,-6.251,0
2.04,-3.505,0
2.041,-1.674,0
2.042,-1.124,0
2.043,-1.674,0
2.044,1.622,0
2.045,3.82,0
2.046,10.045,0
2.047,7.299,0
2.048,1.622,0
2.049,-3.688,0
2.05,3.82,0
2.051,2.904,0
2.052,7.482,0
2.053,13.158,0
2.054,3.087,0
2.055,-6.434,0
2.056,-0.392,0
2.057,-1.49,0
2.058,-0.575,0
2.059,0.341,0
2.06,-2.04,0
2.061,-4.237,0
2.062,-6.068,0
2.063,-2.955,0
2.064,-0.209,0
2.065,-1.49,0
2.066,-1.857,0
2.067,-2.223,0
2.068,-4.054,0
2.069,-3.688,0
2.07,-4.42,0
2.071,-1.307,0
2.072,-0.209,0
2.073,-0.575,0
2.074,1.989,0
2.075,1.256,0
2.076,-1.857,0
2.077,1.989,0
2.078,5.284,0
2.079,5.651,0
2.08,2.904,0
2.081,2.538,0
2.082,-1.49,0
2.083,-0.209,0
2.084,-2.406,0
2.085,-1.307,0
2.086,1.256,0
2.087,0.157,0
2.088,-1.857,0
2.089,-2.589,0
2.09,-1.857,0
2.091,-2.04,0
2.092,-5.519,0
2.093,1.989,0
2.094,12.242,0
2.095,-0.026,0
2.096,18.285,0
2.097,11.144,0
2.098,0.157,0
2.099,-1.857,0
2.1,-3.688,0
2.101,-5.336,0
2.102,-3.871,0
2.103,-5.153,0
2.104,-6.251,0
2.105,-0.575,0
2.106,2.355,0
2.107,-2.223,0
2.108,0.157,0
2.109,-2.04,0
2.11,-0.209,0
2.111,0.341,0
2.112,3.087,0
2.113,1.805,0
2.114,-2.406,0
2.115,-4.054,0
2.116,-2.772,0
2.117,-4.969,0
2.118,-1.124,0
2.119,-2.406,0
2.12,-4.603,0
2.121,-4.237,0
2.122,-2.406,0
2.123,0.89,0
2.124,-0.209,0
2.125,4.735,0
2.126,5.284,0
2.127,3.453,0
2.128,5.101,0
2.129,4.735,0
2.13,1.622,0
2.131,0.524,0
2.132,-0.575,0
2.133,1.256,0
2.134,-0.758,0
2.135,-1.49,0
2.136,-3.322,0
2.137,-3.505,0
2.138,-0.209,0
2.139,-3.322,0
2.14,-1.307,0
2.141,2.172,0
2.142,-2.04,0
2.143,1.073,0
2.144,2.172,0
2.145,7.848,0
2.146,11.876,0
2.147,8.031,0
2.148,6.2,0
2.149,8.031,0
2.15,8.58,0
2.151,5.284,0
2.152,11.327,0
2.153,-1.124,0
2.154,-13.942,0
2.155,-2.406,0
2.156,-3.871,0
2.157,-2.589,0
2.158,-3.688,0
2.159,-4.786,0
2.16,0.157,0
2.161,-0.758,0
2.162,1.622,0
2.163,3.82,0
2.164,-0.758,0
2.165,1.073,0
2.166,0.524,0
2.167,-4.969,0
2.168,-8.815,0
2.169,-6.984,0
2.17,-7.533,0
2.171,-3.688,0
2.172,-1.307,0
2.173,1.805,0
2.174,1.439,0
2.175,3.27,0
2.176,-1.49,0
2.177,-0.941,0
2.178,-0.392,0
2.179,4.186,0
2.18,3.636,0
2.181,4.186,0
2.182,1.805,0
2.183,2.172,0
2.184,-1.674,0
2.185,-4.969,0
2.186,-4.603,0
2.187,-4.969,0
2.188,-0.758,0
2.189,-2.406,0
2.19,-1.124,0
2.191,-0.758,0
2.192,4.735,0
2.193,0.157,0
2.194,-0.575,0
2.195,9.679,0
2.196,2.172,0
2.197,-1.857,0
2.198,9.313,0
2.199,1.805,0
2.2,-2.223,0
2.201,-5.702,0
2.202,-6.801,0
2.203,-5.885,0
2.204,-6.801,0
2.205,-4.42,0
2.206,0.89,0
2.207,2.721,0
2.208,-0.392,0
2.209,-2.04,0
2.21,-3.322,0
2.211,-0.209,0
2.212,2.538,0
2.213,3.636,0
2.214,2.538,0
2.215,-2.04,0
2.216,-1.49,0
2.217,-0.941,0
2.218,-3.688,0
2.219,-4.969,0
2.22,-3.688,0
2.221,-7.533,0
2.222,-2.955,0
2.223,-2.406,0
2.224,-7.533,0
2.225,-2.955,0
2.226,1.439,0
2.227,-0.209,0
2.228,-0.575,0
2.229,4.552,0
2.23,1.256,0
2.231,0.707,0
2.232,1.256,0
2.233,-1.124,0
2.234,-3.322,0
2.235,-3.688,0
2.236,-2.589,0
2.237,-0.026,0
2.238,1.439,0
2.239,-1.124,0
2.24,-2.955,0
2.241,1.622,0
2.242,2.172,0
2.243,-0.941,0
2.244,2.355,0
2.245,5.101,0
2.246,12.609,0
2.247,4.735,0
2.248,9.679,0
2.249,-4.237,0
2.25,-10.28,0
2.251,-4.786,0
2.252,-6.434,0
2.253,-7.899,0
2.254,-3.871,0
2.255,-2.772,0
2.256,0.524,0
2.257,-4.42,0
2.258,-5.336,0
2.259,0.341,0
2.26,-0.392,0
2.261,-2.223,0
2.262,-0.392,0
2.263,-0.941,0
2.264,-0.575,0
2.265,2.538,0
2.266,1.439,0
2.267,-4.237,0
2.268,-0.209,0
2.269,-5.519,0
2.27,1.989,0
2.271,-0.941,0
2.272,1.805,0
2.273,-0.575,0
2.274,-2.772,0
2.275,0.524,0
2.276,1.073,0
2.277,-1.674,0
2.278,1.622,0
2.279,1.989,0
2.28,4.735,0
2.281,1.256,0
2.282,-2.955,0
2.283,-3.505,0
2.284,-2.223,0
2.285,-0.941,0
2.286,-6.434,0
2.287,-1.124,0
2.288,-1.674,0
2.289,-1.124,0
2.29,1.622,0
2.291,1.989,0
2.292,3.27,0
2.293,-2.955,0
2.294,1.622,0
2.295,3.82,0
2.296,1.439,0
2.297,-0.758,0
2.298,1.073,0
2.299,5.468,0
2.3,0.341,0
2.301,0.89,0
2.302,2.721,0
2.303,5.468,0
2.304,10.045,0
2.305,0.524,0
2.306,-0.758,0
2.307,0.341,0
2.308,-5.336,0
2.309,-4.42,0
2.31,-1.674,0
2.311,-4.054,0
2.312,-0.209,0
2.313,1.622,0
2.314,2.172,0
2.315,0.524,0
2.316,-2.772,0
2.317,-3.138,0
2.318,0.707,0
2.319,-3.871,0
2.32,-4.42,0
2.321,-3.871,0
2.322,-2.589,0
2.323,-1.307,0
2.324,-2.406,0
2.325,-2.04,0
2.326,1.256,0
2.327,3.27,0
2.328,4.369,0
2.329,3.27,0
2.33,6.566,0
2.331,3.453,0
2.332,-1.124,0
2.333,0.707,0
2.334,-5.519,0
2.335,-4.786,0
2.336,-8.632,0
2.337,-1.124,0
2.338,-2.04,0
2.339,0.707,0
2.34,1.439,0
2.341,0.707,0
2.342,2.538,0
2.343,-3.138,0
2.344,-0.941,0
2.345,0.89,0
2.346,2.355,0
2.347,2.904,0
2.348,5.651,0
2.349,4.369,0
2.35,4.003,0
2.351,1.256,0
2.352,-3.688,0
2.353,-0.392,0
2.354,4.003,0
2.355,1.256,0
2.356,-0.026,0
2.357,3.087,0
2.358,6.932,0
2.359,5.651,0
2.36,5.284,0
2.361,2.538,0
2.362,6.017,0
2.363,6.383,0
2.364,10.961,0
2.365,5.284,0
2.366,-6.251,0
2.367,-7.899,0
2.368,-6.434,0
2.369,-2.406,0
2.37,-5.885,0
2.371,-4.786,0
2.372,-3.871,0
2.373,-4.786,0
2.374,-7.167,0
2.375,-1.857,0
2.376,2.721,0
2.377,-0.392,0
2.378,-0.941,0
2.379,-2.223,0
2.38,0.89,0
2.381,1.256,0
2.382,-1.307,0
2.383,4.186,0
2.384,-4.237,0
2.385,-0.941,0
2.386,-3.871,0
2.387,-1.124,0
2.388,-0.392,0
2.389,3.453,0
2.39,1.622,0
2.391,1.073,0
2.392,-1.674,0
2.393,3.82,0
2.394,-0.026,0
2.395,0.524,0
2.396,1.073,0
2.397,-0.575,0
2.398,-1.124,0
2.399,3.453,0
2.4,2.904,0
2.401,5.651,0
2.402,2.355,0
2.403,7.482,0
2.404,10.778,0
2.405,1.256,0
2.406,-0.026,0
2.407,-1.124,0
2.408,-4.42,0
2.409,-3.505,0
2.41,1.073,0
2.411,-1.307,0
2.412,0.89,0
2.413,-3.688,0
2.414,0.707,0
2.415,-2.04,0
2.416,-1.674,0
2.417,-3.871,0
2.418,-0.026,0
2.419,-2.406,0
2.42,-1.124,0
2.421,-0.758,0
2.422,-1.124,0
2.423,-6.617,0
2.424,1.805,0
2.425,2.904,0
2.426,3.82,0
2.427,1.073,0
2.428,3.453,0
2.429,1.256,0
2.43,1.805,0
2.431,-1.307,0
2.432,-4.054,0
2.433,-1.674,0
2.434,-3.871,0
2.435,-0.026,0
2.436,-2.406,0
2.437,-0.209,0
2.438,-1.307,0
2.439,-3.871,0
2.44,0.157,0
2.441,0.524,0
2.442,-2.589,0
2.443,-2.223,0
2.444,-6.434,0
2.445,-0.209,0
2.446,-0.941,0
2.447,-0.209,0
2.448,4.552,0
2.449,-0.026,0
2.45,9.496,0
2.451,5.468,0
2.452,6.566,0
2.453,3.27,0
2.454,6.2,0
2.455,1.622,0
2.456,4.003,0
2.457,3.27,0
2.458,2.721,0
2.459,5.834,0
2.46,3.087,0
2.461,2.721,0
2.462,8.763,0
2.463,4.735,0
2.464,0.89,0
2.465,-3.688,0
2.466,-5.519,0
2.467,-7.167,0
2.468,-7.533,0
2.469,-8.815,0
2.47,-12.66,0
2.471,-8.082,0
2.472,-3.688,0
2.473,1.439,0
2.474,1.989,0
2.475,1.439,0
2.476,1.989,0
2.477,0.707,0
2.478,-2.406,0
2.479,1.439,0
2.48,4.735,0
2.481,0.524,0
2.482,4.369,0
2.483,3.087,0
2.484,-3.871,0
2.485,-2.955,0
2.486,-2.04,0
2.487,-1.307,0
2.488,-5.153,0
2.489,-5.702,0
2.49,2.538,0
2.491,-3.138,0
2.492,-2.223,0
2.493,4.186,0
2.494,0.157,0
2.495,0.89,0
2.496,4.186,0
2.497,2.355,0
2.498,0.707,0
2.499,6.017,0
2.5,0.524,0
2.501,12.059,0
2.502,0.524,0
2.503,17.003,0
2.504,10.411,0
2.505,8.397,0
2.506,-0.758,0
2.507,-5.702,0
2.508,-4.237,0
2.509,-2.955,0
2.51,0.524,0
2.511,3.82,0
2.512,8.763,0
2.513,7.848,0
2.514,5.468,0
2.515,1.622,0
2.516,4.918,0
2.517,-4.603,0
2.518,-3.322,0
2.519,-4.42,0
2.52,-5.519,0
2.521,-6.434,0
2.522,-5.519,0
2.523,-1.49,0
2.524,-3.688,0
2.525,-3.138,0
2.526,-2.589,0
2.527,-0.941,0
2.528,-2.223,0
2.529,-4.42,0
2.53,-0.575,0
2.531,-0.941,0
2.532,-0.575,0
2.533,0.524,0
2.534,-0.575,0
2.535,-1.674,0
2.536,-3.688,0
2.537,-7.35,0
2.538,0.157,0
2.539,-7.716,0
2.54,-2.772,0
2.541,-1.857,0
2.542,0.524,0
2.543,-0.209,0
2.544,0.341,0
2.545,3.453,0
2.546,5.101,0
2.547,4.735,0
2.548,0.524,0
2.549,-2.223,0
2.55,-0.575,0
2.551,-3.871,0
2.552,2.172,0
2.553,9.679,0
2.554,2.721,0
2.555,3.636,0
2.556,6.017,0
2.557,9.862,0
2.558,13.158,0
2.559,6.2,0
2.56,1.622,0
2.561,-0.758,0
2.562,-1.49,0
2.563,-0.941,0
2.564,0.89,0
2.565,-1.857,0
2.566,-2.223,0
2.567,-5.336,0
2.568,-3.322,0
2.569,-1.49,0
2.57,-6.251,0
2.571,-5.702,0
2.572,0.524,0
2.573,-0.209,0
2.574,0.524,0
2.575,-0.026,0
2.576,0.524,0
2.577,2.172,0
2.578,-0.209,0
2.579,0.157,0
2.58,2.172,0
2.581,0.341,0
2.582,-2.223,0
2.583,-1.49,0
2.584,0.341,0
2.585,-3.688,0
2.586,-0.941,0
2.587,-3.322,0
2.588,-2.04,0
2.589,-3.138,0
2.59,-2.04,0
2.591,1.256,0
2.592,0.89,0
2.593,-1.674,0
2.594,0.89,0
2.595,1.073,0
2.596,0.341,0
2.597,-0.392,0
2.598,-1.49,0
2.599,-0.026,0
2.6,-1.307,0
2.601,-1.307,0
2.602,-4.054,0
2.603,1.622,0
2.604,7.299,0
2.605,11.144,0
2.606,15.721,0
2.607,13.89,0
2.608,10.045,0
2.609,5.468,0
2.61,7.299,0
2.611,10.045,0
2.612,16.637,0
2.613,21.215,0
2.614,23.595,0
2.615,24.327,0
2.616,22.496,0
2.617,16.82,0
2.618,9.862,0
2.619,5.284,0
2.62,4.552,0
2.621,2.355,0
2.622,5.651,0
2.623,-3.871,0
2.624,-13.392,0
2.625,-16.871,0
2.626,-20.167,0
2.627,-31.337,0
2.628,-32.802,0
2.629,-34.083,0
2.63,-25.66,0
2.631,-17.787,0
2.632,-14.857,0
2.633,-2.772,0
2.634,-11.012,0
2.635,-24.562,0
2.636,-44.703,0
2.637,-63.38,0
2.638,-90.114,0
2.639,-122.34,0
2.64,-143.95,0
2.641,-147.79,0
2.642,-151.27,0
2.643,-141.75,0
2.644,-144.68,0
2.645,-126,0
2.646,-89.564,0
2.647,-10.829,0
2.648,68.09,0
2.649,139.87,0
2.65,149.21,0
2.651,140.78,0
2.652,131.26,0
2.653,123.57,0
2.654,102.7,0
2.655,83.837,0
2.656,78.16,0
2.657,73.033,0
2.658,68.273,0
2.659,72.484,0
2.66,60.765,0
2.661,64.244,0
2.662,80.358,0
2.663,83.287,0
2.664,91.161,0
2.665,98.302,0
2.666,100.5,0
2.667,102.51,0
2.668,93.358,0
2.669,78.344,0
2.67,56.188,0
2.671,35.497,0
2.672,27.623,0
2.673,20.482,0
2.674,27.074,0
2.675,12.975,0
2.676,3.82,0
2.677,-7.716,0
2.678,-21.266,0
2.679,-34.083,0
2.68,-39.027,0
2.681,-37.562,0
2.682,-44.337,0
2.683,-52.76,0
2.684,-56.056,0
2.685,-56.971,0
2.686,-57.887,0
2.687,-57.155,0
2.688,-54.957,0
2.689,-51.661,0
2.69,-51.112,0
2.691,-50.563,0
2.692,-52.943,0
2.693,-53.309,0
2.694,-50.563,0
2.695,-50.929,0
2.696,-51.295,0
2.697,-46.718,0
2.698,-42.14,0
2.699,-39.027,0
2.7,-35.182,0
2.701,-36.464,0
2.702,-33.351,0
2.703,-26.942,0
2.704,-22.365,0
2.705,-12.843,0
2.706,-6.068,0
2.707,-0.026,0
2.708,-5.702,0
2.709,-10.646,0
2.71,-4.237,0
2.711,-3.505,0
2.712,0.341,0
2.713,-0.209,0
2.714,0.341,0
2.715,-2.406,0
2.716,-0.026,0
2.717,0.341,0
2.718,-0.026,0
2.719,-0.392,0
2.72,-0.758,0
2.721,3.82,0
2.722,7.115,0
2.723,5.284,0
2.724,5.834,0
2.725,3.453,0
2.726,10.411,0
2.727,11.327,0
2.728,14.073,0
2.729,11.693,0
2.73,3.27,0
2.731,6.566,0
2.732,7.482,0
2.733,6.566,0
2.734,5.834,0
2.735,6.566,0
2.736,3.27,0
2.737,2.721,0
2.738,6.566,0
2.739,7.848,0
2.74,7.482,0
2.741,7.848,0
2.742,5.284,0
2.743,5.651,0
2.744,7.665,0
2.745,8.397,0
2.746,10.228,0
2.747,6.749,0
2.748,5.468,0
2.749,3.27,0
2.75,2.904,0
2.751,1.805,0
2.752,-0.758,0
2.753,2.538,0
2.754,2.355,0
2.755,2.721,0
2.756,8.947,0
2.757,8.031,0
2.758,4.003,0
2.759,9.313,0
2.76,7.482,0
2.761,9.313,0
2.762,7.665,0
2.763,10.045,0
2.764,6.932,0
2.765,13.158,0
2.766,12.242,0
2.767,3.087,0
2.768,-10.463,0
2.769,-4.969,0
2.77,-3.322,0
2.771,-1.857,0
2.772,2.172,0
2.773,-3.871,0
2.774,-2.772,0
2.775,0.157,0
2.776,1.073,0
2.777,0.341,0
2.778,1.073,0
2.779,0.524,0
2.78,1.073,0
2.781,-2.772,0
2.782,-0.392,0
2.783,6.566,0
2.784,5.651,0
2.785,-2.772,0
2.786,-1.674,0
2.787,-6.617,0
2.788,-2.04,0
2.789,-2.772,0
2.79,-0.575,0
2.791,-0.026,0
2.792,0.524,0
2.793,1.073,0
2.794,3.453,0
2.795,1.256,0
2.796,1.622,0
2.797,0.524,0
2.798,-2.772,0
2.799,2.721,0
2.8,3.453,0
2.801,1.622,0
2.802,2.172,0
2.803,-4.054,0
2.804,-0.026,0
2.805,1.622,0
2.806,-3.688,0
2.807,6.566,0
2.808,8.031,0
2.809,4.003,0
2.81,10.045,0
2.811,11.144,0
2.812,-4.054,0
2.813,-1.857,0
2.814,0.157,0
2.815,1.989,0
2.816,0.341,0
2.817,-4.054,0
2.818,-5.336,0
2.819,-4.237,0
2.82,-3.138,0
2.821,-4.054,0
2.822,0.524,0
2.823,-3.505,0
2.824,-2.772,0
2.825,0.524,0
2.826,-2.589,0
2.827,1.256,0
2.828,3.636,0
2.829,1.439,0
2.83,1.073,0
2.831,-0.758,0
2.832,-1.857,0
2.833,-2.04,0
2.834,-5.153,0
2.835,-3.138,0
2.836,-4.969,0
2.837,-4.603,0
2.838,-2.589,0
2.839,-5.153,0
2.84,-1.857,0
2.841,-4.603,0
2.842,-0.392,0
2.843,-0.941,0
2.844,5.651,0
2.845,4.735,0
2.846,4.003,0
2.847,0.157,0
2.848,-0.392,0
2.849,-0.941,0
2.85,-4.786,0
2.851,-0.209,0
2.852,-0.758,0
2.853,-2.406,0
2.854,-3.688,0
2.855,0.524,0
2.856,-4.237,0
2.857,-1.49,0
2.858,1.805,0
2.859,4.918,0
2.86,5.284,0
2.861,8.763,0
2.862,2.721,0
2.863,5.101,0
2.864,4.369,0
2.865,7.665,0
2.866,3.27,0
2.867,-1.857,0
2.868,-10.829,0
2.869,7.665,0
2.87,-0.209,0
2.871,-2.589,0
2.872,-4.786,0
2.873,-2.772,0
2.874,-0.941,0
2.875,-5.885,0
2.876,-1.49,0
2.877,-0.209,0
2.878,-1.307,0
2.879,-0.209,0
2.88,-1.124,0
2.881,-2.04,0
2.882,-1.307,0
2.883,2.538,0
2.884,-0.758,0
2.885,-3.871,0
2.886,-11.195,0
2.887,-4.237,0
2.888,2.172,0
2.889,-0.209,0
2.89,1.989,0
2.891,0.157,0
2.892,0.707,0
2.893,-0.941,0
2.894,4.552,0
2.895,5.284,0
2.896,3.453,0
2.897,2.904,0
2.898,3.453,0
2.899,-1.124,0
2.9,1.989,0
2.901,0.341,0
2.902,-0.941,0
2.903,-3.138,0
2.904,-2.772,0
2.905,-0.941,0
2.906,4.552,0
2.907,6.017,0
2.908,0.707,0
2.909,10.961,0
2.91,3.453,0
2.911,21.215,0
2.912,9.13,0
2.913,2.538,0
2.914,-3.505,0
2.915,1.989,0
2.916,-2.955,0
2.917,-1.49,0
2.918,-2.772,0
2.919,-3.871,0
2.92,-4.969,0
2.921,-2.04,0
2.922,-1.124,0
2.923,1.256,0
2.924,-0.941,0
2.925,0.89,0
2.926,1.439,0
2.927,5.284,0
2.928,1.989,0
2.929,1.622,0
2.93,2.721,0
2.931,2.355,0
2.932,0.524,0
2.933,-2.772,0
2.934,0.341,0
2.935,-0.758,0
2.936,-2.589,0
2.937,-2.955,0
2.938,-0.941,0
2.939,-0.758,0
2.94,3.27,0
2.941,-1.857,0
2.942,1.439,0
2.943,3.27,0
2.944,0.524,0
2.945,3.82,0
2.946,4.186,0
2.947,2.172,0
2.948,6.383,0
2.949,1.256,0
2.95,0.707,0
2.951,-2.406,0
2.952,-0.758,0
2.953,-3.138,0
2.954,-0.941,0
2.955,-2.955,0
2.956,-2.589,0
2.957,2.172,0
2.958,-1.307,0
2.959,4.369,0
2.96,15.905,0
2.961,7.665,0
2.962,15.172,0
2.963,8.397,0
2.964,7.299,0
2.965,4.003,0
2.966,10.961,0
2.967,11.876,0
2.968,-0.575,0
2.969,-6.068,0
2.97,-4.42,0
2.971,-5.885,0
2.972,-4.603,0
2.973,-3.505,0
2.974,-0.209,0
2.975,-5.153,0
2.976,-4.237,0
2.977,-1.857,0
2.978,0.341,0
2.979,0.89,0
2.98,1.439,0
2.981,1.989,0
2.982,-2.589,0
2.983,-0.758,0
2.984,-2.406,0
2.985,-1.124,0
2.986,-6.251,0
2.987,-4.42,0
2.988,-6.251,0
2.989,-3.505,0
2.99,-0.209,0
2.991,-2.406,0
2.992,-1.307,0
2.993,-3.138,0
2.994,2.355,0
2.995,0.157,0
2.996,0.707,0
2.997,2.538,0
2.998,0.89,0
2.999,-0.392,0
3,-1.674,0
3.001,-1.307,0
3.002,-6.984,0
3.003,-7.716,0
3.004,-3.871,0
3.005,-2.04,0
3.006,-0.209,0
3.007,0.341,0
3.008,-0.941,0
3.009,2.355,0
3.01,-0.758,0
3.011,5.468,0
3.012,4.552,0
3.013,12.059,0
3.014,14.989,0
3.015,2.904,0
3.016,-2.04,0
3.017,-6.434,0
3.018,-5.153,0
3.019,-4.054,0
3.02,-5.153,0
3.021,-2.223,0
3.022,-3.138,0
3.023,-2.406,0
3.024,-3.138,0
3.025,-2.589,0
3.026,-3.138,0
3.027,0.707,0
3.028,-1.674,0
3.029,5.284,0
3.03,8.214,0
3.031,-0.209,0
3.032,-1.307,0
3.033,-2.223,0
3.034,-1.307,0
3.035,-2.04,0
3.036,-4.237,0
3.037,-6.068,0
3.038,-1.674,0
3.039,-2.223,0
3.04,-1.857,0
3.041,-1.49,0
3.042,0.524,0
3.043,2.355,0
3.044,-0.209,0
3.045,1.805,0
3.046,3.087,0
3.047,-0.392,0
3.048,-1.674,0
3.049,1.073,0
3.05,2.904,0
3.051,-1.124,0
3.052,-4.42,0
3.053,-4.054,0
3.054,-3.688,0
3.055,-1.857,0
3.056,2.172,0
3.057,1.805,0
3.058,4.003,0
3.059,2.904,0
3.06,0.89,0
3.061,2.721,0
3.062,8.214,0
3.063,4.369,0
3.064,8.947,0
3.065,-0.575,0
3.066,-7.35,0
3.067,1.073,0
3.068,-4.603,0
3.069,-3.688,0
3.07,-2.772,0
3.071,-3.505,0
3.072,-1.307,0
3.073,0.524,0
3.074,-2.589,0
3.075,1.256,0
3.076,4.552,0
3.077,0.341,0
3.078,-0.209,0
3.079,0.157,0
3.08,0.524,0
3.081,2.538,0
3.082,0.707,0
3.083,-1.857,0
3.084,0.157,0
3.085,0.89,0
3.086,-2.04,0
3.087,-0.209,0
3.088,-2.772,0
3.089,-4.786,0
3.09,-6.617,0
3.091,-2.589,0
3.092,3.636,0
3.093,1.256,0
3.094,0.524,0
3.095,-0.026,0
3.096,1.805,0
3.097,1.256,0
3.098,2.538,0
3.099,2.172,0
3.1,1.073,0
3.101,-1.49,0
3.102,-3.322,0
3.103,-5.336,0
3.104,-5.153,0
3.105,-1.124,0
3.106,0.524,0
3.107,0.157,0
3.108,5.284,0
3.109,5.834,0
3.11,2.721,0
3.111,4.552,0
3.112,1.805,0
3.113,9.313,0
3.114,6.017,0
3.115,5.101,0
3.116,13.524,0
3.117,5.651,0
3.118,-9.547,0
3.119,-7.35,0
3.12,-5.336,0
3.121,0.157,0
3.122,-4.786,0
3.123,-3.322,0
3.124,-4.603,0
3.125,1.439,0
3.126,-4.237,0
3.127,-3.322,0
3.128,-0.575,0
3.129,3.453,0
3.13,1.256,0
3.131,-0.575,0
3.132,-2.406,0
3.133,-4.054,0
3.134,-3.688,0
3.135,-3.322,0
3.136,-1.307,0
3.137,-0.209,0
3.138,0.157,0
3.139,0.341,0
3.14,1.073,0
3.141,2.355,0
3.142,-1.124,0
3.143,1.256,0
3.144,-0.941,0
3.145,2.904,0
3.146,5.284,0
3.147,4.003,0
3.148,4.369,0
3.149,0.157,0
3.15,-3.688,0
3.151,-2.406,0
3.152,-4.603,0
3.153,-7.35,0
3.154,-1.674,0
3.155,-0.941,0
3.156,-1.674,0
3.157,-2.223,0
3.158,-1.674,0
3.159,2.172,0
3.16,3.453,0
3.161,0.341,0
3.162,-3.505,0
3.163,0.341,0
3.164,7.848,0
3.165,4.552,0
3.166,13.707,0
3.167,-4.786,0
3.168,-12.66,0
3.169,-5.519,0
3.17,-3.322,0
3.171,-5.336,0
3.172,-3.505,0
3.173,-1.857,0
3.174,-0.392,0
3.175,0.89,0
3.176,1.989,0
3.177,0.89,0
3.178,-2.04,0
3.179,-6.617,0
3.18,-2.589,0
3.181,-0.392,0
3.182,-6.617,0
3.183,-0.941,0
3.184,-6.251,0
3.185,-0.026,0
3.186,-5.702,0
3.187,-3.505,0
3.188,-1.674,0
3.189,0.157,0
3.19,0.707,0
3.191,1.989,0
3.192,2.355,0
3.193,1.256,0
3.194,0.157,0
3.195,1.989,0
3.196,1.805,0
3.197,2.538,0
3.198,3.27,0
3.199,3.087,0
3.2,-0.209,0
3.201,-5.336,0
3.202,-4.786,0
3.203,-5.336,0
3.204,-1.49,0
3.205,-4.786,0
3.206,-1.674,0
3.207,0.341,0
3.208,0.707,0
3.209,-1.857,0
3.21,-3.322,0
3.211,0.89,0
3.212,0.341,0
3.213,0.89,0
3.214,1.439,0
3.215,8.947,0
3.216,3.27,0
3.217,4.186,0
3.218,10.594,0
3.219,4.918,0
3.22,-3.505,0
3.221,-6.801,0
3.222,-5.885,0
3.223,-4.969,0
3.224,-0.941,0
3.225,-0.209,0
3.226,-0.758,0
3.227,6.2,0
3.228,5.284,0
3.229,6.017,0
3.23,3.82,0
3.231,0.524,0
3.232,-0.026,0
3.233,-0.575,0
3.234,-3.871,0
3.235,-6.068,0
3.236,-4.969,0
3.237,-3.138,0
3.238,-2.772,0
3.239,1.805,0
3.24,-1.49,0
3.241,0.341,0
3.242,0.89,0
3.243,2.172,0
3.244,6.383,0
3.245,2.538,0
3.246,8.031,0
3.247,4.186,0
3.248,2.355,0
3.249,-0.758,0
3.25,3.087,0
3.251,-0.209,0
3.252,-3.322,0
3.253,2.172,0
3.254,1.439,0
3.255,-1.857,0
3.256,1.256,0
3.257,-4.969,0
3.258,-4.237,0
3.259,-2.04,0
3.26,-5.336,0
3.261,-5.885,0
3.262,-0.758,0
3.263,-0.209,0
3.264,-2.772,0
3.265,-4.603,0
3.266,3.82,0
3.267,0.341,0
3.268,8.214,0
3.269,9.13,0
3.27,-4.786,0
3.271,-2.772,0
3.272,-4.603,0
3.273,-9.547,0
3.274,-2.04,0
3.275,4.735,0
3.276,1.256,0
3.277,-6.617,0
3.278,0.341,0
3.279,3.087,0
3.28,2.355,0
3.281,0.157,0
3.282,0.707,0
3.283,-1.124,0
3.284,-3.871,0
3.285,-2.589,0
3.286,-8.632,0
3.287,-2.955,0
3.288,2.355,0
3.289,1.805,0
3.29,-0.026,0
3.291,-0.575,0
3.292,-1.857,0
3.293,-0.575,0
3.294,-1.674,0
3.295,1.805,0
3.296,4.918,0
3.297,4.552,0
3.298,3.453,0
3.299,3.087,0
3.3,3.27,0
3.301,-0.941,0
3.302,-6.617,0
3.303,-5.885,0
3.304,-4.054,0
3.305,-0.941,0
3.306,-3.688,0
3.307,-1.307,0
3.308,-0.941,0
3.309,-2.955,0
3.31,0.524,0
3.311,2.721,0
3.312,2.355,0
3.313,1.256,0
3.314,1.622,0
3.315,-2.772,0
3.316,1.805,0
3.317,3.636,0
3.318,-5.885,0
3.319,9.13,0
3.32,3.087,0
3.321,-6.068,0
3.322,-1.124,0
3.323,0.341,0
3.324,-0.941,0
3.325,-2.04,0
3.326,-3.138,0
3.327,-2.223,0
3.328,-1.307,0
3.329,1.073,0
3.33,1.805,0
3.331,1.256,0
3.332,-1.857,0
3.333,-4.603,0
3.334,-3.322,0
3.335,-0.209,0
3.336,0.157,0
3.337,1.256,0
3.338,-4.237,0
3.339,-2.04,0
3.34,-3.871,0
3.341,-2.04,0
3.342,-2.589,0
3.343,1.989,0
3.344,2.538,0
3.345,10.961,0
3.346,19.384,0
3.347,18.285,0
3.348,23.229,0
3.349,24.144,0
3.35,21.764,0
3.351,21.031,0
3.352,19.2,0
3.353,13.524,0
3.354,8.214,0
3.355,10.045,0
3.356,9.496,0
3.357,5.651,0
3.358,-1.857,0
3.359,-16.688,0
3.36,-18.702,0
3.361,-24.196,0
3.362,-29.139,0
3.363,-36.647,0
3.364,-37.928,0
3.365,-29.506,0
3.366,-18.153,0
3.367,-17.054,0
3.368,-1.857,0
3.369,-12.843,0
3.37,-26.942,0
3.371,-47.084,0
3.372,-65.76,0
3.373,-102.2,0
3.374,-138.82,0
3.375,-134.06,0
3.376,-146.88,0
3.377,-150.72,0
3.378,-140.1,0
3.379,-136.99,0
3.38,-110.25,0
3.381,-63.746,0
3.382,6.2,0
3.383,90.245,0
3.384,146.64,0
3.385,156.9,0
3.386,147.56,0
3.387,139.13,0
3.388,116.06,0
3.389,95.189,0
3.39,88.964,0
3.391,83.287,0
3.392,78.16,0
3.393,73.4,0
3.394,77.611,0
3.395,81.456,0
3.396,92.076,0
3.397,88.964,0
3.398,91.893,0
3.399,99.767,0
3.4,92.626,0
3.401,99.218,0
3.402,93.175,0
3.403,84.02,0
3.404,65.709,0
3.405,43.737,0
3.406,28.905,0
3.407,21.031,0
3.408,13.89,0
3.409,16.088,0
3.41,10.045,0
3.411,-2.772,0
3.412,-11.012,0
3.413,-27.491,0
3.414,-34.083,0
3.415,-44.154,0
3.416,-42.323,0
3.417,-51.844,0
3.418,-56.788,0
3.419,-52.394,0
3.42,-53.676,0
3.421,-50.197,0
3.422,-44.52,0
3.423,-43.605,0
3.424,-44.52,0
3.425,-50.197,0
3.426,-58.619,0
3.427,-57.521,0
3.428,-56.605,0
3.429,-53.859,0
3.43,-43.055,0
3.431,-47.45,0
3.432,-48.732,0
3.433,-40.309,0
3.434,-39.21,0
3.435,-36.281,0
3.436,-37.196,0
3.437,-34.816,0
3.438,-27.858,0
3.439,-25.111,0
3.44,-25.844,0
3.441,-18.885,0
3.442,-12.477,0
3.443,-6.801,0
3.444,-4.603,0
3.445,-4.054,0
3.446,-0.941,0
3.447,1.805,0
3.448,2.172,0
3.449,5.284,0
3.45,3.27,0
3.451,2.172,0
3.452,-1.857,0
3.453,0.524,0
3.454,1.805,0
3.455,1.439,0
3.456,6.383,0
3.457,4.552,0
3.458,8.947,0
3.459,9.496,0
3.46,10.778,0
3.461,9.496,0
3.462,11.51,0
3.463,7.299,0
3.464,11.144,0
3.465,10.778,0
3.466,12.059,0
3.467,6.566,0
3.468,1.622,0
3.469,5.468,0
3.47,15.721,0
3.471,11.327,0
3.472,10.045,0
3.473,18.468,0
3.474,8.214,0
3.475,-1.307,0
3.476,4.735,0
3.477,8.031,0
3.478,5.101,0
3.479,7.848,0
3.48,10.228,0
3.481,3.27,0
3.482,2.355,0
3.483,-0.026,0
3.484,-3.871,0
3.485,-0.575,0
3.486,-1.124,0
3.487,-1.674,0
3.488,3.82,0
3.489,1.622,0
3.49,2.172,0
3.491,1.622,0
3.492,2.172,0
3.493,3.453,0
3.494,0.341,0
3.495,4.186,0
3.496,2.904,0
3.497,4.186,0
3.498,2.172,0
3.499,4.735,0
3.5,-0.758,0
3.501,-1.49,0
3.502,-3.322,0
3.503,-0.209,0
3.504,-2.955,0
3.505,1.622,0
3.506,2.172,0
3.507,3.82,0
3.508,4.186,0
3.509,3.82,0
3.51,1.073,0
3.511,4.552,0
3.512,-2.406,0
3.513,-1.49,0
3.514,1.256,0
3.515,3.636,0
3.516,2.904,0
3.517,-0.392,0
3.518,-2.223,0
3.519,-3.505,0
3.52,0.341,0
3.521,5.834,0
3.522,0.524,0
3.523,-0.026,0
3.524,0.524,0
3.525,-1.124,0
3.526,6.383,0
3.527,5.284,0
3.528,-3.871,0
3.529,-4.969,0
3.53,0.707,0
3.531,1.622,0
3.532,-2.955,0
3.533,-2.223,0
3.534,1.622,0
3.535,-1.674,0
3.536,-2.223,0
3.537,-3.871,0
3.538,-5.153,0
3.539,-0.026,0
3.54,-1.857,0
3.541,1.256,0
3.542,1.805,0
3.543,5.101,0
3.544,-0.941,0
3.545,-4.969,0
3.546,-1.124,0
3.547,2.172,0
3.548,-0.941,0
3.549,-0.392,0
3.55,-2.772,0
3.551,-2.406,0
3.552,-5.153,0
3.553,-1.674,0
3.554,-4.786,0
3.555,-7.533,0
3.556,-4.969,0
3.557,0.524,0
3.558,5.834,0
3.559,-0.392,0
3.56,-1.124,0
3.561,-0.392,0
3.562,1.439,0
3.563,5.834,0
3.564,3.087,0
3.565,-0.209,0
3.566,1.073,0
3.567,3.087,0
3.568,-2.589,0
3.569,-4.969,0
3.57,-5.702,0
3.571,-4.969,0
3.572,4.003,0
3.573,2.904,0
3.574,6.2,0
3.575,11.144,0
3.576,6.566,0
3.577,-5.885,0
3.578,-4.054,0
3.579,-2.406,0
3.58,-0.941,0
3.581,0.341,0
3.582,-0.758,0
3.583,-1.857,0
3.584,-8.815,0
3.585,-7.899,0
3.586,-2.223,0
3.587,-4.42,0
3.588,-3.871,0
3.589,-0.758,0
3.59,-1.307,0
3.591,-3.688,0
3.592,2.355,0
3.593,-0.026,0
3.594,-2.223,0
3.595,-4.054,0
3.596,-2.223,0
3.597,-2.772,0
3.598,1.805,0
3.599,1.256,0
3.6,-2.589,0
3.601,-2.955,0
3.602,-6.068,0
3.603,-4.969,0
3.604,-4.603,0
3.605,-0.575,0
3.606,-0.941,0
3.607,-5.153,0
3.608,-1.307,0
3.609,3.27,0
3.61,1.439,0
3.611,5.284,0
3.612,1.989,0
3.613,3.27,0
3.614,2.904,0
3.615,2.538,0
3.616,-0.758,0
3.617,0.341,0
3.618,-2.223,0
3.619,-4.786,0
3.62,-3.322,0
3.621,-1.307,0
3.622,-3.138,0
3.623,0.89,0
3.624,4.735,0
3.625,-1.857,0
3.626,12.059,0
3.627,6.017,0
3.628,0.524,0
3.629,5.468,0
3.63,-2.04,0
3.631,1.989,0
3.632,-1.49,0
3.633,-2.589,0
3.634,-5.519,0
3.635,-4.603,0
3.636,-2.223,0
3.637,-0.026,0
3.638,4.552,0
3.639,2.721,0
3.64,-1.124,0
3.641,1.256,0
3.642,-0.026,0
3.643,-0.392,0
3.644,-0.758,0
3.645,-2.589,0
3.646,1.439,0
3.647,4.186,0
3.648,2.904,0
3.649,-0.209,0
3.65,-1.307,0
3.651,-3.871,0
3.652,-2.772,0
3.653,-4.237,0
3.654,-3.505,0
3.655,-0.026,0
3.656,-2.223,0
3.657,-1.124,0
3.658,-3.688,0
3.659,1.805,0
3.66,2.538,0
3.661,3.087,0
3.662,1.256,0
3.663,6.383,0
3.664,4.552,0
3.665,1.439,0
3.666,-1.307,0
3.667,-0.026,0
3.668,-1.307,0
3.669,-5.153,0
3.67,-2.772,0
3.671,-3.138,0
3.672,-2.772,0
3.673,-0.026,0
3.674,5.651,0
3.675,3.27,0
3.676,5.468,0
3.677,14.44,0
3.678,10.961,0
3.679,-1.49,0
3.68,13.524,0
3.681,11.51,0
3.682,6.017,0
3.683,4.369,0
3.684,2.904,0
3.685,4.186,0
3.686,3.087,0
3.687,-0.209,0
3.688,0.707,0
3.689,3.453,0
3.69,10.961,0
3.691,-4.237,0
3.692,-2.04,0
3.693,-0.026,0
3.694,-5.519,0
3.695,-0.575,0
3.696,-2.04,0
3.697,1.989,0
3.698,-1.49,0
3.699,-7.167,0
3.7,-2.223,0
3.701,-1.307,0
3.702,-0.575,0
3.703,-2.772,0
3.704,-4.603,0
3.705,-1.49,0
3.706,-4.237,0
3.707,-2.955,0
3.708,-4.237,0
3.709,0.341,0
3.71,2.172,0
3.711,-2.955,0
3.712,-3.505,0
3.713,3.453,0
3.714,0.707,0
3.715,1.439,0
3.716,3.636,0
3.717,1.805,0
3.718,-3.871,0
3.719,-4.603,0
3.72,-5.153,0
3.721,-3.322,0
3.722,0.524,0
3.723,-2.04,0
3.724,-0.758,0
3.725,6.2,0
3.726,5.284,0
3.727,6.2,0
3.728,5.468,0
3.729,13.89,0
3.73,-3.138,0
3.731,-15.223,0
3.732,-4.237,0
3.733,-2.223,0
3.734,-0.392,0
3.735,-5.336,0
3.736,-6.801,0
3.737,-5.519,0
3.738,-2.04,0
3.739,-0.941,0
3.74,-0.026,0
3.741,-6.434,0
3.742,-5.702,0
3.743,-1.857,0
3.744,-0.026,0
3.745,0.524,0
3.746,-0.026,0
3.747,3.27,0
3.748,1.073,0
3.749,-0.026,0
3.75,-1.124,0
3.751,-4.42,0
3.752,-3.322,0
3.753,-5.153,0
3.754,-6.984,0
3.755,-7.716,0
3.756,-3.505,0
3.757,-1.674,0
3.758,-5.519,0
3.759,1.073,0
3.76,0.157,0
3.761,2.538,0
3.762,-1.307,0
3.763,3.27,0
3.764,2.721,0
3.765,1.073,0
3.766,-1.307,0
3.767,5.651,0
3.768,-9.547,0
3.769,-7.35,0
3.77,-1.307,0
3.771,-3.138,0
3.772,-8.082,0
3.773,-3.688,0
3.774,-0.575,0
3.775,3.453,0
3.776,6.932,0
3.777,5.834,0
3.778,0.89,0
3.779,12.975,0
3.78,4.735,0
3.781,0.341,0
3.782,1.622,0
3.783,-1.857,0
3.784,-2.955,0
3.785,-5.885,0
3.786,-8.632,0
3.787,-7.899,0
3.788,-4.054,0
3.789,-3.505,0
3.79,2.172,0
3.791,-4.786,0
3.792,-2.04,0
3.793,-1.307,0
3.794,-0.575,0
3.795,-1.124,0
3.796,0.707,0
3.797,1.256,0
3.798,1.622,0
3.799,1.989,0
3.8,-3.505,0
3.801,-1.307,0
3.802,1.989,0
3.803,-1.124,0
3.804,-1.674,0
3.805,-1.307,0
3.806,-0.941,0
3.807,-3.688,0
3.808,-2.589,0
3.809,1.439,0
3.81,4.735,0
3.811,2.538,0
3.812,1.439,0
3.813,-0.392,0
3.814,-0.026,0
3.815,4.003,0
3.816,-1.124,0
3.817,-1.674,0
3.818,-1.124,0
3.819,-3.871,0
3.82,-3.505,0
3.821,-0.392,0
3.822,-2.406,0
3.823,1.805,0
3.824,0.157,0
3.825,-2.772,0
3.826,1.805,0
3.827,6.2,0
3.828,5.651,0
3.829,8.947,0
3.83,15.905,0
3.831,10.961,0
3.832,-2.955,0
3.833,-0.941,0
3.834,-6.434,0
3.835,-4.786,0
3.836,-3.322,0
3.837,-7.35,0
3.838,-3.871,0
3.839,-4.969,0
3.84,-2.04,0
3.841,-4.786,0
3.842,-2.406,0
3.843,-0.209,0
3.844,4.369,0
3.845,1.256,0
3.846,1.805,0
3.847,0.524,0
3.848,0.89,0
3.849,-0.209,0
3.85,-1.307,0
3.851,-0.941,0
3.852,-2.955,0
3.853,-2.223,0
3.854,-2.04,0
3.855,-0.575,0
3.856,-1.124,0
3.857,-1.307,0
3.858,-1.124,0
3.859,0.89,0
3.86,1.989,0
3.861,1.805,0
3.862,2.538,0
3.863,1.805,0
3.864,0.341,0
3.865,3.636,0
3.866,1.439,0
3.867,0.341,0
3.868,-1.49,0
3.869,0.341,0
3.87,-4.237,0
3.871,0.341,0
3.872,-2.772,0
3.873,-1.124,0
3.874,-4.42,0
3.875,-1.307,0
3.876,2.355,0
3.877,1.256,0
3.878,6.932,0
3.879,7.665,0
3.88,9.862,0
3.881,9.313,0
3.882,12.426,0
3.883,9.679,0
3.884,2.172,0
3.885,-5.702,0
3.886,-8.632,0
3.887,-7.716,0
3.888,-5.336,0
3.889,-0.026,0
3.89,0.524,0
3.891,-3.871,0
3.892,-0.026,0
3.893,-7.533,0
3.894,-1.857,0
3.895,1.073,0
3.896,1.989,0
3.897,-3.688,0
3.898,1.622,0
3.899,1.073,0
3.9,0.524,0
3.901,-4.603,0
3.902,-2.772,0
3.903,-2.223,0
3.904,-1.674,0
3.905,-0.392,0
3.906,-1.674,0
3.907,-0.575,0
3.908,2.904,0
3.909,0.707,0
3.91,3.453,0
3.911,1.622,0
3.912,-0.209,0
3.913,1.805,0
3.914,1.073,0
3.915,2.355,0
3.916,-0.758,0
3.917,-1.124,0
3.918,-3.688,0
3.919,-0.392,0
3.92,-5.885,0
3.921,-3.688,0
3.922,-1.857,0
3.923,-0.026,0
3.924,-3.871,0
3.925,-0.575,0
3.926,-0.209,0
3.927,0.89,0
3.928,-1.124,0
3.929,4.552,0
3.93,3.82,0
3.931,15.355,0
3.932,7.115,0
3.933,-0.392,0
3.934,-4.42,0
3.935,-7.899,0
3.936,-4.603,0
3.937,-1.674,0
3.938,-2.589,0
3.939,1.439,0
3.94,2.172,0
3.941,1.622,0
3.942,-1.49,0
3.943,-6.617,0
3.944,-3.322,0
3.945,-5.153,0
3.946,1.073,0
3.947,-1.307,0
3.948,2.538,0
3.949,1.989,0
3.95,2.538,0
3.951,-2.589,0
3.952,-3.138,0
3.953,-6.251,0
3.954,-4.603,0
3.955,-1.307,0
3.956,-2.589,0
3.957,-2.955,0
3.958,-0.392,0
3.959,1.439,0
3.96,-1.307,0
3.961,1.256,0
3.962,6.749,0
3.963,4.552,0
3.964,4.003,0
3.965,2.172,0
3.966,2.721,0
3.967,2.355,0
3.968,-1.857,0
3.969,-2.406,0
3.97,-2.772,0
3.971,-1.49,0
3.972,-0.392,0
3.973,-2.955,0
3.974,-4.054,0
3.975,0.524,0
3.976,-1.307,0
3.977,0.524,0
3.978,-1.307,0
3.979,-0.758,0
3.98,6.749,0
3.981,10.045,0
3.982,7.115,0
3.983,15.538,0
3.984,12.242,0
3.985,1.073,0
3.986,-3.322,0
3.987,-4.603,0
3.988,-3.505,0
3.989,-4.603,0
3.99,-1.674,0
3.991,-0.758,0
3.992,-0.026,0
3.993,-2.223,0
3.994,-1.674,0
3.995,-1.124,0
3.996,-0.575,0
3.997,1.805,0
3.998,-3.322,0
3.999,-6.617,0
4,-2.223,0
4.001,-3.871,0
4.002,-0.575,0
4.003,-5.702,0
4.004,-1.124,0
4.005,-1.674,0
4.006,-0.026,0
4.007,-2.406,0
4.008,0.707,0
4.009,2.721,0
4.01,0.89,0
4.011,1.989,0
4.012,4.003,0
4.013,1.439,0
4.014,-1.124,0
4.015,-1.857,0
4.016,-2.04,0
4.017,-0.758,0
4.018,0.341,0
4.019,-2.955,0
4.02,-0.758,0
4.021,1.256,0
4.022,3.087,0
4.023,1.256,0
4.024,-0.758,0
4.025,-0.026,0
4.026,-0.758,0
4.027,0.341,0
4.028,-1.124,0
4.029,3.087,0
4.03,4.369,0
4.031,7.115,0
4.032,12.792,0
4.033,15.172,0
4.034,3.636,0
4.035,-4.603,0
4.036,-6.068,0
4.037,-7.35,0
4.038,-1.307,0
4.039,4.369,0
4.04,1.439,0
4.041,0.524,0
4.042,4.552,0
4.043,5.284,0
4.044,1.989,0
4.045,1.439,0
4.046,-0.209,0
4.047,0.157,0
4.048,0.524,0
4.049,0.157,0
4.05,0.524,0
4.051,-4.969,0
4.052,-8.815,0
4.053,-6.984,0
4.054,-3.871,0
4.055,-5.519,0
4.056,-3.138,0
4.057,-5.336,0
4.058,-3.322,0
4.059,-3.688,0
4.06,-3.322,0
4.061,1.256,0
4.062,0.707,0
4.063,0.157,0
4.064,1.805,0
4.065,2.172,0
4.066,-0.941,0
4.067,-3.688,0
4.068,-2.589,0
4.069,-5.153,0
4.07,-3.138,0
4.071,-4.969,0
4.072,-2.04,0
4.073,-3.138,0
4.074,-1.307,0
4.075,0.157,0
4.076,-1.124,0
4.077,0.707,0
4.078,0.157,0
4.079,3.087,0
4.08,4.552,0
4.081,6.383,0
4.082,11.876,0
4.083,6.566,0
4.084,4.735,0
4.085,12.975,0
4.086,2.721,0
4.087,-6.801,0
4.088,-0.758,0
4.089,0.341,0
4.09,-0.575,0
4.091,0.341,0
4.092,-2.04,0
4.093,-4.237,0
4.094,-3.688,0
4.095,0.707,0
4.096,2.355,0
4.097,2.721,0
4.098,4.003,0
4.099,1.256,0
4.1,0.157,0
4.101,-3.871,0
4.102,-7.167,0
4.103,-4.054,0
4.104,-3.688,0
4.105,-4.786,0
4.106,-0.758,0
4.107,-4.054,0
4.108,-2.772,0
4.109,-3.871,0
4.11,1.805,0
4.111,4.186,0
4.112,4.918,0
4.113,3.087,0
4.114,1.256,0
4.115,-1.49,0
4.116,3.087,0
4.117,-2.589,0
4.118,-3.322,0
4.119,-3.871,0
4.12,-3.322,0
4.121,-3.871,0
4.122,-0.575,0
4.123,-0.209,0
4.124,0.89,0
4.125,1.256,0
4.126,2.355,0
4.127,0.89,0
4.128,1.073,0
4.129,0.341,0
4.13,-0.758,0
4.131,-0.575,0
4.132,-3.871,0
4.133,3.087,0
4.134,8.031,0
4.135,7.115,0
4.136,11.144,0
4.137,11.876,0
4.138,5.651,0
4.139,6.383,0
4.14,13.341,0
4.141,12.426,0
4.142,16.454,0
4.143,21.764,0
4.144,21.215,0
4.145,24.327,0
4.146,18.102,0
4.147,14.073,0
4.148,10.228,0
4.149,9.679,0
4.15,1.439,0
4.151,-8.815,0
4.152,-23.829,0
4.153,-29.872,0
4.154,-31.703,0
4.155,-36.647,0
4.156,-38.112,0
4.157,-34.083,0
4.158,-20.533,0
4.159,-11.378,0
4.16,-9.73,0
4.161,-17.238,0
4.162,-29.506,0
4.163,-47.816,0
4.164,-69.789,0
4.165,-96.522,0
4.166,-121.42,0
4.167,-143.95,0
4.168,-146.88,0
4.169,-149.44,0
4.17,-147.06,0
4.171,-131.68,0
4.172,-117.58,0
4.173,-90.114,0
4.174,-54.591,0
4.175,17.003,0
4.176,129.98,0
4.177,144.99,0
4.178,158.54,0
4.179,171,0
4.18,159.82,0
4.181,108.56,0
4.182,107.09,0
4.183,116.43,0
4.184,108.01,0
4.185,100.32,0
4.186,93.358,0
4.187,112.22,0
4.188,95.006,0
4.189,89.879,0
4.19,85.118,0
4.191,72.301,0
4.192,76.146,0
4.193,79.625,0
4.194,89.147,0
4.195,80.358,0
4.196,61.681,0
4.197,39.708,0
4.198,19.017,0
4.199,16.454,0
4.2,9.313,0
4.201,15.905,0
4.202,1.805,0
4.203,-11.012,0
4.204,-19.252,0
4.205,-29.689,0
4.206,-33.717,0
4.207,-42.14,0
4.208,-41.041,0
4.209,-50.197,0
4.21,-53.676,0
4.211,-56.971,0
4.212,-56.056,0
4.213,-49.647,0
4.214,-48.915,0
4.215,-52.76,0
4.216,-52.211,0
4.217,-55.323,0
4.218,-61.549,0
4.219,-60.817,0
4.22,-58.619,0
4.221,-61.915,0
4.222,-54.957,0
4.223,-54.042,0
4.224,-50.013,0
4.225,-41.591,0
4.226,-35.914,0
4.227,-32.985,0
4.228,-26.576,0
4.229,-25.844,0
4.23,-25.111,0
4.231,-21.815,0
4.232,-18.702,0
4.233,-13.026,0
4.234,-13.575,0
4.235,-6.068,0
4.236,-4.969,0
4.237,4.186,0
4.238,5.284,0
4.239,4.186,0
4.24,-2.772,0
4.241,-0.026,0
4.242,-0.758,0
4.243,4.552,0
4.244,2.721,0
4.245,7.115,0
4.246,7.665,0
4.247,10.045,0
4.248,7.848,0
4.249,7.482,0
4.25,5.651,0
4.251,8.214,0
4.252,7.482,0
4.253,6.2,0
4.254,3.82,0
4.255,5.834,0
4.256,4.003,0
4.257,5.834,0
4.258,9.313,0
4.259,12.609,0
4.26,7.482,0
4.261,5.651,0
4.262,10.045,0
4.263,8.397,0
4.264,9.679,0
4.265,9.313,0
4.266,9.679,0
4.267,5.468,0
4.268,2.721,0
4.269,-0.575,0
4.27,1.622,0
4.271,2.721,0
4.272,3.82,0
4.273,5.651,0
4.274,5.834,0
4.275,4.552,0
4.276,7.482,0
4.277,4.003,0
4.278,1.805,0
4.279,3.82,0
4.28,9.496,0
4.281,7.115,0
4.282,6.383,0
4.283,1.805,0
4.284,0.89,0
4.285,1.439,0
4.286,7.665,0
4.287,18.468,0
4.288,14.073,0
4.289,4.552,0
4.29,-1.49,0
4.291,1.805,0
4.292,0.89,0
4.293,-0.026,0
4.294,-2.406,0
4.295,1.439,0
4.296,3.27,0
4.297,6.383,0
4.298,4.735,0
4.299,2.355,0
4.3,-0.758,0
4.301,0.341,0
4.302,-1.49,0
4.303,-0.392,0
4.304,-4.969,0
4.305,-1.674,0
4.306,-2.223,0
4.307,0.524,0
4.308,0.157,0
4.309,1.439,0
4.31,2.538,0
4.311,2.172,0
4.312,1.805,0
4.313,0.341,0
4.314,-1.49,0
4.315,-4.42,0
4.316,1.256,0
4.317,0.524,0
4.318,-1.674,0
4.319,-1.124,0
4.32,0.707,0
4.321,-6.617,0
4.322,-5.702,0
4.323,-6.617,0
4.324,-2.589,0
4.325,2.721,0
4.326,2.172,0
4.327,1.622,0
4.328,3.27,0
4.329,-0.026,0
4.33,4.186,0
4.331,-2.04,0
4.332,1.989,0
4.333,-3.322,0
4.334,2.904,0
4.335,3.087,0
4.336,-0.941,0
4.337,1.256,0
4.338,1.805,0
4.339,-1.307,0
4.34,7.115,0
4.341,-8.998,0
4.342,-11.195,0
4.343,-5.153,0
4.344,0.341,0
4.345,-1.307,0
4.346,0.157,0
4.347,-1.124,0
4.348,-4.603,0
4.349,-3.505,0
4.35,-0.575,0
4.351,0.341,0
4.352,-3.688,0
4.353,-4.42,0
4.354,-2.589,0
4.355,0.524,0
4.356,-4.603,0
4.357,-5.153,0
4.358,-0.758,0
4.359,4.369,0
4.36,1.073,0
4.361,2.904,0
4.362,1.256,0
4.363,1.622,0
4.364,1.256,0
4.365,-1.49,0
4.366,1.073,0
4.367,-4.42,0
4.368,-8.265,0
4.369,-4.969,0
4.37,-1.857,0
4.371,-4.603,0
4.372,0.89,0
4.373,-4.42,0
4.374,-3.871,0
4.375,-0.758,0
4.376,1.989,0
4.377,0.707,0
4.378,-0.575,0
4.379,-1.674,0
4.38,0.157,0
4.381,1.989,0
4.382,-0.026,0
4.383,-0.758,0
4.384,-0.026,0
4.385,-2.223,0
4.386,-6.434,0
4.387,-2.223,0
4.388,7.299,0
4.389,3.27,0
4.39,9.313,0
4.391,10.411,0
4.392,3.453,0
4.393,-4.969,0
4.394,-3.871,0
4.395,-0.941,0
4.396,-1.857,0
4.397,-2.589,0
4.398,-3.322,0
4.399,4.186,0
4.4,-2.772,0
4.401,-5.519,0
4.402,-4.786,0
4.403,-5.519,0
4.404,-6.068,0
4.405,-5.519,0
4.406,-3.871,0
4.407,-2.589,0
4.408,2.538,0
4.409,-0.758,0
4.41,3.636,0
4.411,5.284,0
4.412,4.918,0
4.413,2.721,0
4.414,3.087,0
4.415,0.524,0
4.416,0.89,0
4.417,-1.857,0
4.418,-2.955,0
4.419,-8.448,0
4.42,-4.603,0
4.421,-4.054,0
4.422,-2.223,0
4.423,-3.871,0
4.424,3.636,0
4.425,2.538,0
4.426,1.622,0
4.427,2.538,0
4.428,0.157,0
4.429,2.355,0
4.43,4.186,0
4.431,-0.209,0
4.432,1.439,0
4.433,-0.941,0
4.434,0.341,0
4.435,-5.885,0
4.436,-3.138,0
4.437,-3.505,0
4.438,-2.772,0
4.439,8.763,0
4.44,20.299,0
4.441,15.905,0
4.442,0.89,0
4.443,2.904,0
4.444,1.073,0
4.445,2.721,0
4.446,4.186,0
4.447,0.157,0
4.448,1.256,0
4.449,-4.42,0
4.45,-3.505,0
4.451,-0.758,0
4.452,-3.138,0
4.453,-0.941,0
4.454,-5.519,0
4.455,-6.068,0
4.456,-4.42,0
4.457,-1.124,0
4.458,1.073,0
4.459,3.087,0
4.46,1.256,0
4.461,6.017,0
4.462,4.186,0
4.463,5.834,0
4.464,6.2,0
4.465,3.087,0
4.466,-1.49,0
4.467,0.341,0
4.468,1.989,0
4.469,-0.392,0
4.47,-2.589,0
4.471,0.157,0
4.472,-1.674,0
4.473,0.89,0
4.474,-1.124,0
4.475,0.157,0
4.476,-1.124,0
4.477,-0.575,0
4.478,0.89,0
4.479,1.073,0
4.48,3.82,0
4.481,2.721,0
4.482,0.157,0
4.483,-0.575,0
4.484,-1.857,0
4.485,-1.124,0
4.486,-2.223,0
4.487,-2.772,0
4.488,-2.772,0
4.489,0.157,0
4.49,6.383,0
4.491,-2.04,0
4.492,1.256,0
4.493,0.341,0
4.494,1.256,0
4.495,3.636,0
4.496,4.369,0
4.497,-0.209,0
4.498,2.904,0
4.499,0.157,0
4.5,-3.138,0
4.501,-5.336,0
4.502,-2.589,0
4.503,-1.49,0
4.504,1.805,0
4.505,2.172,0
4.506,-3.505,0
4.507,-2.772,0
4.508,-2.04,0
4.509,8.214,0
4.51,-2.223,0
4.511,12.792,0
4.512,10.778,0
4.513,8.947,0
4.514,10.594,0
4.515,0.157,0
4.516,-1.124,0
4.517,-2.223,0
4.518,-3.322,0
4.519,-6.251,0
4.52,-7.167,0
4.521,-6.434,0
4.522,-8.632,0
4.523,-5.336,0
4.524,-5.885,0
4.525,-5.336,0
4.526,2.172,0
4.527,1.073,0
4.528,0.157,0
4.529,1.073,0
4.53,1.805,0
4.531,-3.505,0
4.532,-2.955,0
4.533,-3.505,0
4.534,-0.758,0
4.535,-3.138,0
4.536,-0.941,0
4.537,-5.519,0
4.538,-6.068,0
4.539,-2.772,0
4.54,-0.026,0
4.541,7.482,0
4.542,8.58,0
4.543,7.665,0
4.544,14.073,0
4.545,3.27,0
4.546,-1.124,0
4.547,-2.406,0
4.548,-3.505,0
4.549,-2.406,0
4.55,-3.322,0
4.551,-6.068,0
4.552,-5.336,0
4.553,-3.138,0
4.554,-4.969,0
4.555,-0.575,0
4.556,-3.322,0
4.557,-2.04,0
4.558,-6.251,0
4.559,-2.406,0
4.56,0.89,0
4.561,1.256,0
4.562,0.157,0
4.563,-1.674,0
4.564,0.89,0
4.565,3.636,0
4.566,4.735,0
4.567,2.904,0
4.568,-1.674,0
4.569,-6.251,0
4.57,-4.42,0
4.571,-3.871,0
4.572,-0.575,0
4.573,2.538,0
4.574,-1.307,0
4.575,-0.941,0
4.576,1.256,0
4.577,-0.758,0
4.578,-0.392,0
4.579,1.439,0
4.58,0.707,0
4.581,-1.124,0
4.582,0.157,0
4.583,-0.392,0
4.584,-2.772,0
4.585,-2.589,0
4.586,-2.772,0
4.587,-2.04,0
4.588,-1.857,0
4.589,-1.307,0
4.59,-1.307,0
4.591,-2.589,0
4.592,0.157,0
4.593,5.101,0
4.594,5.651,0
4.595,15.172,0
4.596,11.144,0
4.597,-0.026,0
4.598,-1.49,0
4.599,-0.209,0
4.6,-1.307,0
4.601,-11.561,0
4.602,0.707,0
4.603,-4.237,0
4.604,-8.632,0
4.605,-4.603,0
4.606,-8.082,0
4.607,-2.406,0
4.608,-1.49,0
4.609,-0.575,0
4.61,0.157,0
4.611,-2.04,0
4.612,-1.49,0
4.613,2.904,0
4.614,3.453,0
4.615,3.82,0
4.616,-1.307,0
4.617,3.27,0
4.618,-1.124,0
4.619,-1.674,0
4.62,-4.054,0
4.621,-8.265,0
4.622,-3.138,0
4.623,-3.688,0
4.624,0.707,0
4.625,-3.138,0
4.626,-1.857,0
4.627,2.355,0
4.628,2.904,0
4.629,1.622,0
4.63,1.256,0
4.631,3.27,0
4.632,-2.406,0
4.633,3.27,0
4.634,1.073,0
4.635,-2.223,0
4.636,-5.336,0
4.637,-4.786,0
4.638,-6.068,0
4.639,-5.702,0
4.64,-3.688,0
4.641,-2.04,0
4.642,3.636,0
4.643,16.088,0
4.644,17.919,0
4.645,12.975,0
4.646,5.468,0
4.647,1.439,0
4.648,2.538,0
4.649,1.439,0
4.65,-1.49,0
4.651,1.256,0
4.652,-6.251,0
4.653,-3.322,0
4.654,-6.068,0
4.655,-3.688,0
4.656,-1.49,0
4.657,-4.786,0
4.658,-5.336,0
4.659,-3.688,0
4.66,-2.406,0
4.661,1.805,0
4.662,1.256,0
4.663,4.552,0
4.664,0.341,0
4.665,4.186,0
4.666,-1.307,0
4.667,-2.04,0
4.668,-3.871,0
4.669,-8.265,0
4.67,0.157,0
4.671,-0.941,0
4.672,-4.237,0
4.673,-3.322,0
4.674,-0.575,0
4.675,1.805,0
4.676,-0.392,0
4.677,4.186,0
4.678,1.073,0
4.679,1.622,0
4.68,1.989,0
4.681,4.186,0
4.682,-0.392,0
4.683,-2.223,0
4.684,-3.871,0
4.685,-2.589,0
4.686,0.524,0
4.687,-2.223,0
4.688,-4.054,0
4.689,-5.153,0
4.69,-1.124,0
4.691,0.524,0
4.692,-0.575,0
4.693,-0.209,0
4.694,4.003,0
4.695,5.651,0
4.696,8.947,0
4.697,5.834,0
4.698,8.58,0
4.699,14.257,0
4.7,3.453,0
4.701,-4.054,0
4.702,-0.026,0
4.703,-6.068,0
4.704,-11.744,0
4.705,-4.786,0
4.706,-3.871,0
4.707,-6.251,0
4.708,-4.054,0
4.709,-2.223,0
4.71,-5.336,0
4.711,-0.209,0
4.712,-2.04,0
4.713,-1.49,0
4.714,0.157,0
4.715,2.538,0
4.716,2.904,0
4.717,4.918,0
4.718,-0.758,0
4.719,-3.138,0
4.72,-6.984,0
4.721,-5.153,0
4.722,-4.603,0
4.723,-1.857,0
4.724,-2.223,0
4.725,-4.42,0
4.726,-2.406,0
4.727,1.805,0
4.728,3.453,0
4.729,2.172,0
4.73,2.538,0
4.731,5.284,0
4.732,3.453,0
4.733,1.622,0
4.734,-0.392,0
4.735,-1.124,0
4.736,-1.857,0
4.737,-5.336,0
4.738,-4.969,0
4.739,-2.772,0
4.74,-1.674,0
4.741,0.157,0
4.742,-3.138,0
4.743,0.157,0
4.744,-0.941,0
4.745,0.157,0
4.746,1.989,0
4.747,-0.026,0
4.748,3.636,0
4.749,-0.941,0
4.75,8.58,0
4.751,4.552,0
4.752,1.073,0
4.753,-2.223,0
4.754,6.932,0
4.755,12.975,0
4.756,11.876,0
4.757,0.707,0
4.758,-3.688,0
4.759,-2.406,0
4.76,-1.307,0
4.761,-4.603,0
4.762,-1.674,0
4.763,1.073,0
4.764,6.749,0
4.765,1.439,0
4.766,-3.138,0
4.767,-6.251,0
4.768,-4.603,0
4.769,-4.969,0
4.77,-4.603,0
4.771,1.622,0
4.772,2.538,0
4.773,-3.138,0
4.774,-2.406,0
4.775,-0.575,0
4.776,-0.026,0
4.777,0.524,0
4.778,-2.772,0
4.779,-2.406,0
4.78,1.439,0
4.781,1.073,0
4.782,1.439,0
4.783,5.284,0
4.784,-0.209,0
4.785,0.524,0
4.786,-2.772,0
4.787,-2.223,0
4.788,-1.674,0
4.789,-0.392,0
4.79,1.805,0
4.791,-2.04,0
4.792,-4.42,0
4.793,2.538,0
4.794,3.087,0
4.795,-1.857,0
4.796,4.552,0
4.797,3.82,0
4.798,6.017,0
4.799,4.186,0
4.8,13.707,0
4.801,6.932,0
4.802,3.453,0
4.803,-2.223,0
4.804,-5.153,0
4.805,-2.406,0
4.806,-1.674,0
4.807,-2.406,0
4.808,-1.857,0
4.809,-3.688,0
4.81,0.157,0
4.811,0.524,0
4.812,-1.674,0
4.813,-2.04,0
4.814,-0.941,0
4.815,-0.575,0
4.816,-2.589,0
4.817,-5.702,0
4.818,-6.801,0
4.819,-4.969,0
4.82,-0.941,0
4.821,-2.223,0
4.822,0.89,0
4.823,-1.857,0
4.824,3.087,0
4.825,1.256,0
4.826,3.087,0
4.827,-0.758,0
4.828,-0.392,0
4.829,-0.758,0
4.83,1.989,0
4.831,1.622,0
4.832,-0.209,0
4.833,-0.392,0
4.834,-4.603,0
4.835,-8.998,0
4.836,-7.35,0
4.837,-8.632,0
4.838,-1.674,0
4.839,3.27,0
4.84,2.355,0
4.841,4.735,0
4.842,5.468,0
4.843,7.299,0
4.844,2.904,0
4.845,2.355,0
4.846,2.904,0
4.847,6.2,0
4.848,5.834,0
4.849,12.059,0
4.85,-0.026,0
4.851,-4.969,0
4.852,-3.505,0
4.853,-2.223,0
4.854,-5.702,0
4.855,-2.406,0
4.856,-1.49,0
4.857,-4.237,0
4.858,-0.209,0
4.859,1.989,0
4.86,2.538,0
4.861,3.087,0
4.862,2.538,0
4.863,3.82,0
4.864,3.453,0
4.865,2.355,0
4.866,0.524,0
4.867,-2.772,0
4.868,-2.406,0
4.869,-4.969,0
4.87,-3.138,0
4.871,-7.716,0
4.872,-1.49,0
4.873,-5.519,0
4.874,-7.716,0
4.875,-5.885,0
4.876,-0.209,0
4.877,0.524,0
4.878,-0.026,0
4.879,1.805,0
4.88,-0.941,0
4.881,-4.237,0
4.882,-2.955,0
4.883,1.622,0
4.884,-4.054,0
4.885,-0.209,0
4.886,-4.786,0
4.887,-2.955,0
4.888,-4.603,0
4.889,-4.969,0
4.89,-4.603,0
4.891,-2.589,0
4.892,-0.026,0
4.893,1.805,0
4.894,0.341,0
4.895,0.157,0
4.896,2.355,0
4.897,3.087,0
4.898,6.566,0
4.899,1.073,0
4.9,3.27,0
4.901,13.524,0
4.902,12.059,0
4.903,-5.702,0
4.904,1.439,0
4.905,-0.758,0
4.906,-2.772,0
4.907,-0.941,0
4.908,0.707,0
4.909,-0.758,0
4.91,-2.04,0
4.911,-0.941,0
4.912,-2.04,0
4.913,-1.124,0
4.914,3.453,0
4.915,2.721,0
4.916,-2.589,0
4.917,-2.04,0
4.918,-3.871,0
4.919,-3.322,0
4.92,-5.702,0
4.921,-0.575,0
4.922,-2.406,0
4.923,-5.519,0
4.924,-2.772,0
4.925,2.721,0
4.926,0.524,0
4.927,-1.307,0
4.928,4.369,0
4.929,5.101,0
4.93,1.805,0
4.931,1.256,0
4.932,0.707,0
4.933,0.341,0
4.934,-0.941,0
4.935,0.157,0
4.936,-5.519,0
4.937,-4.786,0
4.938,-4.054,0
4.939,-4.603,0
4.94,-1.49,0
4.941,-3.138,0
4.942,-0.758,0
4.943,2.355,0
4.944,-0.392,0
4.945,5.284,0
4.946,7.665,0
4.947,-4.237,0
4.948,1.073,0
4.949,7.299,0
4.95,3.27,0
4.951,5.468,0
4.952,-3.505,0
4.953,7.665,0
4.954,3.27,0
4.955,-3.505,0
4.956,-2.406,0
4.957,-1.307,0
4.958,3.636,0
4.959,4.552,0
4.96,8.58,0
4.961,12.426,0
4.962,17.003,0
4.963,22.679,0
4.964,21.947,0
4.965,26.525,0
4.966,20.848,0
4.967,18.651,0
4.968,15.355,0
4.969,8.397,0
4.97,3.82,0
4.971,6.2,0
4.972,-5.336,0
4.973,-16.871,0
4.974,-18.336,0
4.975,-25.111,0
4.976,-28.59,0
4.977,-34.266,0
4.978,-37.196,0
4.979,-23.28,0
4.98,-5.153,0
4.981,-2.772,0
4.982,-4.969,0
4.983,-23.097,0
4.984,-35.182,0
4.985,-63.929,0
4.986,-83.522,0
4.987,-115.75,0
4.988,-137.35,0
4.989,-141.2,0
4.99,-151.82,0
4.991,-154.93,0
4.992,-140.1,0
4.993,-121.42,0
4.994,-99.452,0
4.995,-66.859,0
4.996,-1.857,0
4.997,82.189,0
4.998,148.84,0
4.999,160.01,0
5,149.75,0
5.001,121.74,0
5.002,130.16,0
5.003,107.09,0
5.004,100.13,0
5.005,93.907,0
5.006,88.231,0
5.007,103.8,0
5.008,108.56,0
5.009,95.739,0
5.01,84.02,0
5.011,66.259,0
5.012,69.371,0
5.013,78.16,0
5.014,86.034,0
5.015,78.893,0
5.016,63.512,0
5.017,41.356,0
5.018,26.525,0
5.019,18.651,0
5.02,16.271,0
5.021,18.468,0
5.022,8.397,0
5.023,2.904,0
5.024,-2.04,0
5.025,-12.477,0
5.026,-24.745,0
5.027,-32.985,0
5.028,-34.449,0
5.029,-38.478,0
5.03,-46.901,0
5.031,-47.999,0
5.032,-50.929,0
5.033,-50.013,0
5.034,-45.985,0
5.035,-57.521,0
5.036,-59.169,0
5.037,-57.704,0
5.038,-58.986,0
5.039,-57.887,0
5.04,-58.986,0
5.041,-56.056,0
5.042,-56.971,0
5.043,-54.591,0
5.044,-49.281,0
5.045,-47.45,0
5.046,-37.928,0
5.047,-33.9,0
5.048,-30.421,0
5.049,-29.139,0
5.05,-25.844,0
5.051,-16.688,0
5.052,-15.59,0
5.053,-5.336,0
5.054,-1.307,0
5.055,-7.35,0
5.056,-10.646,0
5.057,-9.73,0
5.058,-8.815,0
5.059,-3.138,0
5.06,-2.406,0
5.061,3.82,0
5.062,1.439,0
5.063,6.749,0
5.064,3.453,0
5.065,9.13,0
5.066,6.932,0
5.067,7.482,0
5.068,1.805,0
5.069,1.073,0
5.07,4.369,0
5.071,3.82,0
5.072,3.27,0
5.073,10.778,0
5.074,11.876,0
5.075,10.961,0
5.076,6.383,0
5.077,2.355,0
5.078,6.2,0
5.079,13.707,0
5.08,10.778,0
5.081,9.862,0
5.082,9.13,0
5.083,5.284,0
5.084,5.834,0
5.085,-1.124,0
5.086,-0.209,0
5.087,3.82,0
5.088,7.665,0
5.089,7.115,0
5.09,8.947,0
5.091,6.2,0
5.092,6.566,0
5.093,5.284,0
5.094,5.651,0
5.095,6.017,0
5.096,4.918,0
5.097,5.101,0
5.098,5.834,0
5.099,4.552,0
5.1,3.087,0
5.101,-0.392,0
5.102,-2.772,0
5.103,4.186,0
5.104,5.101,0
5.105,6.017,0
5.106,5.284,0
5.107,7.482,0
5.108,5.651,0
5.109,-3.871,0
5.11,11.144,0
5.111,9.13,0
5.112,-0.026,0
5.113,1.622,0
5.114,0.157,0
5.115,-1.124,0
5.116,-2.223,0
5.117,-5.519,0
5.118,-2.589,0
5.119,-1.674,0
5.12,-2.406,0
5.121,-3.138,0
5.122,-1.307,0
5.123,-4.42,0
5.124,-0.575,0
5.125,-0.941,0
5.126,2.172,0
5.127,4.186,0
5.128,1.622,0
5.129,2.721,0
5.13,3.453,0
5.131,2.172,0
5.132,0.89,0
5.133,-0.575,0
5.134,-2.04,0
5.135,-1.857,0
5.136,-4.603,0
5.137,-4.237,0
5.138,-2.406,0
5.139,-5.153,0
5.14,-1.674,0
5.141,-0.392,0
5.142,4.186,0
5.143,1.073,0
5.144,0.524,0
5.145,2.904,0
5.146,1.622,0
5.147,0.524,0
5.148,0.89,0
5.149,-0.209,0
5.15,-2.955,0
5.151,-0.575,0
5.152,1.989,0
5.153,7.482,0
5.154,3.636,0
5.155,1.805,0
5.156,10.045,0
5.157,11.144,0
5.158,4.186,0
5.159,-0.392,0
5.16,0.341,0
5.161,-3.505,0
5.162,-0.209,0
5.163,1.622,0
5.164,-0.026,0
5.165,-1.307,0
5.166,-4.42,0
5.167,1.073,0
5.168,-1.124,0
5.169,-5.702,0
5.17,-5.153,0
5.171,-6.801,0
5.172,-1.307,0
5.173,-0.575,0
5.174,-1.124,0
5.175,-0.575,0
5.176,-2.223,0
5.177,-1.857,0
5.178,0.341,0
5.179,4.186,0
5.18,2.904,0
5.181,0.707,0
5.182,-2.04,0
5.183,-4.603,0
5.184,0.89,0
5.185,-2.955,0
5.186,-4.786,0
5.187,-2.955,0
5.188,-2.406,0
5.189,-1.124,0
5.19,1.073,0
5.191,2.172,0
5.192,0.341,0
5.193,-2.955,0
5.194,-0.209,0
5.195,0.89,0
5.196,-0.941,0
5.197,1.073,0
5.198,-2.589,0
5.199,-2.955,0
5.2,-3.322,0
5.201,-2.955,0
5.202,-2.04,0
5.203,-4.603,0
5.204,0.89,0
5.205,1.622,0
5.206,7.848,0
5.207,5.468,0
5.208,-6.068,0
5.209,-4.42,0
5.21,-0.026,0
5.211,1.256,0
5.212,4.735,0
5.213,3.636,0
5.214,0.707,0
5.215,-5.702,0
5.216,-4.969,0
5.217,0.341,0
5.218,-5.885,0
5.219,-3.505,0
5.22,-4.237,0
5.221,-2.406,0
5.222,-2.955,0
5.223,2.172,0
5.224,-1.124,0
5.225,0.707,0
5.226,2.355,0
5.227,-0.026,0
5.228,2.172,0
5.229,1.073,0
5.23,1.439,0
5.231,-1.124,0
5.232,2.904,0
5.233,-0.941,0
5.234,-5.519,0
5.235,-3.688,0
5.236,-0.941,0
5.237,-2.223,0
5.238,0.89,0
5.239,-0.209,0
5.24,4.003,0
5.241,9.13,0
5.242,-1.124,0
5.243,0.341,0
5.244,-0.941,0
5.245,0.157,0
5.246,1.256,0
5.247,2.172,0
5.248,1.256,0
5.249,-2.772,0
5.25,-2.04,0
5.251,-1.49,0
5.252,-0.941,0
5.253,-3.505,0
5.254,-2.955,0
5.255,4.552,0
5.256,5.651,0
5.257,12.609,0
5.258,11.693,0
5.259,4.186,0
5.26,1.256,0
5.261,0.341,0
5.262,-3.688,0
5.263,1.622,0
5.264,-0.209,0
5.265,0.341,0
5.266,-4.786,0
5.267,-2.955,0
5.268,-3.505,0
5.269,-4.054,0
5.27,-2.772,0
5.271,-0.575,0
5.272,-2.589,0
5.273,-2.223,0
5.274,-1.124,0
5.275,-0.392,0
5.276,-4.603,0
5.277,3.636,0
5.278,9.313,0
5.279,4.369,0
5.28,1.622,0
5.281,5.651,0
5.282,3.453,0
5.283,0.157,0
5.284,0.707,0
5.285,-3.138,0
5.286,-5.519,0
5.287,-3.322,0
5.288,-1.307,0
5.289,0.524,0
5.29,-2.772,0
5.291,3.453,0
5.292,4.369,0
5.293,5.101,0
5.294,1.256,0
5.295,1.805,0
5.296,2.355,0
5.297,-0.392,0
5.298,0.89,0
5.299,-0.392,0
5.3,-4.237,0
5.301,-3.871,0
5.302,-3.505,0
5.303,-4.603,0
5.304,-2.04,0
5.305,2.172,0
5.306,9.496,0
5.307,6.566,0
5.308,3.82,0
5.309,3.087,0
5.31,13.158,0
5.311,6.383,0
5.312,2.904,0
5.313,4.003,0
5.314,1.073,0
5.315,-1.674,0
5.316,-5.702,0
5.317,-3.505,0
5.318,-5.336,0
5.319,-4.786,0
5.32,-7.533,0
5.321,-0.026,0
5.322,-1.124,0
5.323,-2.04,0
5.324,2.538,0
5.325,-1.49,0
5.326,2.355,0
5.327,-0.941,0
5.328,-0.392,0
5.329,-2.04,0
5.33,-1.674,0
5.331,0.524,0
5.332,-1.49,0
5.333,-1.857,0
5.334,-0.758,0
5.335,-4.786,0
5.336,-0.941,0
5.337,-3.322,0
5.338,0.89,0
5.339,-2.955,0
5.34,-2.589,0
5.341,0.524,0
5.342,-0.575,0
5.343,0.524,0
5.344,-0.575,0
5.345,0.89,0
5.346,-0.392,0
5.347,-2.223,0
5.348,-2.772,0
5.349,-5.153,0
5.35,-0.575,0
5.351,-5.153,0
5.352,-4.603,0
5.353,-7.35,0
5.354,-1.857,0
5.355,-1.307,0
5.356,-0.575,0
5.357,5.651,0
5.358,14.806,0
5.359,13.707,0
5.36,5.834,0
5.361,-1.124,0
5.362,5.284,0
5.363,2.904,0
5.364,0.707,0
5.365,0.157,0
5.366,-2.955,0
5.367,-3.505,0
5.368,-4.786,0
5.369,-6.984,0
5.37,-4.237,0
5.371,-2.406,0
5.372,-4.237,0
5.373,-4.054,0
5.374,-1.49,0
5.375,-1.857,0
5.376,-2.589,0
5.377,-5.702,0
5.378,0.524,0
5.379,-0.392,0
5.38,3.636,0
5.381,1.439,0
5.382,1.989,0
5.383,-3.688,0
5.384,-1.49,0
5.385,-3.322,0
5.386,-1.49,0
5.387,-0.941,0
5.388,-3.322,0
5.389,0.89,0
5.39,1.439,0
5.391,-3.138,0
5.392,-0.026,0
5.393,0.524,0
5.394,-2.772,0
5.395,0.341,0
5.396,-0.758,0
5.397,3.453,0
5.398,1.805,0
5.399,3.087,0
5.4,-0.026,0
5.401,-3.871,0
5.402,-5.153,0
5.403,-3.871,0
5.404,-2.772,0
5.405,-2.406,0
5.406,-2.772,0
5.407,1.256,0
5.408,8.763,0
5.409,5.468,0
5.41,4.552,0
5.411,10.961,0
5.412,6.932,0
5.413,-4.603,0
5.414,0.341,0
5.415,-1.124,0
5.416,-2.406,0
5.417,-1.307,0
5.418,-2.406,0
5.419,-3.322,0
5.42,-6.068,0
5.421,-3.688,0
5.422,-2.955,0
5.423,-3.505,0
5.424,-2.955,0
5.425,-3.505,0
5.426,-4.786,0
5.427,1.256,0
5.428,-1.124,0
5.429,4.186,0
5.43,6.017,0
5.431,4.186,0
5.432,0.341,0
5.433,-2.04,0
5.434,-5.153,0
5.435,-4.054,0
5.436,-6.617,0
5.437,-2.589,0
5.438,0.707,0
5.439,-0.575,0
5.44,-1.674,0
5.441,-1.307,0
5.442,-0.209,0
5.443,4.369,0
5.444,1.073,0
5.445,5.468,0
5.446,0.341,0
5.447,2.172,0
5.448,2.721,0
5.449,-1.124,0
5.45,0.157,0
5.451,-0.209,0
5.452,-4.054,0
5.453,-5.336,0
5.454,-4.969,0
5.455,-3.871,0
5.456,1.805,0
5.457,1.622,0
5.458,-4.054,0
5.459,7.482,0
5.46,2.538,0
5.461,16.088,0
5.462,14.257,0
5.463,9.313,0
5.464,-1.124,0
5.465,0.157,0
5.466,-3.322,0
5.467,-4.42,0
5.468,-5.336,0
5.469,-4.42,0
5.47,-3.688,0
5.471,-2.955,0
5.472,-4.786,0
5.473,-2.955,0
5.474,-3.505,0
5.475,-2.223,0
5.476,-0.026,0
5.477,1.989,0
5.478,3.087,0
5.479,1.989,0
5.48,5.284,0
5.481,0.157,0
5.482,1.989,0
5.483,-2.406,0
5.484,-1.857,0
5.485,-2.223,0
5.486,4.735,0
5.487,-0.209,0
5.488,-8.632,0
5.489,-5.336,0
5.49,-0.392,0
5.491,-1.307,0
5.492,-0.575,0
5.493,0.157,0
5.494,0.707,0
5.495,1.256,0
5.496,1.805,0
5.497,3.087,0
5.498,0.89,0
5.499,1.989,0
5.5,-1.49,0
5.501,-1.124,0
5.502,-3.138,0
5.503,-6.617,0
5.504,-1.49,0
5.505,-0.941,0
5.506,-5.336,0
5.507,-3.688,0
5.508,4.552,0
5.509,1.256,0
5.51,8.214,0
5.511,-2.955,0
5.512,13.524,0
5.513,11.327,0
5.514,-2.772,0
5.515,-4.603,0
5.516,-2.955,0
5.517,-7.35,0
5.518,-3.322,0
5.519,-2.223,0
5.52,-3.322,0
5.521,1.622,0
5.522,2.538,0
5.523,0.157,0
5.524,2.355,0
5.525,0.524,0
5.526,-0.026,0
5.527,-5.153,0
5.528,-1.857,0
5.529,3.82,0
5.53,3.087,0
5.531,-3.138,0
5.532,-2.406,0
5.533,1.439,0
5.534,-1.857,0
5.535,-2.406,0
5.536,-2.955,0
5.537,-1.674,0
5.538,-3.871,0
5.539,-1.124,0
5.54,-0.758,0
5.541,-1.857,0
5.542,0.89,0
5.543,1.256,0
5.544,0.89,0
5.545,0.157,0
5.546,-1.124,0
5.547,2.904,0
5.548,0.157,0
5.549,0.524,0
5.55,-1.674,0
5.551,-2.772,0
5.552,-0.941,0
5.553,-4.237,0
5.554,-0.392,0
5.555,-1.674,0
5.556,-3.871,0
5.557,-1.124,0
5.558,-0.026,0
5.559,-0.575,0
5.56,-1.674,0
5.561,2.355,0
5.562,6.2,0
5.563,2.904,0
5.564,9.862,0
5.565,4.918,0
5.566,-3.505,0
5.567,-0.209,0
5.568,-5.153,0
5.569,-2.406,0
5.57,-0.026,0
5.571,-2.223,0
5.572,-1.674,0
5.573,-2.223,0
5.574,-1.674,0
5.575,-2.04,0
5.576,0.157,0
5.577,1.256,0
5.578,0.157,0
5.579,1.256,0
5.58,1.073,0
5.581,-3.138,0
5.582,1.256,0
5.583,-0.392,0
5.584,-6.984,0
5.585,-2.406,0
5.586,-4.786,0
5.587,-4.054,0
5.588,-5.885,0
5.589,-4.054,0
5.59,3.27,0
5.591,0.341,0
5.592,-0.575,0
5.593,-1.307,0
5.594,-2.04,0
5.595,1.256,0
5.596,0.707,0
5.597,3.453,0
5.598,2.172,0
5.599,1.805,0
5.6,0.707,0
5.601,-3.505,0
5.602,-0.758,0
5.603,-2.04,0
5.604,-5.153,0
5.605,-4.786,0
5.606,-0.575,0
5.607,-0.026,0
5.608,-0.392,0
5.609,2.721,0
5.61,3.82,0
5.611,-0.758,0
5.612,8.763,0
5.613,4.735,0
5.614,18.285,0
5.615,12.792,0
5.616,4.552,0
5.617,-2.955,0
5.618,1.073,0
5.619,-4.969,0
5.62,-1.674,0
5.621,-0.758,0
5.622,-1.674,0
5.623,-5.702,0
5.624,-4.969,0
5.625,-4.42,0
5.626,-3.871,0
5.627,-1.124,0
5.628,1.256,0
5.629,4.369,0
5.63,5.468,0
5.631,0.524,0
5.632,5.101,0
5.633,-1.857,0
5.634,0.89,0
5.635,0.157,0
5.636,-6.801,0
5.637,-7.716,0
5.638,-8.448,0
5.639,-1.49,0
5.64,-0.575,0
5.641,-1.307,0
5.642,-3.505,0
5.643,-0.209,0
5.644,-0.758,0
5.645,1.989,0
5.646,3.27,0
5.647,2.904,0
5.648,2.538,0
5.649,-0.026,0
5.65,-2.589,0
5.651,-1.857,0
5.652,-2.04,0
5.653,-4.969,0
5.654,-2.406,0
5.655,0.89,0
5.656,-0.209,0
5.657,2.355,0
5.658,-1.674,0
5.659,-2.955,0
5.66,-5.153,0
5.661,1.622,0
5.662,6.2,0
5.663,15.721,0
5.664,8.947,0
5.665,7.848,0
5.666,6.749,0
5.667,3.82,0
5.668,8.397,0
5.669,6.017,0
5.67,-4.054,0
5.671,-5.336,0
5.672,-4.237,0
5.673,-3.138,0
5.674,-4.054,0
5.675,0.524,0
5.676,-0.209,0
5.677,0.524,0
5.678,1.073,0
5.679,-2.04,0
5.68,-0.392,0
5.681,0.89,0
5.682,-1.307,0
5.683,-0.941,0
5.684,-6.617,0
5.685,-4.237,0
5.686,-4.969,0
5.687,-4.42,0
5.688,-0.026,0
5.689,-2.772,0
5.69,0.524,0
5.691,-0.758,0
5.692,-2.772,0
5.693,-1.674,0
5.694,-2.04,0
5.695,0.707,0
5.696,-0.392,0
5.697,1.439,0
5.698,5.468,0
5.699,4.918,0
5.7,-0.575,0
5.701,0.157,0
5.702,-4.42,0
5.703,-3.871,0
5.704,-0.026,0
5.705,-3.322,0
5.706,-4.603,0
5.707,-1.857,0
5.708,-0.758,0
5.709,-1.124,0
5.71,0.341,0
5.711,0.157,0
5.712,0.89,0
5.713,2.172,0
5.714,-1.307,0
5.715,6.2,0
5.716,9.496,0
5.717,4.552,0
5.718,3.636,0
5.719,-0.392,0
5.72,3.453,0
5.721,-6.801,0
5.722,9.679,0
5.723,-1.307,0
5.724,-3.322,0
5.725,-5.153,0
5.726,-3.505,0
5.727,-4.969,0
5.728,-6.251,0
5.729,-2.772,0
5.73,0.524,0
5.731,1.439,0
5.732,11.693,0
5.733,7.665,0
5.734,-0.758,0
5.735,-4.054,0
5.736,-1.124,0
5.737,-3.871,0
5.738,-6.251,0
5.739,-4.054,0
5.74,-2.223,0
5.741,-6.617,0
5.742,-3.871,0
5.743,-0.575,0
5.744,1.622,0
5.745,1.989,0
5.746,1.622,0
5.747,-0.209,0
5.748,-0.392,0
5.749,3.27,0
5.75,1.989,0
5.751,0.707,0
5.752,0.341,0
5.753,-1.49,0
5.754,3.27,0
5.755,3.82,0
5.756,-0.026,0
5.757,-1.307,0
5.758,-2.589,0
5.759,-2.955,0
5.76,2.721,0
5.761,6.749,0
5.762,2.904,0
5.763,-0.575,0
5.764,-2.406,0
5.765,5.834,0
5.766,0.157,0
5.767,1.073,0
5.768,5.651,0
5.769,1.622,0
5.77,-0.575,0
5.771,-8.082,0
5.772,-5.153,0
5.773,-7.899,0
5.774,-5.519,0
5.775,-6.251,0
5.776,-2.955,0
5.777,-2.406,0
5.778,-4.054,0
5.779,-0.758,0
5.78,2.355,0
5.781,-1.49,0
5.782,1.805,0
5.783,3.087,0
5.784,-3.138,0
5.785,-2.223,0
5.786,0.157,0
5.787,-3.688,0
5.788,-4.237,0
5.789,1.439,0
5.79,-0.758,0
5.791,-0.209,0
5.792,-3.322,0
5.793,-1.674,0
5.794,0.707,0
5.795,3.82,0
5.796,4.918,0
5.797,3.82,0
5.798,2.721,0
5.799,1.989,0
5.8,-2.223,0
5.801,-6.617,0
5.802,-1.49,0
5.803,-6.068,0
5.804,-4.237,0
5.805,-0.392,0
5.806,0.89,0
5.807,-2.223,0
5.808,-1.124,0
5.809,1.439,0
5.81,0.341,0
5.811,4.918,0
5.812,4.369,0
5.813,1.256,0
5.814,0.89,0
5.815,1.439,0
5.816,2.721,0
5.817,4.918,0
5.818,1.073,0
5.819,-1.307,0
5.82,0.89,0
5.821,7.115,0
5.822,-1.307,0
5.823,-9.181,0
5.824,-0.026,0
5.825,-1.124,0
5.826,-0.026,0
5.827,-4.969,0
5.828,1.439,0
5.829,3.82,0
5.83,4.552,0
5.831,2.721,0
5.832,-0.392,0
5.833,-5.519,0
5.834,-4.969,0
5.835,-6.801,0
5.836,-8.448,0
5.837,-6.068,0
5.838,-3.871,0
5.839,-4.969,0
5.84,-2.406,0
5.841,-2.04,0
5.842,1.256,0
5.843,-0.941,0
5.844,2.904,0
5.845,4.186,0
5.846,5.468,0
5.847,5.834,0
5.848,8.397,0
5.849,10.961,0
5.85,11.144,0
5.851,14.806,0
5.852,13.524,0
5.853,14.806,0
5.854,21.031,0
5.855,20.116,0
5.856,17.736,0
5.857,15.538,0
5.858,10.961,0
5.859,7.848,0
5.86,7.299,0
5.861,-0.209,0
5.862,-12.66,0
5.863,-17.604,0
5.864,-21.998,0
5.865,-29.139,0
5.866,-38.661,0
5.867,-25.111,0
5.868,-23.28,0
5.869,1.622,0
5.87,5.101,0
5.871,-4.42,0
5.872,-19.252,0
5.873,-37.928,0
5.874,-59.901,0
5.875,-86.635,0
5.876,-104.4,0
5.877,-133.69,0
5.878,-137.54,0
5.879,-141.02,0
5.88,-144.13,0
5.881,-135.34,0
5.882,-127.47,0
5.883,-110.62,0
5.884,-77.479,0
5.885,-5.885,0
5.886,86.583,0
5.887,148.84,0
5.888,160.01,0
5.889,149.75,0
5.89,140.42,0
5.891,115.15,0
5.892,107.46,0
5.893,100.5,0
5.894,94.274,0
5.895,88.597,0
5.896,83.47,0
5.897,88.231,0
5.898,84.02,0
5.899,87.865,0
5.9,77.245,0
5.901,61.132,0
5.902,69.921,0
5.903,72.484,0
5.904,89.33,0
5.905,91.527,0
5.906,77.428,0
5.907,60.948,0
5.908,36.595,0
5.909,33.483,0
5.91,24.694,0
5.911,27.257,0
5.912,20.116,0
5.913,13.524,0
5.914,3.453,0
5.915,-13.026,0
5.916,-26.21,0
5.917,-37.196,0
5.918,-27.125,0
5.919,-28.956,0
5.92,-30.604,0
5.921,-47.084,0
5.922,-53.676,0
5.923,-55.69,0
5.924,-53.859,0
5.925,-55.507,0
5.926,-54.042,0
5.927,-55.323,0
5.928,-56.422,0
5.929,-55.323,0
5.93,-56.239,0
5.931,-55.323,0
5.932,-51.295,0
5.933,-58.253,0
5.934,-49.83,0
5.935,-48.732,0
5.936,-43.788,0
5.937,-37.379,0
5.938,-34.999,0
5.939,-31.154,0
5.94,-27.858,0
5.941,-23.463,0
5.942,-18.336,0
5.943,-17.787,0
5.944,-14.674,0
5.945,-9.547,0
5.946,-7.716,0
5.947,-4.603,0
5.948,-5.153,0
5.949,-2.772,0
5.95,-4.054,0
5.951,-2.04,0
5.952,-1.674,0
5.953,0.157,0
5.954,1.622,0
5.955,5.834,0
5.956,6.383,0
5.957,4.735,0
5.958,2.355,0
5.959,3.636,0
5.96,8.214,0
5.961,6.383,0
5.962,6.932,0
5.963,10.228,0
5.964,8.031,0
5.965,7.665,0
5.966,6.566,0
5.967,7.482,0
5.968,2.721,0
5.969,12.242,0
5.97,-2.772,0
5.971,15.355,0
5.972,8.214,0
5.973,6.017,0
5.974,8.031,0
5.975,6.2,0
5.976,7.848,0
5.977,6.383,0
5.978,13.158,0
5.979,14.257,0
5.98,4.003,0
5.981,2.721,0
5.982,1.622,0
5.983,2.721,0
5.984,3.636,0
5.985,-0.941,0
5.986,3.087,0
5.987,-2.223,0
5.988,-0.392,0
5.989,1.439,0
5.99,1.989,0
5.991,2.355,0
5.992,2.721,0
5.993,4.735,0
5.994,3.636,0
5.995,5.468,0
5.996,7.482,0
5.997,4.369,0
5.998,4.003,0
5.999,5.101,0
6,4.735,0
6.001,1.439,0
6.002,-1.674,0
6.003,-3.688,0
6.004,-0.209,0
6.005,1.073,0
6.006,1.439,0
6.007,-1.124,0
6.008,-0.026,0
6.009,1.439,0
6.01,4.003,0
6.011,0.707,0
6.012,1.805,0
6.013,-3.138,0
6.014,1.439,0
6.015,3.27,0
6.016,1.622,0
6.017,4.918,0
6.018,-0.575,0
6.019,-0.941,0
6.02,5.284,0
6.021,4.369,0
6.022,10.045,0
6.023,13.89,0
6.024,9.313,0
6.025,-0.209,0
6.026,-6.984,0
6.027,-0.941,0
6.028,-4.237,0
6.029,0.707,0
6.03,-2.04,0
6.031,-1.307,0
6.032,-0.575,0
6.033,-2.406,0
6.034,-2.955,0
6.035,-6.801,0
6.036,-7.167,0
6.037,-6.801,0
6.038,-4.054,0
6.039,-2.955,0
6.04,-1.124,0
6.041,-0.392,0
6.042,-1.124,0
6.043,0.707,0
6.044,2.172,0
6.045,1.622,0
6.046,1.805,0
6.047,3.087,0
6.048,1.073,0
6.049,-0.026,0
6.05,1.989,0
6.051,0.707,0
6.052,-1.124,0
6.053,-4.237,0
6.054,1.989,0
6.055,-2.589,0
6.056,-1.857,0
6.057,-2.589,0
6.058,0.707,0
6.059,2.538,0
6.06,-0.209,0
6.061,2.172,0
6.062,5.284,0
6.063,2.538,0
6.064,-1.674,0
6.065,1.073,0
6.066,-4.42,0
6.067,-3.688,0
6.068,-8.265,0
6.069,-7.899,0
6.07,-6.068,0
6.071,2.355,0
6.072,5.834,0
6.073,6.932,0
6.074,13.89,0
6.075,9.313,0
6.076,0.157,0
6.077,-3.322,0
6.078,-2.223,0
6.079,-5.153,0
6.08,-2.406,0
6.081,-0.026,0
6.082,-0.758,0
6.083,-1.307,0
6.084,-5.702,0
6.085,-5.153,0
6.086,-6.434,0
6.087,-5.153,0
6.088,1.073,0
6.089,-5.336,0
6.09,-2.955,0
6.091,-3.688,0
6.092,-1.857,0
6.093,-0.026,0
6.094,1.622,0
6.095,1.989,0
6.096,-0.209,0
6.097,-0.575,0
6.098,-1.674,0
6.099,-0.575,0
6.1,-0.392,0
6.101,0.341,0
6.102,-3.688,0
6.103,-3.138,0
6.104,-2.772,0
6.105,-1.49,0
6.106,1.256,0
6.107,0.89,0
6.108,-1.674,0
6.109,1.073,0
6.11,-0.758,0
6.111,-1.124,0
6.112,-0.392,0
6.113,-0.575,0
6.114,-0.392,0
6.115,3.087,0
6.116,1.805,0
6.117,1.439,0
6.118,-4.786,0
6.119,-0.209,0
6.12,-1.307,0
6.121,-0.575,0
6.122,10.961,0
6.123,6.017,0
6.124,13.524,0
6.125,4.003,0
6.126,-12.111,0
6.127,-1.124,0
6.128,-3.138,0
6.129,2.355,0
6.13,0.707,0
6.131,-0.758,0
6.132,-4.786,0
6.133,-3.688,0
6.134,-0.392,0
6.135,-1.307,0
6.136,-4.054,0
6.137,-6.434,0
6.138,-4.237,0
6.139,-4.786,0
6.14,-2.955,0
6.141,-2.406,0
6.142,-1.124,0
6.143,1.989,0
6.144,1.622,0
6.145,0.524,0
6.146,0.89,0
6.147,2.355,0
6.148,-1.857,0
6.149,2.538,0
6.15,1.989,0
6.151,-3.505,0
6.152,-5.702,0
6.153,-5.153,0
6.154,-3.322,0
6.155,-1.674,0
6.156,2.904,0
6.157,3.453,0
6.158,1.805,0
6.159,5.101,0
6.16,1.989,0
6.161,0.89,0
6.162,1.256,0
6.163,1.622,0
6.164,1.805,0
6.165,-1.307,0
6.166,0.707,0
6.167,-2.772,0
6.168,-5.885,0
6.169,-3.138,0
6.17,0.341,0
6.171,-2.04,0
6.172,-1.674,0
6.173,4.552,0
6.174,7.299,0
6.175,18.102,0
6.176,10.594,0
6.177,6.566,0
6.178,7.665,0
6.179,13.341,0
6.18,12.426,0
6.181,-1.49,0
6.182,0.524,0
6.183,-1.307,0
6.184,-2.955,0
6.185,-7.35,0
6.186,-3.322,0
6.187,-2.223,0
6.188,-5.519,0
6.189,-2.589,0
6.19,-1.674,0
6.191,-2.406,0
6.192,1.439,0
6.193,3.27,0
6.194,-1.124,0
6.195,2.721,0
6.196,5.101,0
6.197,1.989,0
6.198,3.087,0
6.199,-0.392,0
6.2,-1.674,0
6.201,-4.42,0
6.202,-4.786,0
6.203,-4.42,0
6.204,0.157,0
6.205,-1.674,0
6.206,-1.124,0
6.207,-1.674,0
6.208,0.707,0
6.209,0.341,0
6.21,-0.026,0
6.211,5.651,0
6.212,4.918,0
6.213,4.186,0
6.214,2.355,0
6.215,-0.758,0
6.216,-4.603,0
6.217,-3.322,0
6.218,0.89,0
6.219,1.439,0
6.22,-0.941,0
6.221,-3.138,0
6.222,-2.04,0
6.223,-1.674,0
6.224,3.27,0
6.225,1.439,0
6.226,0.89,0
6.227,-1.857,0
6.228,0.524,0
6.229,7.482,0
6.23,6.566,0
6.231,-7.35,0
6.232,-1.307,0
6.233,0.524,0
6.234,-4.42,0
6.235,-5.885,0
6.236,-9.913,0
6.237,-8.815,0
6.238,-5.519,0
6.239,-8.448,0
6.24,-7.533,0
6.241,-3.505,0
6.242,1.805,0
6.243,1.256,0
6.244,4.369,0
6.245,2.721,0
6.246,1.439,0
6.247,-1.674,0
6.248,4.552,0
6.249,1.805,0
6.25,-5.702,0
6.251,-6.617,0
6.252,-5.702,0
6.253,-4.969,0
6.254,-1.124,0
6.255,-5.702,0
6.256,-3.871,0
6.257,-0.026,0
6.258,-1.307,0
6.259,1.805,0
6.26,0.707,0
6.261,2.538,0
6.262,4.369,0
6.263,4.552,0
6.264,0.89,0
6.265,-2.406,0
6.266,-0.209,0
6.267,-1.307,0
6.268,-2.406,0
6.269,-4.237,0
6.27,-3.505,0
6.271,-2.772,0
6.272,0.157,0
6.273,-2.04,0
6.274,-3.871,0
6.275,1.622,0
6.276,-9.913,0
6.277,11.693,0
6.278,8.763,0
6.279,0.89,0
6.28,3.27,0
6.281,1.073,0
6.282,-0.941,0
6.283,0.89,0
6.284,-7.35,0
6.285,-2.955,0
6.286,-1.674,0
6.287,-5.153,0
6.288,0.524,0
6.289,-0.392,0
6.29,0.524,0
6.291,1.256,0
6.292,-0.941,0
6.293,-0.392,0
6.294,0.157,0
6.295,-0.392,0
6.296,-3.688,0
6.297,-0.575,0
6.298,-0.209,0
6.299,-0.575,0
6.3,-0.209,0
6.301,-4.237,0
6.302,-2.589,0
6.303,-3.871,0
6.304,0.341,0
6.305,-2.406,0
6.306,-1.124,0
6.307,-5.336,0
6.308,-2.589,0
6.309,-0.209,0
6.31,1.989,0
6.311,-0.758,0
6.312,4.918,0
6.313,5.651,0
6.314,4.918,0
6.315,1.622,0
6.316,-0.209,0
6.317,0.341,0
6.318,-2.955,0
6.319,-5.153,0
6.32,0.341,0
6.321,-3.505,0
6.322,-2.955,0
6.323,-4.786,0
6.324,0.157,0
6.325,2.904,0
6.326,6.2,0
6.327,3.087,0
6.328,9.313,0
6.329,15.721,0
6.33,6.566,0
6.331,-1.857,0
6.332,-0.758,0
6.333,0.157,0
6.334,-0.758,0
6.335,-3.138,0
6.336,-3.871,0
6.337,-3.322,0
6.338,-0.209,0
6.339,-1.857,0
6.34,-1.49,0
6.341,-1.124,0
6.342,-3.138,0
6.343,1.805,0
6.344,-4.42,0
6.345,-2.04,0
6.346,1.805,0
6.347,1.256,0
6.348,1.805,0
6.349,0.157,0
6.35,2.538,0
6.351,-1.674,0
6.352,-0.026,0
6.353,-4.603,0
6.354,-6.434,0
6.355,-4.786,0
6.356,-1.49,0
6.357,-6.617,0
6.358,-0.392,0
6.359,5.284,0
6.36,3.087,0
6.361,-0.209,0
6.362,-3.322,0
6.363,2.904,0
6.364,5.284,0
6.365,-1.674,0
6.366,1.073,0
6.367,0.341,0
6.368,-0.392,0
6.369,-0.941,0
6.37,-5.336,0
6.371,-1.49,0
6.372,-0.209,0
6.373,1.989,0
6.374,-0.758,0
6.375,0.89,0
6.376,-0.209,0
6.377,5.284,0
6.378,6.017,0
6.379,14.989,0
6.38,11.51,0
6.381,-0.941,0
6.382,-2.589,0
6.383,-4.054,0
6.384,-8.082,0
6.385,-6.984,0
6.386,-8.082,0
6.387,-3.138,0
6.388,3.27,0
6.389,0.89,0
6.39,3.087,0
6.391,3.636,0
6.392,-3.322,0
6.393,-2.406,0
6.394,-0.026,0
6.395,0.707,0
6.396,1.256,0
6.397,1.805,0
6.398,3.453,0
6.399,-2.04,0
6.4,-2.772,0
6.401,-4.603,0
6.402,-5.153,0
6.403,-3.505,0
6.404,-0.209,0
6.405,0.157,0
6.406,0.524,0
6.407,-3.688,0
6.408,2.538,0
6.409,4.918,0
6.41,-3.505,0
6.411,-0.209,0
6.412,0.707,0
6.413,1.622,0
6.414,2.355,0
6.415,-1.49,0
6.416,-6.068,0
6.417,2.172,0
6.418,1.073,0
6.419,-1.857,0
6.42,-4.603,0
6.421,-3.871,0
6.422,-3.138,0
6.423,1.439,0
6.424,0.89,0
6.425,-2.955,0
6.426,-2.04,0
6.427,1.256,0
6.428,8.214,0
6.429,5.284,0
6.43,6.2,0
6.431,10.228,0
6.432,-1.307,0
6.433,-12.843,0
6.434,-5.336,0
6.435,-4.054,0
6.436,-5.153,0
6.437,-4.054,0
6.438,-4.969,0
6.439,-7.716,0
6.44,-3.688,0
6.441,-1.49,0
6.442,-0.941,0
6.443,-1.49,0
6.444,0.157,0
6.445,0.524,0
6.446,1.805,0
6.447,2.904,0
6.448,2.538,0
6.449,3.636,0
6.45,0.341,0
6.451,-3.871,0
6.452,-2.223,0
6.453,-4.603,0
6.454,-1.49,0
6.455,-3.505,0
6.456,-1.674,0
6.457,-1.307,0
6.458,-1.124,0
6.459,-1.857,0
6.46,-2.589,0
6.461,-1.124,0
6.462,0.89,0
6.463,-1.49,0
6.464,3.087,0
6.465,1.256,0
6.466,0.707,0
6.467,0.157,0
6.468,-4.42,0
6.469,-2.589,0
6.47,2.538,0
6.471,-4.969,0
6.472,-0.026,0
6.473,0.89,0
6.474,1.622,0
6.475,0.89,0
6.476,2.721,0
6.477,-2.04,0
6.478,-0.209,0
6.479,8.214,0
6.48,4.735,0
6.481,3.636,0
6.482,10.594,0
6.483,7.848,0
6.484,-2.955,0
6.485,1.439,0
6.486,-13.575,0
6.487,8.58,0
6.488,-0.209,0
6.489,-8.082,0
6.49,-5.702,0
6.491,0.89,0
6.492,-1.124,0
6.493,-2.955,0
6.494,-1.307,0
6.495,0.157,0
6.496,1.439,0
6.497,0.341,0
6.498,-2.955,0
6.499,-0.026,0
6.5,-0.941,0
6.501,-1.674,0
6.502,-3.871,0
6.503,-4.42,0
6.504,-6.251,0
6.505,-4.603,0
6.506,-4.237,0
6.507,-4.603,0
6.508,-1.857,0
6.509,-2.223,0
6.51,-0.392,0
6.511,-1.124,0
6.512,0.707,0
6.513,0.89,0
6.514,2.355,0
6.515,-0.026,0
6.516,-2.04,0
6.517,-3.871,0
6.518,-2.04,0
6.519,-3.505,0
6.52,-1.124,0
6.521,-1.307,0
6.522,-1.124,0
6.523,-1.307,0
6.524,2.172,0
6.525,-0.209,0
6.526,0.157,0
6.527,2.172,0
6.528,4.552,0
6.529,2.721,0
6.53,8.214,0
6.531,16.637,0
6.532,6.383,0
6.533,-3.138,0
6.534,-2.04,0
6.535,-0.941,0
6.536,-5.885,0
6.537,-4.969,0
6.538,-2.589,0
6.539,2.721,0
6.54,0.89,0
6.541,2.721,0
6.542,-0.026,0
6.543,2.355,0
6.544,0.157,0
6.545,1.256,0
6.546,1.622,0
6.547,-0.209,0
6.548,3.087,0
6.549,1.805,0
6.55,2.172,0
6.551,-2.772,0
6.552,-3.322,0
6.553,-7.716,0
6.554,-4.969,0
6.555,-4.603,0
6.556,0.524,0
6.557,5.101,0
6.558,3.27,0
6.559,7.115,0
6.56,5.834,0
6.561,7.115,0
6.562,9.862,0
6.563,10.228,0
6.564,5.468,0
6.565,-0.209,0
6.566,0.524,0
6.567,-4.054,0
6.568,-3.505,0
6.569,-5.153,0
6.57,-8.448,0
6.571,-8.815,0
6.572,-6.068,0
6.573,-6.434,0
6.574,-3.138,0
6.575,-0.392,0
6.576,-2.955,0
6.577,-4.054,0
6.578,-3.322,0
6.579,2.355,0
6.58,3.636,0
6.581,7.665,0
6.582,-0.758,0
6.583,0.341,0
6.584,6.017,0
6.585,-9.181,0
6.586,-15.773,0
6.587,-5.702,0
6.588,-7.533,0
6.589,-2.589,0
6.59,-4.054,0
6.591,-2.772,0
6.592,-3.871,0
6.593,-4.969,0
6.594,-0.026,0
6.595,2.721,0
6.596,1.989,0
6.597,2.721,0
6.598,3.27,0
6.599,1.439,0
6.6,-2.406,0
6.601,-1.124,0
6.602,-0.758,0
6.603,-4.603,0
6.604,-4.969,0
6.605,-2.772,0
6.606,1.805,0
6.607,-1.307,0
6.608,1.439,0
6.609,2.721,0
6.61,4.003,0
6.611,1.256,0
6.612,3.087,0
6.613,4.918,0
6.614,5.101,0
6.615,0.89,0
6.616,-3.505,0
6.617,-2.955,0
6.618,-0.575,0
6.619,-0.941,0
6.62,2.904,0
6.621,-3.688,0
6.622,-2.772,0
6.623,-0.392,0
6.624,-2.589,0
6.625,-4.42,0
6.626,1.256,0
6.627,-0.941,0
6.628,0.89,0
6.629,4.003,0
6.63,3.82,0
6.631,-0.026,0
6.632,7.482,0
6.633,4.186,0
6.634,19.384,0
6.635,8.397,0
6.636,-1.674,0
6.637,-3.505,0
6.638,-1.857,0
6.639,-6.251,0
6.64,-4.969,0
6.641,1.073,0
6.642,-4.603,0
6.643,-1.674,0
6.644,-2.589,0
6.645,1.439,0
6.646,-2.406,0
6.647,-0.575,0
6.648,-2.406,0
6.649,-1.857,0
6.65,-4.237,0
6.651,-2.04,0
6.652,-3.138,0
6.653,-1.307,0
6.654,-3.138,0
6.655,1.439,0
6.656,4.735,0
6.657,9.13,0
6.658,10.778,0
6.659,14.073,0
6.66,20.116,0
6.661,22.496,0
6.662,26.342,0
6.663,29.637,0
6.664,22.679,0
6.665,16.271,0
6.666,12.242,0
6.667,8.397,0
6.668,7.848,0
6.669,3.453,0
6.67,-4.969,0
6.671,-18.519,0
6.672,-20.35,0
6.673,-25.294,0
6.674,-32.802,0
6.675,-39.576,0
6.676,-38.478,0
6.677,-30.604,0
6.678,-15.406,0
6.679,-13.209,0
6.68,-3.138,0
6.681,-6.434,0
6.682,-26.576,0
6.683,-34.449,0
6.684,-66.127,0
6.685,-96.339,0
6.686,-123.81,0
6.687,-141.57,0
6.688,-151.09,0
6.689,-154.02,0
6.69,-140.65,0
6.691,-138.27,0
6.692,-118.31,0
6.693,-78.029,0
6.694,-2.955,0
6.695,89.513,0
6.696,151.77,0
6.697,162.94,0
6.698,152.68,0
6.699,143.35,0
6.7,118.08,0
6.701,95.006,0
6.702,88.048,0
6.703,81.823,0
6.704,76.146,0
6.705,71.019,0
6.706,66.259,0
6.707,79.076,0
6.708,82.921,0
6.709,79.442,0
6.71,82.555,0
6.711,91.344,0
6.712,99.218,0
6.713,111.3,0
6.714,104.71,0
6.715,98.668,0
6.716,78.527,0
6.717,49.047,0
6.718,21.581,0
6.719,18.102,0
6.72,8.58,0
6.721,17.369,0
6.722,9.496,0
6.723,-2.589,0
6.724,-13.575,0
6.725,-27.675,0
6.726,-36.83,0
6.727,-45.07,0
6.728,-37.562,0
6.729,-44.337,0
6.73,-55.507,0
6.731,-56.971,0
6.732,-52.577,0
6.733,-51.295,0
6.734,-42.872,0
6.735,-41.774,0
6.736,-42.689,0
6.737,-52.943,0
6.738,-62.465,0
6.739,-58.986,0
6.74,-55.69,0
6.741,-54.774,0
6.742,-52.028,0
6.743,-51.295,0
6.744,-45.985,0
6.745,-42.689,0
6.746,-38.295,0
6.747,-33.168,0
6.748,-29.872,0
6.749,-30.421,0
6.75,-23.097,0
6.751,-26.027,0
6.752,-21.449,0
6.753,-17.421,0
6.754,-13.575,0
6.755,-8.998,0
6.756,-9.547,0
6.757,-4.42,0
6.758,-7.716,0
6.759,-3.322,0
6.76,1.805,0
6.761,1.256,0
6.762,5.651,0
6.763,8.397,0
6.764,6.017,0
6.765,6.383,0
6.766,6.749,0
6.767,7.115,0
6.768,2.355,0
6.769,2.904,0
6.77,2.355,0
6.771,3.636,0
6.772,4.918,0
6.773,8.763,0
6.774,4.186,0
6.775,7.299,0
6.776,8.947,0
6.777,12.242,0
6.778,12.609,0
6.779,8.031,0
6.78,6.2,0
6.781,7.848,0
6.782,5.468,0
6.783,6.749,0
6.784,5.468,0
6.785,11.693,0
6.786,8.947,0
6.787,21.398,0
6.788,12.242,0
6.789,10.594,0
6.79,6.2,0
6.791,4.918,0
6.792,3.82,0
6.793,2.721,0
6.794,3.636,0
6.795,6.383,0
6.796,5.651,0
6.797,3.453,0
6.798,5.284,0
6.799,3.453,0
6.8,1.805,0
6.801,0.524,0
6.802,-5.519,0
6.803,-6.251,0
6.804,-0.941,0
6.805,-4.237,0
6.806,-1.124,0
6.807,0.524,0
6.808,2.904,0
6.809,7.115,0
6.81,1.989,0
6.811,2.538,0
6.812,0.707,0
6.813,3.453,0
6.814,3.82,0
6.815,2.538,0
6.816,0.524,0
6.817,-1.307,0
6.818,-3.138,0
6.819,-1.124,0
6.82,-5.336,0
6.821,-0.941,0
6.822,-0.392,0
6.823,-0.758,0
6.824,-1.124,0
6.825,2.721,0
6.826,1.439,0
6.827,-1.674,0
6.828,-0.575,0
6.829,0.524,0
6.83,3.087,0
6.831,2.355,0
6.832,0.524,0
6.833,0.341,0
6.834,0.89,0
6.835,-1.307,0
6.836,2.904,0
6.837,4.735,0
6.838,6.383,0
6.839,10.961,0
6.84,11.51,0
6.841,3.087,0
6.842,-2.955,0
6.843,-1.857,0
6.844,1.073,0
6.845,-1.674,0
6.846,-0.941,0
6.847,-1.674,0
6.848,-3.505,0
6.849,-2.955,0
6.85,-2.406,0
6.851,-2.04,0
6.852,-5.153,0
6.853,-2.406,0
6.854,-0.575,0
6.855,-1.674,0
6.856,-6.251,0
6.857,-4.42,0
6.858,-2.589,0
6.859,-3.138,0
6.86,2.355,0
6.861,1.622,0
6.862,3.453,0
6.863,5.284,0
6.864,3.636,0
6.865,3.27,0
6.866,-0.941,0
6.867,-1.49,0
6.868,-6.068,0
6.869,-6.617,0
6.87,-6.068,0
6.871,-3.688,0
6.872,0.524,0
6.873,-1.124,0
6.874,-2.406,0
6.875,-1.124,0
6.876,1.622,0
6.877,-0.209,0
6.878,-0.575,0
6.879,-1.307,0
6.88,2.904,0
6.881,3.453,0
6.882,-1.674,0
6.883,-2.223,0
6.884,-0.392,0
6.885,-2.04,0
6.886,-1.49,0
6.887,6.017,0
6.888,0.341,0
6.889,-6.617,0
6.89,7.299,0
6.891,1.256,0
6.892,-0.575,0
6.893,1.073,0
6.894,2.538,0
6.895,1.256,0
6.896,0.157,0
6.897,3.453,0
6.898,-3.505,0
6.899,-0.758,0
6.9,-8.265,0
6.901,-5.336,0
6.902,-4.42,0
6.903,-6.801,0
6.904,-6.068,0
6.905,-4.237,0
6.906,-3.688,0
6.907,-2.04,0
6.908,-2.406,0
6.909,-2.772,0
6.91,-0.026,0
6.911,-0.392,0
6.912,-1.49,0
6.913,-0.758,0
6.914,1.073,0
6.915,2.904,0
6.916,-0.575,0
6.917,-1.857,0
6.918,-1.49,0
6.919,-5.336,0
6.92,-6.617,0
6.921,-0.575,0
6.922,-1.307,0
6.923,-3.505,0
6.924,-0.209,0
6.925,1.622,0
6.926,-1.124,0
6.927,1.256,0
6.928,-0.941,0
6.929,1.073,0
6.93,1.439,0
6.931,4.003,0
6.932,3.27,0
6.933,-0.941,0
6.934,2.172,0
6.935,0.524,0
6.936,0.157,0
6.937,-2.223,0
6.938,4.735,0
6.939,13.89,0
6.94,12.792,0
6.941,4.918,0
6.942,-0.026,0
6.943,2.721,0
6.944,0.341,0
6.945,1.073,0
6.946,1.622,0
6.947,-1.49,0
6.948,1.256,0
6.949,-0.026,0
6.95,-0.392,0
6.951,-4.237,0
6.952,-0.941,0
6.953,-0.575,0
6.954,-6.068,0
6.955,-0.758,0
6.956,-0.209,0
6.957,-3.322,0
6.958,-0.575,0
6.959,1.805,0
6.96,0.524,0
6.961,6.749,0
6.962,7.665,0
6.963,-1.49,0
6.964,-2.589,0
6.965,0.707,0
6.966,-0.209,0
6.967,-2.955,0
6.968,-2.223,0
6.969,-1.49,0
6.97,-4.786,0
6.971,-1.674,0
6.972,-5.519,0
6.973,-0.026,0
6.974,2.172,0
6.975,1.622,0
6.976,-0.209,0
6.977,1.439,0
6.978,-0.941,0
6.979,3.27,0
6.98,4.918,0
6.981,4.552,0
6.982,1.439,0
6.983,-1.307,0
6.984,-0.941,0
6.985,1.622,0
6.986,-1.124,0
6.987,-2.04,0
6.988,-0.941,0
6.989,4.552,0
6.99,2.355,0
6.991,2.904,0
6.992,9.862,0
6.993,14.44,0
6.994,1.989,0
6.995,3.82,0
6.996,5.468,0
6.997,1.073,0
6.998,-0.209,0
6.999,3.27,0
7,2.172,0
7.001,-0.758,0
7.002,-1.674,0
7.003,-4.054,0
7.004,-3.322,0
7.005,-3.871,0
7.006,-0.758,0
7.007,-1.307,0
7.008,-1.674,0
7.009,-0.392,0
7.01,-0.026,0
7.011,0.341,0
7.012,1.439,0
7.013,-0.026,0
7.014,1.805,0
7.015,-0.575,0
7.016,-1.307,0
7.017,-2.589,0
7.018,-4.42,0
7.019,-2.955,0
7.02,-6.251,0
7.021,-4.969,0
7.022,-3.871,0
7.023,-2.772,0
7.024,-0.209,0
7.025,-2.223,0
7.026,0.341,0
7.027,2.904,0
7.028,4.918,0
7.029,4.735,0
7.03,2.355,0
7.031,5.101,0
7.032,-0.575,0
7.033,-1.307,0
7.034,0.89,0
7.035,-2.406,0
7.036,-4.237,0
7.037,-4.786,0
7.038,-4.237,0
7.039,1.256,0
7.04,12.792,0
7.041,4.552,0
7.042,-2.955,0
7.043,12.059,0
7.044,-2.04,0
7.045,-0.209,0
7.046,-1.857,0
7.047,-3.322,0
7.048,0.707,0
7.049,-5.336,0
7.05,-2.04,0
7.051,-2.955,0
7.052,-7.533,0
7.053,-6.801,0
7.054,-6.068,0
7.055,-1.49,0
7.056,0.341,0
7.057,-4.786,0
7.058,-2.955,0
7.059,-2.406,0
7.06,0.341,0
7.061,2.721,0
7.062,4.003,0
7.063,-2.223,0
7.064,-1.307,0
7.065,2.721,0
7.066,-1.124,0
7.067,-2.955,0
7.068,-3.505,0
7.069,-1.857,0
7.07,-4.237,0
7.071,-0.026,0
7.072,-6.251,0
7.073,-3.871,0
7.074,-0.026,0
7.075,4.552,0
7.076,1.439,0
7.077,-1.307,0
7.078,-1.674,0
7.079,0.524,0
7.08,2.538,0
7.081,2.172,0
7.082,0.341,0
7.083,1.073,0
7.084,0.89,0
7.085,-3.138,0
7.086,-2.589,0
7.087,-2.955,0
7.088,-2.589,0
7.089,-3.505,0
7.09,1.073,0
7.091,10.594,0
7.092,9.313,0
7.093,12.792,0
7.094,11.693,0
7.095,2.538,0
7.096,-0.941,0
7.097,0.157,0
7.098,1.073,0
7.099,3.82,0
7.1,-0.209,0
7.101,-5.519,0
7.102,-6.068,0
7.103,-5.519,0
7.104,-7.167,0
7.105,-6.801,0
7.106,-3.688,0
7.107,-6.434,0
7.108,-1.49,0
7.109,1.805,0
7.11,-0.026,0
7.111,1.622,0
7.112,2.904,0
7.113,6.017,0
7.114,0.524,0
7.115,2.721,0
7.116,-0.575,0
7.117,1.256,0
7.118,-3.871,0
7.119,-3.322,0
7.12,-3.871,0
7.121,-6.617,0
7.122,-3.322,0
7.123,-1.124,0
7.124,-3.138,0
7.125,2.538,0
7.126,-1.49,0
7.127,2.355,0
7.128,2.904,0
7.129,4.735,0
7.13,3.087,0
7.131,1.805,0
7.132,-1.307,0
7.133,-2.406,0
7.134,-2.04,0
7.135,-1.674,0
7.136,-1.857,0
7.137,-2.04,0
7.138,-0.758,0
7.139,0.707,0
7.14,-2.04,0
7.141,0.341,0
7.142,4.918,0
7.143,3.087,0
7.144,6.2,0
7.145,7.848,0
7.146,15.355,0
7.147,14.257,0
7.148,5.101,0
7.149,-0.941,0
7.15,-2.04,0
7.151,-6.984,0
7.152,-4.237,0
7.153,-4.969,0
7.154,-2.772,0
7.155,-0.941,0
7.156,-0.392,0
7.157,-2.04,0
7.158,-1.674,0
7.159,0.524,0
7.16,0.89,0
7.161,2.721,0
7.162,-0.575,0
7.163,1.439,0
7.164,1.805,0
7.165,0.707,0
7.166,-1.307,0
7.167,-2.04,0
7.168,-2.772,0
7.169,-4.969,0
7.17,-6.801,0
7.171,-6.617,0
7.172,-3.138,0
7.173,0.157,0
7.174,-1.124,0
7.175,3.453,0
7.176,0.341,0
7.177,0.89,0
7.178,0.524,0
7.179,2.721,0
7.18,4.735,0
7.181,1.256,0
7.182,-2.955,0
7.183,-2.406,0
7.184,-1.124,0
7.185,-2.406,0
7.186,-2.04,0
7.187,-3.138,0
7.188,-2.04,0
7.189,-0.026,0
7.19,0.707,0
7.191,4.552,0
7.192,0.524,0
7.193,8.947,0
7.194,5.468,0
7.195,4.369,0
7.196,13.524,0
7.197,-2.589,0
7.198,-9.181,0
7.199,-3.138,0
7.2,-4.969,0
7.201,-6.617,0
7.202,-2.223,0
7.203,-8.998,0
7.204,-2.955,0
7.205,-6.251,0
7.206,-5.336,0
7.207,3.087,0
7.208,4.186,0
7.209,3.27,0
7.21,2.355,0
7.211,3.087,0
7.212,6.932,0
7.213,3.636,0
7.214,0.524,0
7.215,2.172,0
7.216,-2.406,0
7.217,1.989,0
7.218,-1.857,0
7.219,-3.138,0
7.22,-5.336,0
7.221,-2.589,0
7.222,-6.801,0
7.223,-4.054,0
7.224,-5.336,0
7.225,1.622,0
7.226,4.552,0
7.227,-0.026,0
7.228,0.707,0
7.229,1.439,0
7.23,1.989,0
7.231,-1.124,0
7.232,-1.674,0
7.233,-0.392,0
7.234,2.721,0
7.235,-2.772,0
7.236,-4.969,0
7.237,-3.138,0
7.238,-3.688,0
7.239,-2.04,0
7.24,-0.758,0
7.241,0.524,0
7.242,1.622,0
7.243,0.524,0
7.244,6.2,0
7.245,6.932,0
7.246,15.355,0
7.247,14.257,0
7.248,9.313,0
7.249,0.89,0
7.25,1.989,0
7.251,-2.955,0
7.252,-7.533,0
7.253,-9.913,0
7.254,-7.716,0
7.255,-3.138,0
7.256,-2.589,0
7.257,-3.138,0
7.258,-1.857,0
7.259,-1.49,0
7.26,0.524,0
7.261,-0.575,0
7.262,-0.209,0
7.263,0.524,0
7.264,4.735,0
7.265,1.622,0
7.266,4.369,0
7.267,1.989,0
7.268,-2.223,0
7.269,-6.068,0
7.27,-3.688,0
7.271,-3.322,0
7.272,-0.575,0
7.273,1.989,0
7.274,1.622,0
7.275,-1.124,0
7.276,2.355,0
7.277,3.636,0
7.278,3.27,0
7.279,1.439,0
7.28,3.27,0
7.281,-0.758,0
7.282,-3.505,0
7.283,-1.124,0
7.284,-7.167,0
7.285,-6.434,0
7.286,-5.702,0
7.287,-5.153,0
7.288,-6.984,0
7.289,0.341,0
7.29,-0.575,0
7.291,2.172,0
7.292,1.439,0
7.293,2.355,0
7.294,3.087,0
7.295,7.665,0
7.296,9.496,0
7.297,7.848,0
7.298,6.566,0
7.299,13.524,0
7.3,6.566,0
7.301,1.989,0
7.302,-7.167,0
7.303,-6.068,0
7.304,-7.167,0
7.305,-2.223,0
7.306,-1.307,0
7.307,-6.984,0
7.308,-3.138,0
7.309,-1.307,0
7.31,-1.857,0
7.311,-0.209,0
7.312,0.157,0
7.313,1.439,0
7.314,4.186,0
7.315,3.087,0
7.316,1.989,0
7.317,-0.026,0
7.318,-1.857,0
7.319,-5.885,0
7.32,-5.336,0
7.321,-2.955,0
7.322,-1.674,0
7.323,-1.307,0
7.324,1.256,0
7.325,2.355,0
7.326,0.341,0
7.327,-2.223,0
7.328,-1.857,0
7.329,2.721,0
7.33,4.552,0
7.331,2.721,0
7.332,1.073,0
7.333,-1.307,0
7.334,-4.42,0
7.335,-1.674,0
7.336,-2.772,0
7.337,-6.068,0
7.338,-4.054,0
7.339,-1.49,0
7.34,-1.124,0
7.341,-1.307,0
7.342,-3.138,0
7.343,0.89,0
7.344,2.355,0
7.345,5.101,0
7.346,11.693,0
7.347,5.284,0
7.348,7.665,0
7.349,16.088,0
7.35,-0.941,0
7.351,-8.082,0
7.352,-1.49,0
7.353,-7.533,0
7.354,-5.702,0
7.355,-4.054,0
7.356,-5.519,0
7.357,-4.237,0
7.358,-3.138,0
7.359,-2.04,0
7.36,-2.955,0
7.361,-0.209,0
7.362,0.524,0
7.363,1.256,0
7.364,1.805,0
7.365,1.256,0
7.366,1.805,0
7.367,2.172,0
7.368,-4.786,0
7.369,-5.702,0
7.37,-1.124,0
7.371,-3.505,0
7.372,-2.772,0
7.373,-2.223,0
7.374,-4.054,0
7.375,-2.406,0
7.376,-0.026,0
7.377,2.172,0
7.378,0.157,0
7.379,1.989,0
7.38,3.087,0
7.381,1.073,0
7.382,2.904,0
7.383,2.172,0
7.384,-0.392,0
7.385,-0.758,0
7.386,-2.772,0
7.387,-1.49,0
7.388,-3.322,0
7.389,-1.124,0
7.39,-4.786,0
7.391,-2.406,0
7.392,-1.124,0
7.393,-3.138,0
7.394,-4.969,0
7.395,3.087,0
7.396,1.256,0
7.397,5.834,0
7.398,7.665,0
7.399,14.623,0
7.4,8.214,0
7.401,-2.589,0
7.402,1.805,0
7.403,-2.223,0
7.404,-1.124,0
7.405,-0.026,0
7.406,-2.955,0
7.407,-2.04,0
7.408,-1.307,0
7.409,2.538,0
7.41,3.087,0
7.411,1.256,0
7.412,2.904,0
7.413,1.622,0
7.414,-1.49,0
7.415,-3.505,0
7.416,-0.941,0
7.417,-2.772,0
7.418,-1.307,0
7.419,-3.138,0
7.42,0.341,0
7.421,0.707,0
7.422,0.341,0
7.423,-0.026,0
7.424,4.735,0
7.425,6.566,0
7.426,2.721,0
7.427,4.003,0
7.428,-1.124,0
7.429,0.707,0
7.43,-2.406,0
7.431,-4.054,0
7.432,-2.772,0
7.433,-4.054,0
7.434,-8.632,0
7.435,-5.519,0
7.436,-6.068,0
7.437,-7.35,0
7.438,-4.237,0
7.439,-0.392,0
7.44,-1.674,0
7.441,0.524,0
7.442,-2.223,0
7.443,-0.392,0
7.444,-2.955,0
7.445,-2.223,0
7.446,-2.04,0
7.447,-1.307,0
7.448,-0.575,0
7.449,-1.124,0
7.45,-4.42,0
7.451,-3.138,0
7.452,-2.772,0
7.453,2.904,0
7.454,5.284,0
7.455,-0.026,0
7.456,-1.857,0
7.457,5.101,0
7.458,7.848,0
7.459,17.003,0
7.46,15.905,0
7.461,3.453,0
7.462,1.805,0
7.463,0.341,0
7.464,1.622,0
7.465,0.524,0
7.466,-0.575,0
7.467,-1.49,0
7.468,-2.406,0
7.469,-6.434,0
7.47,-5.702,0
7.471,-3.871,0
7.472,-5.702,0
7.473,-5.153,0
7.474,0.341,0
7.475,1.073,0
7.476,2.904,0
7.477,-1.49,0
7.478,0.157,0
7.479,0.524,0
7.48,-3.688,0
7.481,2.538,0
7.482,4.918,0
7.483,4.186,0
7.484,2.355,0
7.485,-2.04,0
7.486,-2.589,0
7.487,-5.885,0
7.488,-4.603,0
7.489,-4.969,0
7.49,-2.406,0
7.491,-0.575,0
7.492,0.89,0
7.493,-0.941,0
7.494,-0.758,0
7.495,-0.575,0
7.496,2.355,0
7.497,5.284,0
7.498,2.721,0
7.499,-0.575,0
7.5,5.651,0
7.501,6.566,0
7.502,2.538,0
7.503,-1.307,0
7.504,8.947,0
7.505,4.552,0
7.506,-7.716,0
7.507,-2.772,0
7.508,1.622,0
7.509,0.341,0
7.51,-3.138,0
7.511,0.157,0
7.512,-0.758,0
7.513,-1.674,0
7.514,2.355,0
7.515,1.622,0
7.516,3.453,0
7.517,7.848,0
7.518,10.594,0
7.519,10.228,0
7.52,13.341,0
7.521,16.088,0
7.522,17.919,0
7.523,21.215,0
7.524,19.2,0
7.525,14.989,0
7.526,14.44,0
7.527,8.947,0
7.528,14.257,0
7.529,9.679,0
7.53,0.157,0
7.531,-14.857,0
7.532,-24.928,0
7.533,-30.421,0
7.534,-38.661,0
7.535,-40.126,0
7.536,-30.604,0
7.537,-19.435,0
7.538,-8.998,0
7.539,-7.716,0
7.54,-16.139,0
7.541,-33.168,0
7.542,-50.013,0
7.543,-78.761,0
7.544,-98.353,0
7.545,-123.26,0
7.546,-139.37,0
7.547,-142.3,0
7.548,-147.06,0
7.549,-144.5,0
7.55,-122.52,0
7.551,-107.69,0
7.552,-72.719,0
7.553,-39.393,0
7.554,25.609,0
7.555,128.33,0
7.556,141.88,0
7.557,154.33,0
7.558,165.5,0
7.559,155.25,0
7.56,108.56,0
7.561,116.98,0
7.562,109.29,0
7.563,102.33,0
7.564,96.105,0
7.565,90.428,0
7.566,95.555,0
7.567,100.32,0
7.568,87.499,0
7.569,75.78,0
7.57,65.16,0
7.571,68.273,0
7.572,77.062,0
7.573,79.625,0
7.574,77.245,0
7.575,57.286,0
7.576,33.116,0
7.577,23.595,0
7.578,20.665,0
7.579,18.102,0
7.58,20.482,0
7.581,5.101,0
7.582,-0.941,0
7.583,-13.759,0
7.584,-25.294,0
7.585,-38.844,0
7.586,-40.675,0
7.587,-39.027,0
7.588,-43.422,0
7.589,-50.197,0
7.59,-53.676,0
7.591,-59.352,0
7.592,-50.197,0
7.593,-49.098,0
7.594,-50.197,0
7.595,-53.126,0
7.596,-55.873,0
7.597,-56.605,0
7.598,-54.408,0
7.599,-54.774,0
7.6,-56.605,0
7.601,-47.084,0
7.602,-51.112,0
7.603,-37.562,0
7.604,-32.069,0
7.605,-37.013,0
7.606,-38.478,0
7.607,-34.449,0
7.608,-28.407,0
7.609,-25.111,0
7.61,-18.153,0
7.611,-17.238,0
7.612,-13.209,0
7.613,-9.364,0
7.614,-3.138,0
7.615,-7.167,0
7.616,-7.899,0
7.617,-9.73,0
7.618,-5.336,0
7.619,-3.688,0
7.62,-2.406,0
7.621,-0.209,0
7.622,2.538,0
7.623,1.439,0
7.624,6.2,0
7.625,5.651,0
7.626,9.496,0
7.627,2.904,0
7.628,11.327,0
7.629,5.651,0
7.63,8.58,0
7.631,9.496,0
7.632,10.228,0
7.633,6.383,0
7.634,6.932,0
7.635,6.383,0
7.636,4.735,0
7.637,5.101,0
7.638,4.735,0
7.639,2.721,0
7.64,3.087,0
7.641,6.383,0
7.642,6.749,0
7.643,7.848,0
7.644,8.947,0
7.645,8.214,0
7.646,8.947,0
7.647,9.679,0
7.648,6.2,0
7.649,8.58,0
7.65,4.552,0
7.651,2.355,0
7.652,8.58,0
7.653,-5.336,0
7.654,12.792,0
7.655,10.411,0
7.656,3.82,0
7.657,1.805,0
7.658,-3.688,0
7.659,4.552,0
7.66,6.017,0
7.661,4.735,0
7.662,5.834,0
7.663,4.735,0
7.664,3.82,0
7.665,4.735,0
7.666,4.003,0
7.667,1.805,0
7.668,-2.772,0
7.669,-3.322,0
7.67,-4.969,0
7.671,-3.688,0
7.672,-5.885,0
7.673,-2.04,0
7.674,0.341,0
7.675,3.453,0
7.676,3.087,0
7.677,1.989,0
7.678,3.087,0
7.679,3.27,0
7.68,0.707,0
7.681,3.27,0
7.682,1.256,0
7.683,-0.026,0
7.684,-0.758,0
7.685,-2.223,0
7.686,-2.04,0
7.687,-4.969,0
7.688,-4.603,0
7.689,0.341,0
7.69,2.172,0
7.691,0.341,0
7.692,-1.307,0
7.693,4.186,0
7.694,0.341,0
7.695,-0.209,0
7.696,5.468,0
7.697,1.622,0
7.698,3.453,0
7.699,1.622,0
7.7,-6.801,0
7.701,-6.434,0
7.702,-2.955,0
7.703,-1.857,0
7.704,11.327,0
7.705,5.834,0
7.706,0.89,0
7.707,8.397,0
7.708,12.426,0
7.709,-3.688,0
7.71,-1.49,0
7.711,-3.505,0
7.712,-1.674,0
7.713,-0.026,0
7.714,-1.49,0
7.715,-5.519,0
7.716,-2.04,0
7.717,-5.336,0
7.718,-4.42,0
7.719,-1.674,0
7.72,-0.941,0
7.721,-1.674,0
7.722,-1.124,0
7.723,-2.955,0
7.724,-1.307,0
7.725,-0.941,0
7.726,-3.138,0
7.727,-2.772,0
7.728,2.172,0
7.729,2.721,0
7.73,2.172,0
7.731,-1.674,0
7.732,-0.392,0
7.733,-1.674,0
7.734,-4.42,0
7.735,-1.857,0
7.736,-5.153,0
7.737,-0.575,0
7.738,-4.969,0
7.739,-1.124,0
7.74,-1.49,0
7.741,-0.209,0
7.742,-0.575,0
7.743,-2.406,0
7.744,-0.575,0
7.745,0.89,0
7.746,1.622,0
7.747,2.355,0
7.748,1.805,0
7.749,0.707,0
7.75,-0.575,0
7.751,0.341,0
7.752,-5.702,0
7.753,-3.688,0
7.754,1.805,0
7.755,4.003,0
7.756,10.228,0
7.757,4.552,0
7.758,-6.984,0
7.759,-2.04,0
7.76,-0.575,0
7.761,-1.857,0
7.762,-0.758,0
7.763,-1.857,0
7.764,-0.941,0
7.765,-3.688,0
7.766,-2.955,0
7.767,-6.801,0
7.768,-4.969,0
7.769,-4.42,0
7.77,-1.674,0
7.771,-2.955,0
7.772,-2.589,0
7.773,-2.223,0
7.774,-0.392,0
7.775,0.707,0
7.776,2.172,0
7.777,1.439,0
7.778,3.82,0
7.779,4.552,0
7.78,1.439,0
7.781,0.341,0
7.782,-3.871,0
7.783,-5.519,0
7.784,-5.885,0
7.785,-3.688,0
7.786,-3.322,0
7.787,-2.955,0
7.788,-1.857,0
7.789,-0.392,0
7.79,-1.124,0
7.791,0.707,0
7.792,-0.758,0
7.793,0.707,0
7.794,3.636,0
7.795,4.735,0
7.796,2.904,0
7.797,0.341,0
7.798,2.355,0
7.799,1.073,0
7.8,-1.307,0
7.801,-2.04,0
7.802,-3.322,0
7.803,-1.307,0
7.804,-1.124,0
7.805,2.355,0
7.806,1.989,0
7.807,4.186,0
7.808,10.411,0
7.809,13.158,0
7.81,5.651,0
7.811,0.707,0
7.812,-0.209,0
7.813,-2.589,0
7.814,-3.322,0
7.815,-0.026,0
7.816,0.524,0
7.817,-3.322,0
7.818,-5.702,0
7.819,-0.575,0
7.82,-0.026,0
7.821,-0.575,0
7.822,2.172,0
7.823,-1.124,0
7.824,-2.406,0
7.825,-2.04,0
7.826,0.524,0
7.827,0.89,0
7.828,1.073,0
7.829,5.284,0
7.83,7.115,0
7.831,1.989,0
7.832,2.538,0
7.833,-1.857,0
7.834,-2.406,0
7.835,-1.124,0
7.836,-5.336,0
7.837,-3.688,0
7.838,-3.322,0
7.839,-1.124,0
7.84,-0.758,0
7.841,2.721,0
7.842,-0.392,0
7.843,0.707,0
7.844,1.073,0
7.845,5.834,0
7.846,2.721,0
7.847,-1.124,0
7.848,1.256,0
7.849,4.369,0
7.85,-0.209,0
7.851,0.341,0
7.852,-0.209,0
7.853,1.073,0
7.854,0.157,0
7.855,-2.955,0
7.856,3.27,0
7.857,6.017,0
7.858,13.524,0
7.859,14.44,0
7.86,4.186,0
7.861,2.904,0
7.862,1.805,0
7.863,0.707,0
7.864,1.622,0
7.865,-4.786,0
7.866,-2.406,0
7.867,-1.674,0
7.868,-3.505,0
7.869,-4.054,0
7.87,-1.307,0
7.871,-0.941,0
7.872,-3.138,0
7.873,-2.04,0
7.874,0.524,0
7.875,0.89,0
7.876,1.622,0
7.877,2.355,0
7.878,5.834,0
7.879,4.552,0
7.88,3.453,0
7.881,-0.758,0
7.882,0.89,0
7.883,-0.392,0
7.884,-4.603,0
7.885,-1.857,0
7.886,-5.153,0
7.887,-4.786,0
7.888,-2.772,0
7.889,-1.674,0
7.89,-2.772,0
7.891,-3.505,0
7.892,-1.674,0
7.893,-1.49,0
7.894,-0.392,0
7.895,-1.857,0
7.896,1.073,0
7.897,5.651,0
7.898,2.538,0
7.899,4.186,0
7.9,-2.406,0
7.901,-3.322,0
7.902,-5.702,0
7.903,-4.969,0
7.904,-1.674,0
7.905,-1.307,0
7.906,3.087,0
7.907,11.51,0
7.908,3.087,0
7.909,4.186,0
7.91,13.341,0
7.911,-5.153,0
7.912,-2.589,0
7.913,-0.209,0
7.914,-2.406,0
7.915,-4.42,0
7.916,-6.251,0
7.917,-11.195,0
7.918,-9.73,0
7.919,-5.702,0
7.92,-4.603,0
7.921,-7.899,0
7.922,-2.955,0
7.923,-2.04,0
7.924,-1.307,0
7.925,0.89,0
7.926,-0.941,0
7.927,0.89,0
7.928,1.439,0
7.929,0.157,0
7.93,1.439,0
7.931,1.805,0
7.932,-2.406,0
7.933,-0.758,0
7.934,-3.138,0
7.935,-4.42,0
7.936,-4.054,0
7.937,-2.955,0
7.938,-0.392,0
7.939,-1.857,0
7.94,-0.026,0
7.941,-0.758,0
7.942,1.805,0
7.943,4.369,0
7.944,7.665,0
7.945,0.707,0
7.946,-0.209,0
7.947,-1.124,0
7.948,1.256,0
7.949,3.453,0
7.95,-5.519,0
7.951,-4.42,0
7.952,-5.519,0
7.953,-2.589,0
7.954,-3.505,0
7.955,-2.772,0
7.956,-2.04,0
7.957,0.157,0
7.958,7.665,0
7.959,4.735,0
7.96,14.989,0
7.961,19.017,0
7.962,7.848,0
7.963,0.341,0
7.964,4.369,0
7.965,-1.674,0
7.966,-4.969,0
7.967,-5.885,0
7.968,-3.138,0
7.969,-7.167,0
7.97,-1.857,0
7.971,-2.406,0
7.972,-2.955,0
7.973,-0.209,0
7.974,0.157,0
7.975,-1.124,0
7.976,2.721,0
7.977,1.439,0
7.978,-1.674,0
7.979,-2.04,0
7.98,2.904,0
7.981,2.355,0
7.982,-2.04,0
7.983,-0.392,0
7.984,-2.772,0
7.985,-4.969,0
7.986,-1.124,0
7.987,-2.406,0
7.988,-4.603,0
7.989,-0.026,0
7.99,5.651,0
7.991,3.453,0
7.992,1.622,0
7.993,3.453,0
7.994,4.003,0
7.995,5.284,0
7.996,-1.674,0
7.997,-0.758,0
7.998,0.157,0
7.999,0.89,0
8,0.157,0
8.001,-1.674,0
8.002,-4.786,0
8.003,-4.237,0
8.004,-0.941,0
8.005,-3.138,0
8.006,-1.124,0
8.007,-0.575,0
8.008,-3.138,0
8.009,2.355,0
8.01,4.552,0
8.011,5.101,0
8.012,14.623,0
8.013,13.341,0
8.014,-2.772,0
8.015,-0.575,0
8.016,-2.589,0
8.017,-0.758,0
8.018,-5.702,0
8.019,-1.307,0
8.02,-0.026,0
8.021,-1.124,0
8.022,-4.42,0
8.023,-3.505,0
8.024,-2.589,0
8.025,-4.969,0
8.026,-1.124,0
8.027,-0.575,0
8.028,3.82,0
8.029,4.369,0
8.03,1.989,0
8.031,0.707,0
8.032,-0.392,0
8.033,-3.871,0
8.034,0.341,0
8.035,-2.406,0
8.036,-4.786,0
8.037,-2.589,0
8.038,-2.223,0
8.039,0.341,0
8.04,-0.026,0
8.041,3.27,0
8.042,1.989,0
8.043,-0.758,0
8.044,-2.589,0
8.045,2.172,0
8.046,5.284,0
8.047,2.538,0
8.048,0.157,0
8.049,-1.124,0
8.05,-4.969,0
8.051,-2.589,0
8.052,-3.871,0
8.053,-3.505,0
8.054,-4.603,0
8.055,0.89,0
8.056,-1.307,0
8.057,-0.758,0
8.058,2.355,0
8.059,-0.758,0
8.06,7.665,0
8.061,6.566,0
8.062,0.89,0
8.063,16.088,0
8.064,5.101,0
8.065,-0.941,0
8.066,-2.772,0
8.067,-7.716,0
8.068,-3.322,0
8.069,-4.603,0
8.07,-3.505,0
8.071,-6.801,0
8.072,-1.857,0
8.073,-0.941,0
8.074,-1.674,0
8.075,-0.941,0
8.076,-1.49,0
8.077,-3.322,0
8.078,4.003,0
8.079,3.087,0
8.08,4.003,0
8.081,-1.674,0
8.082,-0.941,0
8.083,-2.772,0
8.084,1.622,0
8.085,-3.505,0
8.086,-1.674,0
8.087,-3.505,0
8.088,-5.153,0
8.089,-0.575,0
8.09,-1.124,0
8.091,-0.575,0
8.092,4.918,0
8.093,-2.04,0
8.094,2.538,0
8.095,4.918,0
8.096,1.073,0
8.097,2.904,0
8.098,1.073,0
8.099,0.524,0
8.1,-0.758,0
8.101,-2.04,0
8.102,-8.265,0
8.103,-7.35,0
8.104,-3.322,0
8.105,-4.054,0
8.106,-5.885,0
8.107,-0.209,0
8.108,-2.406,0
8.109,1.622,0
8.11,2.172,0
8.111,11.693,0
8.112,7.665,0
8.113,21.215,0
8.114,12.059,0
8.115,7.115,0
8.116,-0.392,0
8.117,-1.674,0
8.118,-5.153,0
8.119,0.524,0
8.12,-4.42,0
8.121,-1.674,0
8.122,0.707,0
8.123,-3.138,0
8.124,-1.307,0
8.125,-4.42,0
8.126,-6.068,0
8.127,-1.49,0
8.128,2.904,0
8.129,1.256,0
8.13,4.552,0
8.131,2.355,0
8.132,-0.392,0
8.133,-6.068,0
8.134,-2.04,0
8.135,-4.237,0
8.136,-2.406,0
8.137,-5.519,0
8.138,-2.772,0
8.139,-1.49,0
8.14,1.622,0
8.141,3.636,0
8.142,4.735,0
8.143,0.707,0
8.144,1.989,0
8.145,0.707,0
8.146,2.721,0
8.147,2.355,0
8.148,-0.209,0
8.149,-0.026,0
8.15,-1.857,0
8.151,-5.885,0
8.152,-5.336,0
8.153,0.157,0
8.154,-2.04,0
8.155,-1.49,0
8.156,-3.322,0
8.157,-0.575,0
8.158,-0.209,0
8.159,5.834,0
8.16,3.087,0
8.161,3.82,0
8.162,15.355,0
8.163,10.411,0
8.164,11.876,0
8.165,5.101,0
8.166,1.622,0
8.167,9.496,0
8.168,-5.702,0
8.169,-12.294,0
8.17,-6.251,0
8.171,-0.758,0
8.172,-5.702,0
8.173,-7.167,0
8.174,-3.138,0
8.175,-2.04,0
8.176,-0.941,0
8.177,-0.026,0
8.178,0.89,0
8.179,1.622,0
8.18,3.82,0
8.181,-0.758,0
8.182,-2.589,0
8.183,-3.138,0
8.184,-4.42,0
8.185,-7.533,0
8.186,-3.688,0
8.187,-6.068,0
8.188,-1.857,0
8.189,6.566,0
8.19,5.468,0
8.191,-2.406,0
8.192,2.538,0
8.193,1.622,0
8.194,2.355,0
8.195,0.157,0
8.196,3.453,0
8.197,1.622,0
8.198,-1.124,0
8.199,-2.406,0
8.2,-4.603,0
8.201,-6.617,0
8.202,-6.251,0
8.203,-7.35,0
8.204,-2.772,0
8.205,3.453,0
8.206,1.073,0
8.207,1.805,0
8.208,1.256,0
8.209,0.707,0
8.21,1.256,0
8.211,5.284,0
8.212,4.003,0
8.213,4.369,0
8.214,8.947,0
8.215,-0.575,0
8.216,11.693,0
8.217,0.157,0
8.218,-1.307,0
8.219,-0.026,0
8.22,-3.505,0
8.221,-0.209,0
8.222,-1.124,0
8.223,-0.209,0
8.224,0.524,0
8.225,-1.674,0
8.226,-3.505,0
8.227,-2.955,0
8.228,-1.307,0
8.229,-0.941,0
8.23,3.27,0
8.231,-1.857,0
8.232,-3.688,0
8.233,-3.138,0
8.234,-3.688,0
8.235,-6.068,0
8.236,-3.871,0
8.237,-3.505,0
8.238,-0.941,0
8.239,0.89,0
8.24,2.904,0
8.241,0.341,0
8.242,0.707,0
8.243,2.721,0
8.244,2.538,0
8.245,3.27,0
8.246,4.735,0
8.247,1.439,0
8.248,1.073,0
8.249,-0.941,0
8.25,-2.04,0
8.251,-3.871,0
8.252,-3.688,0
8.253,-3.505,0
8.254,-4.237,0
8.255,-1.124,0
8.256,-3.138,0
8.257,-0.575,0
8.258,-2.406,0
8.259,2.172,0
8.26,4.003,0
8.261,2.172,0
8.262,3.087,0
8.263,0.341,0
8.264,7.848,0
8.265,13.524,0
8.266,12.609,0
8.267,0.524,0
8.268,-4.42,0
8.269,-5.885,0
8.27,-4.603,0
8.271,-3.505,0
8.272,-2.406,0
8.273,-1.49,0
8.274,-2.406,0
8.275,-3.138,0
8.276,-0.941,0
8.277,-0.392,0
8.278,5.284,0
8.279,3.087,0
8.28,-0.209,0
8.281,-2.04,0
8.282,-4.786,0
8.283,-8.082,0
8.284,-3.871,0
8.285,-3.322,0
8.286,-6.617,0
8.287,-6.251,0
8.288,-1.674,0
8.289,-1.124,0
8.29,4.003,0
8.291,4.552,0
8.292,4.003,0
