0,-0.899,0
0.001,-6.392,0
0.002,-11.336,0
0.003,-33.858,0
0.004,-69.563,0
0.005,-64.802,0
0.006,-103.8,0
0.007,-119.37,0
0.008,-124.13,0
0.009,-136.95,0
0.01,-117.35,0
0.011,-106.73,0
0.012,-84.212,0
0.013,-63.521,0
0.014,-23.238,0
0.015,63.371,0
0.016,100.72,0
0.017,111.89,0
0.018,122.15,0
0.019,112.81,0
0.02,104.39,0
0.021,81.316,0
0.022,88.274,0
0.023,82.048,0
0.024,76.372,0
0.025,71.245,0
0.026,76.006,0
0.027,80.217,0
0.028,84.062,0
0.029,80.583,0
0.03,64.47,0
0.031,61.54,0
0.032,58.977,0
0.033,66.118,0
0.034,59.526,0
0.035,53.484,0
0.036,44.328,0
0.037,22.722,0
0.038,13.933,0
0.039,6.059,0
0.04,8.44,0
0.041,10.637,0
0.042,-3.462,0
0.043,-12.617,0
0.044,-20.857,0
0.045,-31.294,0
0.046,-38.069,0
0.047,-39.168,0
0.048,-42.464,0
0.049,-51.619,0
0.05,-50.52,0
0.051,-52.901,0
0.052,-49.605,0
0.053,-38.435,0
0.054,-36.97,0
0.055,-35.689,0
0.056,-27.266,0
0.057,-35.139,0
0.058,-48.323,0
0.059,-46.492,0
0.06,-41.548,0
0.061,-40.083,0
0.062,-38.802,0
0.063,-35.323,0
0.064,-34.224,0
0.065,-29.28,0
0.066,-26.533,0
0.067,-24.153,0
0.068,-21.956,0
0.069,-17.378,0
0.07,-16.829,0
0.071,-10.603,0
0.072,-9.871,0
0.073,-9.138,0
0.074,-7.307,0
0.075,-4.195,0
0.076,-3.645,0
0.077,-1.265,0
0.078,0.932,0
0.079,2.947,0
0.08,-0.532,0
0.081,1.665,0
0.082,2.031,0
0.083,4.594,0
0.084,4.961,0
0.085,5.144,0
0.086,2.58,0
0.087,4.411,0
0.088,7.158,0
0.089,4.594,0
0.09,7.89,0
0.091,3.313,0
0.092,6.426,0
0.093,6.975,0
0.094,4.594,0
0.095,6.792,0
0.096,7.158,0
0.097,6.059,0
0.098,7.89,0
0.099,3.313,0
0.1,6.609,0
0.101,4.778,0
0.102,4.228,0
0.103,4.778,0
0.104,9.355,0
0.105,12.468,0
0.106,15.215,0
0.107,14.848,0
0.108,7.89,0
0.109,21.074,0
0.11,11.919,0
0.111,3.679,0
0.112,2.214,0
0.113,0.932,0
0.114,-0.166,0
0.115,0.932,0
0.116,1.848,0
0.117,-0.899,0
0.118,-1.631,0
0.119,-3.828,0
0.12,-4.378,0
0.121,-1.265,0
0.122,-1.814,0
0.123,-1.448,0
0.124,-2.73,0
0.125,0.017,0
0.126,-1.814,0
0.127,-2.913,0
0.128,-0.899,0
0.129,-1.631,0
0.13,-1.448,0
0.131,0.749,0
0.132,1.482,0
0.133,-0.899,0
0.134,3.679,0
0.135,1.848,0
0.136,0.017,0
0.137,0.566,0
0.138,0.932,0
0.139,-1.265,0
0.14,-0.899,0
0.141,3.313,0
0.142,2.763,0
0.143,0.383,0
0.144,0.749,0
0.145,1.115,0
0.146,-2.364,0
0.147,2.763,0
0.148,-0.532,0
0.149,0.017,0
0.15,-2.73,0
0.151,-1.448,0
0.152,-1.082,0
0.153,-2.364,0
0.154,1.482,0
0.155,0.2,0
0.156,1.482,0
0.157,3.496,0
0.158,0.932,0
0.159,0.566,0
0.16,5.144,0
0.161,9.721,0
0.162,1.482,0
0.163,0.383,0
0.164,5.327,0
0.165,13.75,0
0.166,14.848,0
0.167,-0.349,0
0.168,-2.547,0
0.169,-4.561,0
0.17,-2.73,0
0.171,-4.378,0
0.172,-2.913,0
0.173,-4.195,0
0.174,-0.716,0
0.175,-6.392,0
0.176,-3.462,0
0.177,-4.378,0
0.178,-3.645,0
0.179,0.2,0
0.18,-1.631,0
0.181,-1.082,0
0.182,-0.532,0
0.183,-1.814,0
0.184,-3.096,0
0.185,-0.349,0
0.186,3.13,0
0.187,-1.082,0
0.188,0.566,0
0.189,1.848,0
0.19,1.482,0
0.191,1.848,0
0.192,-3.096,0
0.193,1.482,0
0.194,0.932,0
0.195,0.383,0
0.196,0.017,0
0.197,-2.18,0
0.198,-1.082,0
0.199,-0.716,0
0.2,-2.547,0
0.201,-2.364,0
0.202,-1.082,0
0.203,-0.349,0
0.204,-0.899,0
0.205,-0.716,0
0.206,-2.18,0
0.207,0.749,0
0.208,5.327,0
0.209,4.778,0
0.21,4.228,0
0.211,11.736,0
0.212,12.834,0
0.213,5.876,0
0.214,-2.547,0
0.215,-1.448,0
0.216,-2.364,0
0.217,-8.772,0
0.218,-4.744,0
0.219,-4.011,0
0.22,-7.307,0
0.221,-5.476,0
0.222,-3.828,0
0.223,-7.124,0
0.224,-4.011,0
0.225,-1.265,0
0.226,-0.166,0
0.227,-5.659,0
0.228,-1.814,0
0.229,-1.265,0
0.23,-1.814,0
0.231,0.932,0
0.232,-2.364,0
0.233,0.749,0
0.234,-1.265,0
0.235,1.299,0
0.236,-2.73,0
0.237,-2.364,0
0.238,-1.082,0
0.239,0.932,0
0.24,-1.631,0
0.241,1.665,0
0.242,-2.18,0
0.243,-2.547,0
0.244,-0.349,0
0.245,-1.448,0
0.246,-0.349,0
0.247,-1.448,0
0.248,0.017,0
0.249,-0.166,0
0.25,-4.195,0
0.251,3.13,0
0.252,2.214,0
0.253,3.13,0
0.254,0.749,0
0.255,-0.899,0
0.256,-0.166,0
0.257,8.806,0
0.258,9.905,0
0.259,8.806,0
0.26,7.89,0
0.261,5.144,0
0.262,14.299,0
0.263,3.13,0
0.264,-13.35,0
0.265,2.031,0
0.266,-4.011,0
0.267,-5.843,0
0.268,-4.195,0
0.269,-8.589,0
0.27,-1.814,0
0.271,-2.913,0
0.272,-1.814,0
0.273,-2.73,0
0.274,-3.645,0
0.275,-1.265,0
0.276,-3.462,0
0.277,-1.631,0
0.278,-1.082,0
0.279,-0.532,0
0.28,-0.899,0
0.281,-0.532,0
0.282,-3.279,0
0.283,-2.18,0
0.284,-1.814,0
0.285,-1.082,0
0.286,-2.913,0
0.287,0.017,0
0.288,-3.462,0
0.289,0.749,0
0.29,5.876,0
0.291,4.045,0
0.292,3.496,0
0.293,-0.349,0
0.294,0.932,0
0.295,6.059,0
0.296,4.228,0
0.297,4.778,0
0.298,4.228,0
0.299,1.848,0
0.3,3.13,0
0.301,0.383,0
0.302,0.017,0
0.303,-1.814,0
0.304,2.214,0
0.305,1.665,0
0.306,-0.899,0
0.307,-0.532,0
0.308,6.426,0
0.309,7.341,0
0.31,6.426,0
0.311,5.693,0
0.312,7.89,0
0.313,16.863,0
0.314,17.961,0
0.315,7.707,0
0.316,0.932,0
0.317,-2.547,0
0.318,-1.448,0
0.319,-0.532,0
0.32,-3.279,0
0.321,-4.011,0
0.322,-3.279,0
0.323,-2.73,0
0.324,-3.279,0
0.325,-1.631,0
0.326,1.665,0
0.327,-2.547,0
0.328,-0.899,0
0.329,-0.532,0
0.33,-2.73,0
0.331,-0.716,0
0.332,-1.082,0
0.333,-1.448,0
0.334,-1.631,0
0.335,1.482,0
0.336,1.848,0
0.337,-1.631,0
0.338,-1.265,0
0.339,-0.166,0
0.34,-1.997,0
0.341,-1.631,0
0.342,-2.364,0
0.343,-1.631,0
0.344,-0.899,0
0.345,-0.716,0
0.346,-0.166,0
0.347,2.031,0
0.348,1.299,0
0.349,-1.082,0
0.35,-1.814,0
0.351,0.017,0
0.352,-0.166,0
0.353,2.031,0
0.354,0.2,0
0.355,-1.631,0
0.356,-1.082,0
0.357,-3.828,0
0.358,-0.532,0
0.359,6.426,0
0.36,3.496,0
0.361,13.75,0
0.362,1.482,0
0.363,-6.758,0
0.364,-2.364,0
0.365,-1.082,0
0.366,-2.18,0
0.367,-5.476,0
0.368,-4.561,0
0.369,-5.476,0
0.37,-3.096,0
0.371,-0.899,0
0.372,-2.73,0
0.373,-0.899,0
0.374,-1.448,0
0.375,-0.166,0
0.376,0.2,0
0.377,-2.547,0
0.378,0.017,0
0.379,-1.082,0
0.38,-1.814,0
0.381,-1.631,0
0.382,-1.448,0
0.383,-2.547,0
0.384,-1.082,0
0.385,-0.899,0
0.386,0.017,0
0.387,0.566,0
0.388,-1.448,0
0.389,-2.547,0
0.39,-2.364,0
0.391,-1.082,0
0.392,-1.814,0
0.393,-1.631,0
0.394,-0.166,0
0.395,0.017,0
0.396,1.299,0
0.397,1.299,0
0.398,-0.716,0
0.399,0.383,0
0.4,-1.082,0
0.401,-0.899,0
0.402,-3.828,0
0.403,-1.265,0
0.404,0.566,0
0.405,-0.166,0
0.406,4.045,0
0.407,-5.476,0
0.408,-0.166,0
0.409,-1.448,0
0.41,-2.547,0
0.411,5.327,0
0.412,4.411,0
0.413,14.665,0
0.414,10.637,0
0.415,4.594,0
0.416,-3.279,0
0.417,-4.195,0
0.418,-5.11,0
0.419,-5.843,0
0.42,-1.997,0
0.421,-1.448,0
0.422,-3.279,0
0.423,-4.927,0
0.424,-1.631,0
0.425,1.482,0
0.426,-1.265,0
0.427,-0.899,0
0.428,-0.532,0
0.429,-1.265,0
0.43,-1.448,0
0.431,-1.631,0
0.432,-1.448,0
0.433,0.566,0
0.434,-2.364,0
0.435,1.848,0
0.436,-0.899,0
0.437,-0.532,0
0.438,0.749,0
0.439,-1.265,0
0.44,0.566,0
0.441,-2.73,0
0.442,-2.364,0
0.443,-3.462,0
0.444,-1.631,0
0.445,1.665,0
0.446,-0.532,0
0.447,-3.279,0
0.448,-0.716,0
0.449,1.115,0
0.45,0.383,0
0.451,-1.448,0
0.452,-0.716,0
0.453,1.848,0
0.454,0.749,0
0.455,1.482,0
0.456,3.313,0
0.457,-0.716,0
0.458,0.932,0
0.459,-0.899,0
0.46,0.383,0
0.461,7.341,0
0.462,8.257,0
0.463,7.341,0
0.464,14.848,0
0.465,-0.349,0
0.466,-6.941,0
0.467,-0.899,0
0.468,-2.73,0
0.469,-4.378,0
0.47,-5.843,0
0.471,-4.561,0
0.472,-5.659,0
0.473,-2.364,0
0.474,-1.448,0
0.475,-2.364,0
0.476,-3.096,0
0.477,0.749,0
0.478,-2.547,0
0.479,-0.716,0
0.48,-3.462,0
0.481,-1.082,0
0.482,-1.448,0
0.483,-2.547,0
0.484,-0.716,0
0.485,-0.349,0
0.486,0.383,0
0.487,-0.899,0
0.488,0.383,0
0.489,-1.814,0
0.49,1.299,0
0.491,0.2,0
0.492,-0.166,0
0.493,2.397,0
0.494,-0.349,0
0.495,2.214,0
0.496,2.58,0
0.497,1.115,0
0.498,1.299,0
0.499,-2.73,0
0.5,2.397,0
0.501,0.566,0
0.502,-3.828,0
0.503,-3.279,0
0.504,0.017,0
0.505,1.299,0
0.506,3.313,0
0.507,0.749,0
0.508,4.045,0
0.509,-0.532,0
0.51,1.299,0
0.511,-1.814,0
0.512,6.609,0
0.513,12.651,0
0.514,13.75,0
0.515,6.792,0
0.516,0.383,0
0.517,-1.997,0
0.518,-4.195,0
0.519,-3.645,0
0.52,-4.195,0
0.521,-3.645,0
0.522,-3.279,0
0.523,-3.645,0
0.524,1.848,0
0.525,1.115,0
0.526,0.566,0
0.527,-1.265,0
0.528,0.383,0
0.529,0.017,0
0.53,-1.265,0
0.531,1.482,0
0.532,1.848,0
0.533,-2.913,0
0.534,-1.082,0
0.535,-0.532,0
0.536,-1.814,0
0.537,-0.532,0
0.538,-0.899,0
0.539,-0.532,0
0.54,-1.631,0
0.541,2.947,0
0.542,1.115,0
0.543,-1.997,0
0.544,1.848,0
0.545,-0.532,0
0.546,-0.899,0
0.547,0.2,0
0.548,-2.364,0
0.549,2.397,0
0.55,-0.716,0
0.551,-3.462,0
0.552,-4.744,0
0.553,-2.547,0
0.554,0.2,0
0.555,-2.364,0
0.556,2.397,0
0.557,0.566,0
0.558,1.115,0
0.559,-0.166,0
0.56,0.2,0
0.561,0.566,0
0.562,3.313,0
0.563,7.524,0
0.564,9.172,0
0.565,1.665,0
0.566,14.116,0
0.567,5.876,0
0.568,-4.561,0
0.569,-3.279,0
0.57,-2.18,0
0.571,-5.476,0
0.572,-6.392,0
0.573,-3.645,0
0.574,-6.026,0
0.575,-3.828,0
0.576,-1.997,0
0.577,-1.448,0
0.578,-1.997,0
0.579,-1.631,0
0.58,-1.265,0
0.581,-3.279,0
0.582,-2.913,0
0.583,-4.744,0
0.584,-0.716,0
0.585,2.031,0
0.586,-3.462,0
0.587,0.383,0
0.588,2.214,0
0.589,0.383,0
0.59,-1.265,0
0.591,4.228,0
0.592,4.961,0
0.593,4.411,0
0.594,-1.265,0
0.595,0.932,0
0.596,2.763,0
0.597,-2.913,0
0.598,-2.18,0
0.599,-0.349,0
0.6,1.482,0
0.601,-3.645,0
0.602,-0.349,0
0.603,-2.18,0
0.604,-0.532,0
0.605,-0.899,0
0.606,1.299,0
0.607,-1.448,0
0.608,-1.082,0
0.609,-2.18,0
0.61,-0.716,0
0.611,-1.448,0
0.612,2.031,0
0.613,0.749,0
0.614,4.228,0
0.615,8.806,0
0.616,-0.716,0
0.617,14.299,0
0.618,4.228,0
0.619,2.397,0
0.62,-2.547,0
0.621,-1.082,0
0.622,-2.364,0
0.623,-3.462,0
0.624,-2.364,0
0.625,-3.279,0
0.626,-2.364,0
0.627,-1.631,0
0.628,-3.828,0
0.629,-1.997,0
0.63,-2.547,0
0.631,-3.096,0
0.632,-2.73,0
0.633,-3.096,0
0.634,0.749,0
0.635,-4.744,0
0.636,-0.899,0
0.637,-0.349,0
0.638,0.2,0
0.639,-0.349,0
0.64,-0.716,0
0.641,1.482,0
0.642,0.383,0
0.643,-1.448,0
0.644,1.115,0
0.645,1.848,0
0.646,0.017,0
0.647,-0.716,0
0.648,-0.899,0
0.649,0.566,0
0.65,3.496,0
0.651,8.073,0
0.652,-1.448,0
0.653,-2.73,0
0.654,0.749,0
0.655,-0.349,0
0.656,0.566,0
0.657,3.313,0
0.658,-2.364,0
0.659,-1.631,0
0.66,-1.082,0
0.661,-2.913,0
0.662,-3.462,0
0.663,0.566,0
0.664,-0.716,0
0.665,6.242,0
0.666,11.186,0
0.667,13.933,0
0.668,6.426,0
0.669,-4.744,0
0.67,-0.349,0
0.671,-4.378,0
0.672,-0.899,0
0.673,0.2,0
0.674,-0.716,0
0.675,0.2,0
0.676,-2.18,0
0.677,-4.378,0
0.678,-4.927,0
0.679,-1.814,0
0.68,-2.364,0
0.681,-1.082,0
0.682,-0.716,0
0.683,-1.814,0
0.684,0.017,0
0.685,-0.349,0
0.686,-3.645,0
0.687,-2.364,0
0.688,2.214,0
0.689,0.383,0
0.69,-0.166,0
0.691,2.214,0
0.692,0.932,0
0.693,-1.082,0
0.694,0.749,0
0.695,-1.814,0
0.696,0.2,0
0.697,1.482,0
0.698,-1.448,0
0.699,-1.814,0
0.7,-0.716,0
0.701,2.031,0
0.702,-0.532,0
0.703,1.299,0
0.704,1.482,0
0.705,-1.082,0
0.706,0.017,0
0.707,-0.716,0
0.708,-1.448,0
0.709,1.482,0
0.71,0.383,0
0.711,0.017,0
0.712,3.313,0
0.713,-3.645,0
0.714,-0.899,0
0.715,-3.828,0
0.716,6.426,0
0.717,2.397,0
0.718,10.82,0
0.719,7.524,0
0.72,-1.631,0
0.721,-0.532,0
0.722,-1.631,0
0.723,-2.547,0
0.724,0.2,0
0.725,0.932,0
0.726,0.2,0
0.727,-1.631,0
0.728,-1.082,0
0.729,-2.73,0
0.73,-2.364,0
0.731,-1.997,0
0.732,-2.364,0
0.733,-1.997,0
0.734,-3.828,0
0.735,-0.532,0
0.736,0.749,0
0.737,0.383,0
0.738,1.482,0
0.739,-4.011,0
0.74,-0.166,0
0.741,-0.716,0
0.742,1.115,0
0.743,0.566,0
0.744,0.932,0
0.745,1.299,0
0.746,0.2,0
0.747,-0.899,0
0.748,-0.532,0
0.749,0.2,0
0.75,2.031,0
0.751,1.299,0
0.752,-0.166,0
0.753,-0.716,0
0.754,1.482,0
0.755,-2.73,0
0.756,0.383,0
0.757,-0.166,0
0.758,0.2,0
0.759,-1.082,0
0.76,0.932,0
0.761,-2.547,0
0.762,0.566,0
0.763,1.665,0
0.764,1.299,0
0.765,-0.166,0
0.766,0.932,0
0.767,5.51,0
0.768,6.059,0
0.769,7.89,0
0.77,16.313,0
0.771,-2.18,0
0.772,-10.054,0
0.773,2.031,0
0.774,-0.166,0
0.775,-2.18,0
0.776,-0.349,0
0.777,-5.293,0
0.778,-0.899,0
0.779,-4.927,0
0.78,-1.448,0
0.781,-4.744,0
0.782,-1.814,0
0.783,-4.561,0
0.784,-3.828,0
0.785,-6.026,0
0.786,-7.857,0
0.787,-2.18,0
0.788,-6.026,0
0.789,-2.73,0
0.79,-0.899,0
0.791,1.848,0
0.792,-2.73,0
0.793,-0.899,0
0.794,-1.448,0
0.795,3.13,0
0.796,2.58,0
0.797,3.13,0
0.798,1.848,0
0.799,3.13,0
0.8,2.031,0
0.801,-0.532,0
0.802,-1.631,0
0.803,-0.899,0
0.804,-2.73,0
0.805,1.299,0
0.806,-3.828,0
0.807,2.397,0
0.808,1.665,0
0.809,-0.532,0
0.81,4.045,0
0.811,4.594,0
0.812,0.749,0
0.813,0.383,0
0.814,-2.73,0
0.815,0.017,0
0.816,0.566,0
0.817,-0.532,0
0.818,4.961,0
0.819,16.496,0
0.82,14.848,0
0.821,10.454,0
0.822,-1.814,0
0.823,-3.462,0
0.824,-4.927,0
0.825,-3.645,0
0.826,-0.166,0
0.827,0.932,0
0.828,-4.011,0
0.829,-6.758,0
0.83,-2.73,0
0.831,-1.997,0
0.832,-1.448,0
0.833,-1.997,0
0.834,1.848,0
0.835,2.214,0
0.836,0.017,0
0.837,3.862,0
0.838,0.566,0
0.839,0.932,0
0.84,-4.561,0
0.841,-3.828,0
0.842,-4.378,0
0.843,-3.828,0
0.844,-1.082,0
0.845,-5.659,0
0.846,-3.828,0
0.847,-1.082,0
0.848,-5.659,0
0.849,-5.11,0
0.85,-1.265,0
0.851,-1.631,0
0.852,-0.349,0
0.853,3.496,0
0.854,0.2,0
0.855,2.397,0
0.856,1.299,0
0.857,-0.532,0
0.858,2.031,0
0.859,1.299,0
0.86,1.482,0
0.861,1.299,0
0.862,-1.814,0
0.863,3.679,0
0.864,-1.631,0
0.865,-2.18,0
0.866,-0.349,0
0.867,-3.828,0
0.868,1.299,0
0.869,11.552,0
0.87,7.158,0
0.871,8.44,0
0.872,9.538,0
0.873,10.637,0
0.874,17.595,0
0.875,3.679,0
0.876,-2.364,0
0.877,-0.532,0
0.878,-2.18,0
0.879,-3.645,0
0.88,-2.364,0
0.881,-5.843,0
0.882,-2.547,0
0.883,-5.476,0
0.884,-0.899,0
0.885,-3.279,0
0.886,-4.011,0
0.887,0.566,0
0.888,-3.828,0
0.889,-2.18,0
0.89,-0.899,0
0.891,-1.265,0
0.892,-2.364,0
0.893,3.313,0
0.894,0.932,0
0.895,-1.265,0
0.896,8.989,0
0.897,4.594,0
0.898,0.566,0
0.899,-0.532,0
0.9,-3.828,0
0.901,-6.758,0
0.902,-4.011,0
0.903,-1.631,0
0.904,-0.899,0
0.905,0.932,0
0.906,0.383,0
0.907,-0.166,0
0.908,-0.532,0
0.909,-0.899,0
0.91,1.115,0
0.911,2.947,0
0.912,-0.349,0
0.913,-2.364,0
0.914,-1.265,0
0.915,-1.631,0
0.916,-3.096,0
0.917,0.017,0
0.918,1.299,0
0.919,-3.279,0
0.92,-0.166,0
0.921,7.158,0
0.922,10.088,0
0.923,7.341,0
0.924,9.721,0
0.925,21.257,0
0.926,16.313,0
0.927,8.806,0
0.928,4.778,0
0.929,1.299,0
0.93,2.397,0
0.931,3.313,0
0.932,4.228,0
0.933,3.496,0
0.934,7.341,0
0.935,9.172,0
0.936,11.003,0
0.937,11.552,0
0.938,12.834,0
0.939,9.721,0
0.94,6.975,0
0.941,5.876,0
0.942,1.115,0
0.943,-5.843,0
0.944,-14.265,0
0.945,-19.942,0
0.946,-22.871,0
0.947,-25.618,0
0.948,-27.998,0
0.949,-22.688,0
0.95,-12.434,0
0.951,-1.997,0
0.952,-0.716,0
0.953,-16.829,0
0.954,-27.815,0
0.955,-41.914,0
0.956,-65.718,0
0.957,-88.24,0
0.958,-108.93,0
0.959,-116.8,0
0.96,-119.19,0
0.961,-121.38,0
0.962,-115.34,0
0.963,-87.874,0
0.964,-76.155,0
0.965,-58.394,0
0.966,-29.097,0
0.967,30.046,0
0.968,106.4,0
0.969,124.34,0
0.97,134.6,0
0.971,143.94,0
0.972,118.67,0
0.973,126.36,0
0.974,119.4,0
0.975,113.18,0
0.976,95.964,0
0.977,90.837,0
0.978,86.076,0
0.979,90.288,0
0.98,94.133,0
0.981,83.513,0
0.982,60.991,0
0.983,40.3,0
0.984,37.737,0
0.985,44.878,0
0.986,47.075,0
0.987,41.032,0
0.988,28.215,0
0.989,9.905,0
0.99,7.524,0
0.991,0.932,0
0.992,2.947,0
0.993,1.115,0
0.994,-7.124,0
0.995,-14.632,0
0.996,-24.153,0
0.997,-30.196,0
0.998,-40.449,0
0.999,-39.168,0
1,-45.21,0
1.001,-50.886,0
1.002,-49.971,0
1.003,-49.055,0
1.004,-46.675,0
1.005,-45.943,0
1.006,-46.492,0
1.007,-40.816,0
1.008,-43.013,0
1.009,-42.464,0
1.01,-41.914,0
1.011,-38.069,0
1.012,-39.351,0
1.013,-40.633,0
1.014,-36.787,0
1.015,-33.491,0
1.016,-31.294,0
1.017,-28.548,0
1.018,-24.336,0
1.019,-19.209,0
1.02,-14.082,0
1.021,-12.251,0
1.022,-2.73,0
1.023,-1.448,0
1.024,-0.349,0
1.025,7.524,0
1.026,10.454,0
1.027,-3.462,0
1.028,-5.476,0
1.029,-3.645,0
1.03,-5.293,0
1.031,-3.828,0
1.032,0.2,0
1.033,-0.899,0
1.034,-1.997,0
1.035,-1.082,0
1.036,-0.166,0
1.037,2.214,0
1.038,0.017,0
1.039,1.848,0
1.04,3.679,0
1.041,5.327,0
1.042,5.693,0
1.043,6.975,0
1.044,8.989,0
1.045,8.623,0
1.046,5.327,0
1.047,4.961,0
1.048,8.44,0
1.049,4.228,0
1.05,5.876,0
1.051,4.594,0
1.052,2.397,0
1.053,2.763,0
1.054,3.862,0
1.055,6.426,0
1.056,6.609,0
1.057,5.876,0
1.058,6.609,0
1.059,8.073,0
1.06,4.778,0
1.061,4.411,0
1.062,5.51,0
1.063,5.144,0
1.064,3.313,0
1.065,0.566,0
1.066,2.397,0
1.067,2.031,0
1.068,2.214,0
1.069,1.482,0
1.07,2.214,0
1.071,-0.899,0
1.072,2.214,0
1.073,0.2,0
1.074,1.299,0
1.075,6.792,0
1.076,15.215,0
1.077,0.383,0
1.078,2.397,0
1.079,-3.096,0
1.08,-1.448,0
1.081,-2.913,0
1.082,-4.195,0
1.083,-7.674,0
1.084,-1.997,0
1.085,-2.913,0
1.086,-0.166,0
1.087,-2.547,0
1.088,-3.279,0
1.089,-3.828,0
1.09,0.566,0
1.091,-1.082,0
1.092,3.496,0
1.093,4.045,0
1.094,2.397,0
1.095,1.115,0
1.096,-1.082,0
1.097,-1.448,0
1.098,2.031,0
1.099,-1.082,0
1.1,0.017,0
1.101,-1.082,0
1.102,-0.716,0
1.103,0.749,0
1.104,-2.364,0
1.105,-0.349,0
1.106,-2.913,0
1.107,-2.547,0
1.108,-1.082,0
1.109,1.482,0
1.11,1.848,0
1.111,2.031,0
1.112,2.214,0
1.113,1.482,0
1.114,2.947,0
1.115,0.566,0
1.116,-2.18,0
1.117,0.383,0
1.118,0.017,0
1.119,0.749,0
1.12,-2.913,0
1.121,-0.532,0
1.122,-0.166,0
1.123,1.115,0
1.124,7.341,0
1.125,15.764,0
1.126,14.665,0
1.127,5.51,0
1.128,4.411,0
1.129,14.665,0
1.13,15.947,0
1.131,2.397,0
1.132,-3.096,0
1.133,-4.744,0
1.134,-9.138,0
1.135,-7.857,0
1.136,-6.758,0
1.137,-5.659,0
1.138,-6.575,0
1.139,-7.49,0
1.14,-3.462,0
1.141,-2.73,0
1.142,7.524,0
1.143,3.13,0
1.144,1.848,0
1.145,-4.195,0
1.146,-3.096,0
1.147,-4.011,0
1.148,0.566,0
1.149,-5.11,0
1.15,-5.843,0
1.151,-4.011,0
1.152,-4.561,0
1.153,-4.011,0
1.154,-1.631,0
1.155,-1.265,0
1.156,-2.364,0
1.157,1.115,0
1.158,-0.166,0
1.159,-2.18,0
1.16,2.763,0
1.161,2.214,0
1.162,0.383,0
1.163,0.932,0
1.164,-2.364,0
1.165,0.749,0
1.166,-5.476,0
1.167,-2.73,0
1.168,-5.11,0
1.169,-1.265,0
1.17,-1.814,0
1.171,2.58,0
1.172,2.031,0
1.173,-0.166,0
1.174,0.2,0
1.175,7.158,0
1.176,6.242,0
1.177,20.158,0
1.178,14.116,0
1.179,8.623,0
1.18,0.383,0
1.181,-7.124,0
1.182,-5.843,0
1.183,-9.322,0
1.184,-6.026,0
1.185,-5.11,0
1.186,-2.364,0
1.187,-1.631,0
1.188,-2.364,0
1.189,0.932,0
1.19,1.482,0
1.191,5.327,0
1.192,2.031,0
1.193,-2.18,0
1.194,1.665,0
1.195,-0.716,0
1.196,-1.082,0
1.197,-3.828,0
1.198,-5.659,0
1.199,-4.561,0
1.2,-2.547,0
1.201,-1.814,0
1.202,-3.096,0
1.203,-0.899,0
1.204,-0.166,0
1.205,0.017,0
1.206,1.482,0
1.207,-1.814,0
1.208,0.383,0
1.209,0.749,0
1.21,0.383,0
1.211,2.214,0
1.212,-1.082,0
1.213,0.2,0
1.214,0.566,0
1.215,1.665,0
1.216,-0.899,0
1.217,-1.631,0
1.218,-2.913,0
1.219,1.115,0
1.22,-2.73,0
1.221,-1.448,0
1.222,-2.73,0
1.223,0.017,0
1.224,1.299,0
1.225,3.862,0
1.226,8.623,0
1.227,-0.899,0
1.228,16.863,0
1.229,4.778,0
1.23,2.58,0
1.231,-3.462,0
1.232,-1.631,0
1.233,-6.575,0
1.234,-2.18,0
1.235,-0.899,0
1.236,-1.997,0
1.237,-3.096,0
1.238,-4.011,0
1.239,-3.096,0
1.24,-0.716,0
1.241,-2.913,0
1.242,1.665,0
1.243,1.115,0
1.244,3.862,0
1.245,2.58,0
1.246,-0.532,0
1.247,-2.547,0
1.248,-0.716,0
1.249,0.383,0
1.25,-1.082,0
1.251,-0.349,0
1.252,0.383,0
1.253,1.848,0
1.254,1.299,0
1.255,4.228,0
1.256,3.13,0
1.257,2.031,0
1.258,3.862,0
1.259,5.876,0
1.26,4.045,0
1.261,4.778,0
1.262,2.214,0
1.263,1.848,0
1.264,-0.166,0
1.265,-1.448,0
1.266,-2.18,0
1.267,-1.631,0
1.268,-0.166,0
1.269,-3.096,0
1.27,0.749,0
1.271,1.115,0
1.272,-1.997,0
1.273,2.58,0
1.274,2.031,0
1.275,2.763,0
1.276,3.313,0
1.277,8.806,0
1.278,4.961,0
1.279,15.215,0
1.28,16.679,0
1.281,1.665,0
1.282,-4.378,0
1.283,-6.209,0
1.284,-4.561,0
1.285,-8.955,0
1.286,-2.18,0
1.287,-5.659,0
1.288,-4.561,0
1.289,-3.645,0
1.29,0.932,0
1.291,-1.448,0
1.292,-0.716,0
1.293,2.58,0
1.294,-0.532,0
1.295,0.017,0
1.296,-1.265,0
1.297,-4.378,0
1.298,-5.476,0
1.299,-2.913,0
1.3,-4.744,0
1.301,-4.011,0
1.302,-1.448,0
1.303,-0.349,0
1.304,-1.082,0
1.305,-0.349,0
1.306,-0.166,0
1.307,-1.631,0
1.308,1.299,0
1.309,2.397,0
1.31,4.228,0
1.311,0.932,0
1.312,3.13,0
1.313,0.383,0
1.314,-3.828,0
1.315,1.299,0
1.316,-3.279,0
1.317,-6.392,0
1.318,-5.843,0
1.319,-5.476,0
1.32,-1.265,0
1.321,2.58,0
1.322,3.862,0
1.323,0.749,0
1.324,0.383,0
1.325,4.594,0
1.326,0.566,0
1.327,-1.082,0
1.328,6.426,0
1.329,-3.828,0
1.33,13.933,0
1.331,6.792,0
1.332,-4.195,0
1.333,-6.209,0
1.334,-0.716,0
1.335,-2.364,0
1.336,-6.758,0
1.337,-5.476,0
1.338,-1.997,0
1.339,-3.096,0
1.34,-2.18,0
1.341,-3.096,0
1.342,-2.364,0
1.343,-1.631,0
1.344,2.947,0
1.345,-1.448,0
1.346,1.299,0
1.347,-4.195,0
1.348,-4.927,0
1.349,-4.378,0
1.35,-6.209,0
1.351,-3.462,0
1.352,-0.166,0
1.353,0.2,0
1.354,0.566,0
1.355,-0.532,0
1.356,0.566,0
1.357,0.749,0
1.358,0.017,0
1.359,1.848,0
1.36,4.961,0
1.361,1.115,0
1.362,-0.166,0
1.363,2.031,0
1.364,0.017,0
1.365,-3.462,0
1.366,-3.096,0
1.367,-1.997,0
1.368,-2.364,0
1.369,-3.462,0
1.37,-1.448,0
1.371,-0.716,0
1.372,-3.096,0
1.373,1.482,0
1.374,0.932,0
1.375,0.383,0
1.376,0.932,0
1.377,3.496,0
1.378,1.115,0
1.379,-3.096,0
1.38,2.031,0
1.381,-2.547,0
1.382,-1.997,0
1.383,-1.448,0
1.384,-2.73,0
1.385,-1.448,0
1.386,-1.082,0
1.387,0.749,0
1.388,6.242,0
1.389,6.975,0
1.39,-1.997,0
1.391,1.482,0
1.392,7.158,0
1.393,4.228,0
1.394,12.651,0
1.395,6.975,0
1.396,-4.195,0
1.397,-5.659,0
1.398,-4.378,0
1.399,-5.476,0
1.4,-6.575,0
1.401,-3.645,0
1.402,-6.392,0
1.403,-2.364,0
1.404,-4.561,0
1.405,1.665,0
1.406,-2.364,0
1.407,2.947,0
1.408,1.115,0
1.409,-0.716,0
1.41,-3.462,0
1.411,2.031,0
1.412,-0.166,0
1.413,-0.716,0
1.414,-2.547,0
1.415,-4.195,0
1.416,-5.476,0
1.417,-5.843,0
1.418,-1.265,0
1.419,1.848,0
1.42,2.397,0
1.421,-0.899,0
1.422,0.383,0
1.423,3.13,0
1.424,2.763,0
1.425,3.13,0
1.426,1.115,0
1.427,3.679,0
1.428,4.961,0
1.429,1.665,0
1.43,7.89,0
1.431,5.144,0
1.432,7.524,0
1.433,11.369,0
1.434,11.919,0
1.435,7.524,0
1.436,-0.899,0
1.437,-1.997,0
1.438,-0.899,0
1.439,-3.828,0
1.44,0.749,0
1.441,-3.279,0
1.442,2.031,0
1.443,1.482,0
1.444,-0.349,0
1.445,0.2,0
1.446,-1.082,0
1.447,-5.293,0
1.448,-5.843,0
1.449,-6.209,0
1.45,-4.011,0
1.451,-3.645,0
1.452,-4.011,0
1.453,-2.913,0
1.454,-0.899,0
1.455,-0.166,0
1.456,1.115,0
1.457,1.299,0
1.458,1.848,0
1.459,1.299,0
1.46,1.482,0
1.461,0.749,0
1.462,2.763,0
1.463,0.2,0
1.464,-0.532,0
1.465,-4.744,0
1.466,-6.575,0
1.467,-3.828,0
1.468,-1.448,0
1.469,-1.082,0
1.47,0.017,0
1.471,0.383,0
1.472,-0.716,0
1.473,-0.899,0
1.474,-0.166,0
1.475,3.313,0
1.476,0.2,0
1.477,2.947,0
1.478,-0.532,0
1.479,1.299,0
1.48,0.017,0
1.481,6.242,0
1.482,10.82,0
1.483,5.144,0
1.484,1.299,0
1.485,5.876,0
1.486,5.327,0
1.487,6.975,0
1.488,7.341,0
1.489,10.454,0
1.49,15.947,0
1.491,13.75,0
1.492,6.242,0
1.493,-2.913,0
1.494,-4.011,0
1.495,-5.11,0
1.496,-4.195,0
1.497,-6.941,0
1.498,-9.322,0
1.499,-8.589,0
1.5,-9.138,0
1.501,-8.589,0
1.502,-6.941,0
1.503,-5.659,0
1.504,-3.462,0
1.505,-1.448,0
1.506,-1.814,0
1.507,-2.18,0
1.508,-0.166,0
1.509,1.115,0
1.51,1.848,0
1.511,-0.716,0
1.512,0.383,0
1.513,-1.631,0
1.514,-0.349,0
1.515,-1.631,0
1.516,-4.744,0
1.517,0.749,0
1.518,-1.448,0
1.519,0.383,0
1.52,0.932,0
1.521,0.383,0
1.522,1.665,0
1.523,2.031,0
1.524,4.045,0
1.525,0.566,0
1.526,4.778,0
1.527,3.13,0
1.528,1.848,0
1.529,1.482,0
1.53,-0.899,0
1.531,0.2,0
1.532,3.679,0
1.533,-3.279,0
1.534,11.919,0
1.535,5.327,0
1.536,-4.744,0
1.537,0.749,0
1.538,2.397,0
1.539,0.932,0
1.54,-0.349,0
1.541,-1.448,0
1.542,-0.349,0
1.543,0.566,0
1.544,1.482,0
1.545,-2.547,0
1.546,-0.349,0
1.547,-4.927,0
1.548,-4.378,0
1.549,-6.026,0
1.55,-3.645,0
1.551,-3.279,0
1.552,-0.532,0
1.553,-3.096,0
1.554,-0.532,0
1.555,1.482,0
1.556,2.214,0
1.557,0.383,0
1.558,-1.082,0
1.559,1.299,0
1.56,3.313,0
1.561,2.031,0
1.562,0.749,0
1.563,-0.349,0
1.564,-2.364,0
1.565,-3.096,0
1.566,-3.645,0
1.567,-4.744,0
1.568,-1.814,0
1.569,0.932,0
1.57,-0.899,0
1.571,0.932,0
1.572,0.2,0
1.573,2.763,0
1.574,3.13,0
1.575,0.383,0
1.576,3.862,0
1.577,-2.18,0
1.578,1.848,0
1.579,-1.997,0
1.58,-1.448,0
1.581,-3.828,0
1.582,-3.279,0
1.583,5.144,0
1.584,4.045,0
1.585,7.341,0
1.586,6.426,0
1.587,7.341,0
1.588,8.073,0
1.589,16.496,0
1.59,-0.532,0
1.591,-7.674,0
1.592,3.313,0
1.593,-2.73,0
1.594,-0.899,0
1.595,-2.547,0
1.596,-6.941,0
1.597,-5.659,0
1.598,-4.561,0
1.599,-7.857,0
1.6,-6.941,0
1.601,-6.026,0
1.602,-5.293,0
1.603,-3.096,0
1.604,-2.547,0
1.605,-1.997,0
1.606,-1.448,0
1.607,-1.814,0
1.608,-0.532,0
1.609,0.566,0
1.61,3.13,0
1.611,4.228,0
1.612,2.214,0
1.613,-1.997,0
1.614,-2.547,0
1.615,-1.997,0
1.616,-1.631,0
1.617,-1.265,0
1.618,1.482,0
1.619,-3.462,0
1.62,1.115,0
1.621,1.665,0
1.622,3.313,0
1.623,2.947,0
1.624,1.665,0
1.625,2.031,0
1.626,4.594,0
1.627,3.496,0
1.628,2.763,0
1.629,-0.349,0
1.63,0.017,0
1.631,-4.195,0
1.632,-5.293,0
1.633,-5.843,0
1.634,1.665,0
1.635,-10.786,0
1.636,-2.547,0
1.637,-1.082,0
1.638,8.44,0
1.639,2.397,0
1.64,12.651,0
1.641,11.369,0
1.642,2.947,0
1.643,1.848,0
1.644,0.932,0
1.645,-1.814,0
1.646,-2.547,0
1.647,-1.814,0
1.648,-5.11,0
1.649,-9.505,0
1.65,-7.857,0
1.651,-2.364,0
1.652,-4.561,0
1.653,-2.73,0
1.654,-3.279,0
1.655,0.566,0
1.656,-0.716,0
1.657,-2.913,0
1.658,1.665,0
1.659,-1.448,0
1.66,4.778,0
1.661,2.397,0
1.662,-1.448,0
1.663,0.383,0
1.664,-2.73,0
1.665,-4.378,0
1.666,0.2,0
1.667,-2.913,0
1.668,-3.462,0
1.669,-1.082,0
1.67,-1.448,0
1.671,-0.349,0
1.672,0.749,0
1.673,-1.082,0
1.674,0.932,0
1.675,3.496,0
1.676,4.594,0
1.677,4.411,0
1.678,2.58,0
1.679,-1.448,0
1.68,0.2,0
1.681,-1.082,0
1.682,-2.364,0
1.683,-1.631,0
1.684,0.383,0
1.685,6.059,0
1.686,-6.392,0
1.687,10.088,0
1.688,7.89,0
1.689,9.905,0
1.69,8.073,0
1.691,-0.166,0
1.692,19.426,0
1.693,11.552,0
1.694,4.411,0
1.695,2.214,0
1.696,-3.828,0
1.697,-1.997,0
1.698,-6.941,0
1.699,-11.336,0
1.7,-10.054,0
1.701,-11.153,0
1.702,-3.279,0
1.703,-2.364,0
1.704,-5.11,0
1.705,-4.378,0
1.706,-5.11,0
1.707,-1.814,0
1.708,-1.265,0
1.709,2.58,0
1.71,0.2,0
1.711,1.482,0
1.712,-1.265,0
1.713,-0.166,0
1.714,-2.73,0
1.715,-3.462,0
1.716,-3.645,0
1.717,-4.378,0
1.718,-3.828,0
1.719,-1.448,0
1.72,-0.716,0
1.721,0.566,0
1.722,1.299,0
1.723,-0.899,0
1.724,0.383,0
1.725,4.411,0
1.726,1.665,0
1.727,2.031,0
1.728,3.313,0
1.729,6.059,0
1.73,1.848,0
1.731,-1.997,0
1.732,-2.364,0
1.733,-3.645,0
1.734,-1.631,0
1.735,-2.73,0
1.736,2.947,0
1.737,6.975,0
1.738,9.172,0
1.739,7.341,0
1.74,6.792,0
1.741,15.215,0
1.742,14.116,0
1.743,-2.913,0
1.744,-0.532,0
1.745,-2.73,0
1.746,-4.744,0
1.747,-2.913,0
1.748,-7.857,0
1.749,-9.322,0
1.75,-8.04,0
1.751,-4.561,0
1.752,-5.659,0
1.753,-0.716,0
1.754,0.2,0
1.755,0.932,0
1.756,-1.265,0
1.757,-0.716,0
1.758,1.115,0
1.759,4.961,0
1.76,2.58,0
1.761,1.299,0
1.762,-1.448,0
1.763,-4.011,0
1.764,-2.913,0
1.765,-6.941,0
1.766,-7.49,0
1.767,-2.913,0
1.768,0.2,0
1.769,-0.349,0
1.77,-0.716,0
1.771,-1.082,0
1.772,0.932,0
1.773,-3.279,0
1.774,1.848,0
1.775,2.397,0
1.776,0.566,0
1.777,4.411,0
1.778,6.792,0
1.779,3.679,0
1.78,0.932,0
1.781,-3.279,0
1.782,1.848,0
1.783,1.299,0
1.784,-0.532,0
1.785,1.299,0
1.786,1.848,0
1.787,8.44,0
1.788,9.355,0
1.789,8.623,0
1.79,6.426,0
1.791,4.594,0
1.792,10.271,0
1.793,15.581,0
1.794,5.327,0
1.795,0.932,0
1.796,-5.843,0
1.797,-6.941,0
1.798,-10.237,0
1.799,-11.153,0
1.8,-10.237,0
1.801,-7.857,0
1.802,-2.547,0
1.803,-4.378,0
1.804,0.017,0
1.805,-0.532,0
1.806,-0.899,0
1.807,1.299,0
1.808,-0.716,0
1.809,-0.349,0
1.81,1.482,0
1.811,1.299,0
1.812,-2.364,0
1.813,-1.082,0
1.814,-2.364,0
1.815,-6.209,0
1.816,-4.927,0
1.817,-7.124,0
1.818,-6.026,0
1.819,-1.814,0
1.82,-0.166,0
1.821,-3.462,0
1.822,-0.349,0
1.823,3.496,0
1.824,3.13,0
1.825,0.932,0
1.826,3.679,0
1.827,-1.997,0
1.828,5.51,0
1.829,4.594,0
1.83,1.848,0
1.831,-2.18,0
1.832,-1.448,0
1.833,-4.744,0
1.834,-2.913,0
1.835,-2.364,0
1.836,0.566,0
1.837,-0.716,0
1.838,6.242,0
1.839,15.398,0
1.84,16.496,0
1.841,8.623,0
1.842,5.693,0
1.843,2.947,0
1.844,-1.082,0
1.845,2.763,0
1.846,-1.814,0
1.847,-3.645,0
1.848,-8.772,0
1.849,-6.941,0
1.85,-1.265,0
1.851,-5.11,0
1.852,-5.659,0
1.853,0.017,0
1.854,-2.18,0
1.855,-0.349,0
1.856,-2.18,0
1.857,5.144,0
1.858,4.228,0
1.859,3.313,0
1.86,4.045,0
1.861,3.313,0
1.862,0.017,0
1.863,-0.532,0
1.864,-2.18,0
1.865,-3.462,0
1.866,-3.828,0
1.867,-2.73,0
1.868,-0.899,0
1.869,-2.73,0
1.87,0.017,0
1.871,-1.082,0
1.872,-0.716,0
1.873,0.017,0
1.874,2.58,0
1.875,2.214,0
1.876,2.031,0
1.877,0.749,0
1.878,-1.631,0
1.879,1.115,0
1.88,6.792,0
1.881,-2.364,0
1.882,-1.265,0
1.883,-4.561,0
1.884,-1.631,0
1.885,-2.547,0
1.886,-3.279,0
1.887,-0.166,0
1.888,-2.364,0
1.889,7.89,0
1.89,9.355,0
1.891,16.13,0
1.892,12.651,0
1.893,0.2,0
1.894,-1.448,0
1.895,0.017,0
1.896,-4.011,0
1.897,-2.913,0
1.898,-4.011,0
1.899,-1.082,0
1.9,1.665,0
1.901,2.397,0
1.902,9.355,0
1.903,12.102,0
1.904,11.369,0
1.905,16.679,0
1.906,16.13,0
1.907,11.736,0
1.908,10.088,0
1.909,7.707,0
1.91,8.989,0
1.911,6.242,0
1.912,0.566,0
1.913,-11.885,0
1.914,-17.378,0
1.915,-22.322,0
1.916,-23.787,0
1.917,-27.815,0
1.918,-19.392,0
1.919,-6.941,0
1.92,4.594,0
1.921,6.059,0
1.922,-8.955,0
1.923,-27.083,0
1.924,-39.168,0
1.925,-63.521,0
1.926,-79.634,0
1.927,-106.37,0
1.928,-109.85,0
1.929,-119.37,0
1.93,-128.16,0
1.931,-125.59,0
1.932,-98.86,0
1.933,-88.24,0
1.934,-72.127,0
1.935,-33.491,0
1.936,34.807,0
1.937,100.18,0
1.938,112.63,0
1.939,121.05,0
1.94,144.12,0
1.941,109.15,0
1.942,102.92,0
1.943,108.6,0
1.944,93.034,0
1.945,78.752,0
1.946,91.57,0
1.947,87.724,0
1.948,91.203,0
1.949,88.091,0
1.95,73.259,0
1.951,43.779,0
1.952,32.06,0
1.953,35.539,0
1.954,51.653,0
1.955,54.582,0
1.956,46.709,0
1.957,39.568,0
1.958,24.187,0
1.959,14.116,0
1.96,12.285,0
1.961,17.229,0
1.962,9.721,0
1.963,2.947,0
1.964,-10.603,0
1.965,-19.759,0
1.966,-31.294,0
1.967,-35.689,0
1.968,-36.97,0
1.969,-40.449,0
1.97,-46.126,0
1.971,-47.041,0
1.972,-44.295,0
1.973,-41.914,0
1.974,-41.182,0
1.975,-40.633,0
1.976,-40.083,0
1.977,-41.731,0
1.978,-44.112,0
1.979,-45.393,0
1.98,-45.027,0
1.981,-41.548,0
1.982,-40.266,0
1.983,-40.633,0
1.984,-34.956,0
1.985,-32.576,0
1.986,-28.731,0
1.987,-28.181,0
1.988,-21.223,0
1.989,-17.012,0
1.99,-12.434,0
1.991,-11.702,0
1.992,-1.631,0
1.993,-0.349,0
1.994,0.749,0
1.995,1.848,0
1.996,2.763,0
1.997,3.679,0
1.998,-0.349,0
1.999,0.383,0
2,2.214,0
2.001,1.665,0
2.002,10.088,0
2.003,16.13,0
2.004,8.257,0
2.005,-0.899,0
2.006,0.2,0
2.007,1.299,0
2.008,0.383,0
2.009,1.299,0
2.01,3.679,0
2.011,1.482,0
2.012,-0.349,0
2.013,4.045,0
2.014,0.2,0
2.015,-1.082,0
2.016,2.031,0
2.017,0.932,0
2.018,5.144,0
2.019,6.792,0
2.02,5.51,0
2.021,4.228,0
2.022,2.214,0
2.023,5.693,0
2.024,5.327,0
2.025,8.073,0
2.026,6.975,0
2.027,4.411,0
2.028,7.158,0
2.029,1.482,0
2.03,3.862,0
2.031,4.594,0
2.032,2.763,0
2.033,-0.349,0
2.034,1.299,0
2.035,4.594,0
2.036,4.961,0
2.037,3.862,0
2.038,3.496,0
2.039,2.397,0
2.04,5.693,0
2.041,4.228,0
2.042,8.44,0
2.043,12.834,0
2.044,11.186,0
2.045,18.694,0
2.046,13.017,0
2.047,-0.166,0
2.048,-5.659,0
2.049,-4.011,0
2.05,-5.476,0
2.051,-4.195,0
2.052,-7.674,0
2.053,-4.378,0
2.054,-3.462,0
2.055,-0.716,0
2.056,1.665,0
2.057,2.397,0
2.058,0.566,0
2.059,3.679,0
2.06,-0.166,0
2.061,0.2,0
2.062,-1.997,0
2.063,-2.364,0
2.064,-1.265,0
2.065,-1.631,0
2.066,-3.645,0
2.067,0.017,0
2.068,0.383,0
2.069,-0.899,0
2.07,0.2,0
2.071,2.763,0
2.072,1.665,0
2.073,0.932,0
2.074,2.763,0
2.075,2.947,0
2.076,2.763,0
2.077,5.144,0
2.078,0.566,0
2.079,1.115,0
2.08,-0.716,0
2.081,0.932,0
2.082,-2.364,0
2.083,-5.476,0
2.084,-3.462,0
2.085,0.749,0
2.086,0.2,0
2.087,0.566,0
2.088,-2.547,0
2.089,-1.448,0
2.09,-3.279,0
2.091,2.031,0
2.092,0.932,0
2.093,5.51,0
2.094,10.088,0
2.095,0.566,0
2.096,15.581,0
2.097,5.51,0
2.098,-3.645,0
2.099,-1.997,0
2.1,-6.392,0
2.101,-5.11,0
2.102,-6.209,0
2.103,-7.307,0
2.104,-4.378,0
2.105,-1.631,0
2.106,-0.899,0
2.107,-3.096,0
2.108,-3.645,0
2.109,0.749,0
2.11,1.299,0
2.111,1.665,0
2.112,-2.547,0
2.113,-0.899,0
2.114,-4.195,0
2.115,-2.913,0
2.116,-6.758,0
2.117,-3.462,0
2.118,-3.096,0
2.119,-1.997,0
2.12,-0.166,0
2.121,2.397,0
2.122,2.214,0
2.123,1.482,0
2.124,2.214,0
2.125,5.693,0
2.126,8.989,0
2.127,4.778,0
2.128,2.031,0
2.129,0.749,0
2.13,-1.448,0
2.131,-4.195,0
2.132,-5.293,0
2.133,-2.73,0
2.134,-3.462,0
2.135,-4.744,0
2.136,-1.814,0
2.137,-0.716,0
2.138,0.383,0
2.139,1.115,0
2.14,-1.448,0
2.141,-1.814,0
2.142,2.031,0
2.143,0.566,0
2.144,4.778,0
2.145,10.454,0
2.146,6.609,0
2.147,14.116,0
2.148,2.947,0
2.149,-4.561,0
2.15,-5.843,0
2.151,-4.744,0
2.152,-5.843,0
2.153,-2.913,0
2.154,-5.659,0
2.155,0.017,0
2.156,-0.716,0
2.157,-5.293,0
2.158,-2.18,0
2.159,0.566,0
2.16,-2.73,0
2.161,-0.532,0
2.162,-6.026,0
2.163,-2.18,0
2.164,-4.011,0
2.165,-5.843,0
2.166,-5.293,0
2.167,-2.913,0
2.168,-2.547,0
2.169,0.2,0
2.17,-0.899,0
2.171,-0.532,0
2.172,2.214,0
2.173,2.58,0
2.174,0.749,0
2.175,3.496,0
2.176,6.059,0
2.177,4.228,0
2.178,1.482,0
2.179,-0.349,0
2.18,0.749,0
2.181,-0.716,0
2.182,-1.448,0
2.183,-3.828,0
2.184,-3.645,0
2.185,-4.378,0
2.186,-0.349,0
2.187,-1.997,0
2.188,0.383,0
2.189,1.665,0
2.19,-1.082,0
2.191,2.397,0
2.192,4.594,0
2.193,1.299,0
2.194,2.397,0
2.195,8.073,0
2.196,8.806,0
2.197,11.003,0
2.198,11.552,0
2.199,4.594,0
2.2,-1.814,0
2.201,-2.547,0
2.202,-3.279,0
2.203,-2.73,0
2.204,-0.899,0
2.205,-4.744,0
2.206,-3.462,0
2.207,-2.18,0
2.208,-1.082,0
2.209,0.017,0
2.21,1.848,0
2.211,1.115,0
2.212,-0.166,0
2.213,-2.547,0
2.214,-4.561,0
2.215,-3.279,0
2.216,-4.561,0
2.217,-4.011,0
2.218,-0.716,0
2.219,0.566,0
2.22,-0.532,0
2.221,1.299,0
2.222,-1.265,0
2.223,-1.448,0
2.224,2.214,0
2.225,6.792,0
2.226,4.961,0
2.227,5.51,0
2.228,3.13,0
2.229,0.932,0
2.23,1.299,0
2.231,-0.532,0
2.232,-0.166,0
2.233,0.017,0
2.234,-0.166,0
2.235,0.566,0
2.236,1.115,0
2.237,2.58,0
2.238,2.763,0
2.239,2.947,0
2.24,4.961,0
2.241,7.524,0
2.242,4.228,0
2.243,3.862,0
2.244,3.496,0
2.245,-0.349,0
2.246,7.158,0
2.247,8.257,0
2.248,3.313,0
2.249,2.397,0
2.25,3.13,0
2.251,11.552,0
2.252,3.679,0
2.253,-5.476,0
2.254,-1.997,0
2.255,-0.899,0
2.256,-3.828,0
2.257,-2.913,0
2.258,-0.532,0
2.259,0.2,0
2.26,0.749,0
2.261,-2.364,0
2.262,-4.011,0
2.263,-2.73,0
2.264,-7.857,0
2.265,-6.026,0
2.266,-6.575,0
2.267,-7.124,0
2.268,-5.843,0
2.269,-5.476,0
2.27,0.749,0
2.271,-0.166,0
2.272,-0.899,0
2.273,-3.096,0
2.274,0.2,0
2.275,0.749,0
2.276,5.876,0
2.277,1.299,0
2.278,-1.814,0
2.279,-1.265,0
2.28,0.017,0
2.281,1.299,0
2.282,-4.195,0
2.283,-4.927,0
2.284,-1.631,0
2.285,1.482,0
2.286,-1.265,0
2.287,0.017,0
2.288,-0.349,0
2.289,2.397,0
2.29,-1.082,0
2.291,0.2,0
2.292,4.045,0
2.293,1.665,0
2.294,3.862,0
2.295,-0.166,0
2.296,-1.265,0
2.297,2.214,0
2.298,3.496,0
2.299,1.482,0
2.3,2.58,0
2.301,3.679,0
2.302,8.257,0
2.303,4.961,0
2.304,13.2,0
2.305,5.327,0
2.306,-9.871,0
2.307,-3.279,0
2.308,-5.293,0
2.309,-3.462,0
2.31,-1.814,0
2.311,-3.279,0
2.312,-1.997,0
2.313,-5.476,0
2.314,-8.772,0
2.315,-7.857,0
2.316,-6.941,0
2.317,-4.561,0
2.318,-2.364,0
2.319,-2.913,0
2.32,-1.082,0
2.321,0.566,0
2.322,-2.73,0
2.323,-0.532,0
2.324,-2.547,0
2.325,3.13,0
2.326,0.749,0
2.327,1.482,0
2.328,0.932,0
2.329,0.383,0
2.33,-0.166,0
2.331,0.2,0
2.332,-4.927,0
2.333,-1.631,0
2.334,-1.082,0
2.335,-0.532,0
2.336,-0.166,0
2.337,2.031,0
2.338,0.932,0
2.339,-2.547,0
2.34,0.566,0
2.341,4.411,0
2.342,3.13,0
2.343,2.763,0
2.344,0.017,0
2.345,-3.462,0
2.346,-1.631,0
2.347,-0.349,0
2.348,5.876,0
2.349,1.299,0
2.35,13.75,0
2.351,4.594,0
2.352,-3.645,0
2.353,-2.18,0
2.354,-3.462,0
2.355,-2.364,0
2.356,-1.265,0
2.357,-2.18,0
2.358,0.566,0
2.359,1.299,0
2.36,-0.899,0
2.361,-1.448,0
2.362,-0.899,0
2.363,-2.547,0
2.364,-2.913,0
2.365,-2.547,0
2.366,-6.392,0
2.367,-3.096,0
2.368,-4.378,0
2.369,1.115,0
2.37,-1.082,0
2.371,9.172,0
2.372,7.707,0
2.373,0.932,0
2.374,-0.166,0
2.375,0.932,0
2.376,1.848,0
2.377,0.932,0
2.378,-1.448,0
2.379,-0.716,0
2.38,-1.265,0
2.381,-3.096,0
2.382,-5.843,0
2.383,-3.462,0
2.384,-4.744,0
2.385,0.749,0
2.386,-3.096,0
2.387,1.482,0
2.388,-1.631,0
2.389,-1.082,0
2.39,0.2,0
2.391,-1.082,0
2.392,4.411,0
2.393,3.679,0
2.394,1.848,0
2.395,1.299,0
2.396,0.749,0
2.397,-1.631,0
2.398,-4.011,0
2.399,2.947,0
2.4,5.876,0
2.401,4.961,0
2.402,-4.195,0
2.403,14.299,0
2.404,6.426,0
2.405,-0.716,0
2.406,1.482,0
2.407,-0.532,0
2.408,-2.364,0
2.409,-0.716,0
2.41,0.749,0
2.411,-3.279,0
2.412,-2.18,0
2.413,-5.476,0
2.414,-2.547,0
2.415,-1.631,0
2.416,-5.659,0
2.417,-0.349,0
2.418,-0.899,0
2.419,-0.349,0
2.42,0.2,0
2.421,-1.082,0
2.422,-0.716,0
2.423,-0.349,0
2.424,-2.18,0
2.425,2.58,0
2.426,2.031,0
2.427,2.58,0
2.428,-1.997,0
2.429,-1.448,0
2.43,-1.997,0
2.431,-1.631,0
2.432,-2.913,0
2.433,-3.279,0
2.434,-1.448,0
2.435,-3.279,0
2.436,-4.744,0
2.437,-0.532,0
2.438,-6.209,0
2.439,0.749,0
2.44,-0.166,0
2.441,3.862,0
2.442,4.594,0
2.443,4.045,0
2.444,3.496,0
2.445,-0.349,0
2.446,2.947,0
2.447,-0.166,0
2.448,-3.828,0
2.449,-4.927,0
2.45,0.749,0
2.451,4.778,0
2.452,5.51,0
2.453,15.764,0
2.454,8.257,0
2.455,-4.011,0
2.456,-2.364,0
2.457,-0.899,0
2.458,-2.18,0
2.459,-1.082,0
2.46,0.017,0
2.461,-2.913,0
2.462,-1.997,0
2.463,-4.378,0
2.464,-5.11,0
2.465,-5.659,0
2.466,-7.49,0
2.467,-3.645,0
2.468,-3.279,0
2.469,-1.997,0
2.47,0.017,0
2.471,-1.814,0
2.472,1.482,0
2.473,0.383,0
2.474,-1.448,0
2.475,1.848,0
2.476,2.214,0
2.477,1.848,0
2.478,0.749,0
2.479,0.017,0
2.48,-2.547,0
2.481,0.749,0
2.482,-4.744,0
2.483,-2.547,0
2.484,-0.716,0
2.485,-2.547,0
2.486,0.2,0
2.487,-1.082,0
2.488,2.031,0
2.489,3.13,0
2.49,2.763,0
2.491,0.932,0
2.492,1.665,0
2.493,1.482,0
2.494,0.749,0
2.495,4.228,0
2.496,-1.265,0
2.497,0.932,0
2.498,-3.645,0
2.499,-3.096,0
2.5,-2.547,0
2.501,5.876,0
2.502,4.778,0
2.503,5.876,0
2.504,6.792,0
2.505,4.045,0
2.506,16.496,0
2.507,-3.645,0
2.508,-6.209,0
2.509,-3.828,0
2.51,-1.631,0
2.511,0.383,0
2.512,-1.448,0
2.513,-6.392,0
2.514,-4.927,0
2.515,-6.209,0
2.516,-7.307,0
2.517,-6.209,0
2.518,-5.293,0
2.519,-2.547,0
2.52,-3.279,0
2.521,-1.082,0
2.522,2.214,0
2.523,-2.18,0
2.524,-0.532,0
2.525,1.848,0
2.526,1.482,0
2.527,-4.011,0
2.528,1.299,0
2.529,-1.997,0
2.53,-2.547,0
2.531,-1.997,0
2.532,-3.279,0
2.533,-1.997,0
2.534,-0.899,0
2.535,-2.73,0
2.536,-0.899,0
2.537,1.115,0
2.538,-0.166,0
2.539,0.017,0
2.54,-1.448,0
2.541,1.848,0
2.542,4.045,0
2.543,3.679,0
2.544,1.848,0
2.545,1.482,0
2.546,0.017,0
2.547,-0.166,0
2.548,-1.448,0
2.549,-4.011,0
2.55,-3.096,0
2.551,-0.532,0
2.552,4.045,0
2.553,5.876,0
2.554,15.398,0
2.555,14.116,0
2.556,8.073,0
2.557,2.397,0
2.558,-0.532,0
2.559,0.383,0
2.56,-0.349,0
2.561,-1.082,0
2.562,-1.631,0
2.563,-2.18,0
2.564,-4.927,0
2.565,-3.645,0
2.566,-10.603,0
2.567,-5.659,0
2.568,-1.082,0
2.569,-0.349,0
2.57,0.383,0
2.571,-1.448,0
2.572,-3.279,0
2.573,-0.532,0
2.574,0.749,0
2.575,0.383,0
2.576,3.13,0
2.577,1.299,0
2.578,0.2,0
2.579,-0.532,0
2.58,-2.364,0
2.581,-1.082,0
2.582,-0.899,0
2.583,-0.716,0
2.584,-3.279,0
2.585,1.482,0
2.586,0.932,0
2.587,-2.913,0
2.588,-0.532,0
2.589,0.749,0
2.59,-1.997,0
2.591,2.947,0
2.592,2.397,0
2.593,1.848,0
2.594,2.397,0
2.595,2.763,0
2.596,2.397,0
2.597,0.383,0
2.598,-3.096,0
2.599,-4.378,0
2.6,-0.532,0
2.601,-0.166,0
2.602,-2.547,0
2.603,4.411,0
2.604,5.327,0
2.605,8.073,0
2.606,15.581,0
2.607,12.651,0
2.608,-1.265,0
2.609,0.749,0
2.61,-1.082,0
2.611,0.566,0
2.612,-3.828,0
2.613,-5.11,0
2.614,-4.011,0
2.615,-5.11,0
2.616,-6.026,0
2.617,2.397,0
2.618,3.496,0
2.619,-3.462,0
2.62,-0.716,0
2.621,-3.096,0
2.622,-0.899,0
2.623,-1.448,0
2.624,-0.899,0
2.625,1.848,0
2.626,1.482,0
2.627,0.2,0
2.628,-0.899,0
2.629,0.932,0
2.63,-4.561,0
2.631,-2.364,0
2.632,-1.814,0
2.633,-1.265,0
2.634,-2.913,0
2.635,0.383,0
2.636,1.665,0
2.637,-1.082,0
2.638,0.017,0
2.639,1.115,0
2.64,1.299,0
2.641,2.031,0
2.642,2.214,0
2.643,-0.349,0
2.644,0.017,0
2.645,0.749,0
2.646,-2.913,0
2.647,1.665,0
2.648,-4.011,0
2.649,-1.814,0
2.65,-5.11,0
2.651,0.566,0
2.652,-0.166,0
2.653,2.031,0
2.654,12.285,0
2.655,7.89,0
2.656,9.172,0
2.657,8.073,0
2.658,18.327,0
2.659,14.299,0
2.66,8.257,0
2.661,-4.195,0
2.662,-2.547,0
2.663,-4.011,0
2.664,-5.293,0
2.665,-4.195,0
2.666,-7.49,0
2.667,-6.575,0
2.668,-3.828,0
2.669,-4.561,0
2.67,-2.364,0
2.671,-4.195,0
2.672,-2.364,0
2.673,-0.716,0
2.674,-3.096,0
2.675,0.017,0
2.676,2.031,0
2.677,3.13,0
2.678,0.566,0
2.679,-0.166,0
2.68,1.115,0
2.681,-2.364,0
2.682,-2.73,0
2.683,-0.716,0
2.684,-1.082,0
2.685,1.482,0
2.686,1.299,0
2.687,-2.913,0
2.688,0.2,0
2.689,-1.448,0
2.69,3.13,0
2.691,2.58,0
2.692,4.228,0
2.693,3.862,0
2.694,2.58,0
2.695,1.482,0
2.696,0.383,0
2.697,-3.645,0
2.698,-3.279,0
2.699,-1.997,0
2.7,-6.575,0
2.701,-3.462,0
2.702,-1.814,0
2.703,0.566,0
2.704,1.848,0
2.705,8.806,0
2.706,-4.378,0
2.707,19.426,0
2.708,9.905,0
2.709,1.115,0
2.71,3.679,0
2.711,1.299,0
2.712,-5.293,0
2.713,-3.279,0
2.714,-5.11,0
2.715,-6.758,0
2.716,-8.223,0
2.717,-4.195,0
2.718,-5.293,0
2.719,-4.195,0
2.72,-1.265,0
2.721,-0.349,0
2.722,-2.73,0
2.723,-1.997,0
2.724,2.58,0
2.725,3.13,0
2.726,3.679,0
2.727,2.397,0
2.728,0.2,0
2.729,-0.899,0
2.73,-2.73,0
2.731,-2.364,0
2.732,-4.378,0
2.733,-2.547,0
2.734,1.482,0
2.735,0.932,0
2.736,2.214,0
2.737,-1.997,0
2.738,0.749,0
2.739,-1.631,0
2.74,-1.265,0
2.741,1.482,0
2.742,5.693,0
2.743,2.947,0
2.744,1.665,0
2.745,0.383,0
2.746,-0.716,0
2.747,-5.659,0
2.748,-5.11,0
2.749,-5.659,0
2.75,-5.11,0
2.751,-0.532,0
2.752,1.299,0
2.753,0.749,0
2.754,3.496,0
2.755,3.862,0
2.756,10.82,0
2.757,11.736,0
2.758,10.82,0
2.759,14.848,0
2.76,12.651,0
2.761,2.397,0
2.762,15.947,0
2.763,6.792,0
2.764,-4.744,0
2.765,-6.209,0
2.766,-10.237,0
2.767,-11.336,0
2.768,-12.434,0
2.769,-9.505,0
2.77,-3.096,0
2.771,-3.828,0
2.772,-6.026,0
2.773,-4.195,0
2.774,-7.307,0
2.775,-3.462,0
2.776,-2.18,0
2.777,0.932,0
2.778,3.679,0
2.779,2.58,0
2.78,-1.448,0
2.781,-2.73,0
2.782,-5.843,0
2.783,-3.828,0
2.784,-3.462,0
2.785,-2.364,0
2.786,-3.096,0
2.787,0.566,0
2.788,0.2,0
2.789,2.397,0
2.79,-0.349,0
2.791,1.482,0
2.792,2.58,0
2.793,1.115,0
2.794,0.383,0
2.795,-0.349,0
2.796,-1.814,0
2.797,0.566,0
2.798,-0.899,0
2.799,-2.73,0
2.8,-4.011,0
2.801,-1.448,0
2.802,-3.279,0
2.803,-2.547,0
2.804,-3.279,0
2.805,2.031,0
2.806,3.313,0
2.807,6.792,0
2.808,13.384,0
2.809,19.792,0
2.81,17.412,0
2.811,5.876,0
2.812,-2.364,0
2.813,-0.899,0
2.814,-4.927,0
2.815,-3.828,0
2.816,-2.73,0
2.817,-3.645,0
2.818,-4.561,0
2.819,-0.532,0
2.82,0.2,0
2.821,-0.349,0
2.822,-0.899,0
2.823,0.749,0
2.824,-1.631,0
2.825,1.482,0
2.826,0.383,0
2.827,-1.448,0
2.828,0.383,0
2.829,-2.913,0
2.83,-4.195,0
2.831,-1.448,0
2.832,-3.279,0
2.833,-2.18,0
2.834,-5.476,0
2.835,0.566,0
2.836,-0.166,0
2.837,-2.364,0
2.838,0.932,0
2.839,0.383,0
2.84,0.932,0
2.841,0.566,0
2.842,1.848,0
2.843,4.594,0
2.844,2.763,0
2.845,0.932,0
2.846,0.2,0
2.847,-2.913,0
2.848,-2.547,0
2.849,-3.645,0
2.85,-1.814,0
2.851,-2.547,0
2.852,-0.716,0
2.853,0.017,0
2.854,-1.448,0
2.855,-0.899,0
2.856,1.299,0
2.857,1.482,0
2.858,4.228,0
2.859,3.13,0
2.86,0.566,0
2.861,2.58,0
2.862,-1.631,0
2.863,4.045,0
2.864,-6.026,0
2.865,0.749,0
2.866,-2.73,0
2.867,5.144,0
2.868,6.059,0
2.869,16.313,0
2.87,-1.448,0
2.871,-3.828,0
2.872,7.158,0
2.873,5.144,0
2.874,10.637,0
2.875,12.285,0
2.876,16.679,0
2.877,12.651,0
2.878,13.75,0
2.879,5.876,0
2.88,4.961,0
2.881,4.045,0
2.882,0.017,0
2.883,-0.716,0
2.884,1.115,0
2.885,-4.561,0
2.886,-14.632,0
2.887,-15.913,0
2.888,-19.392,0
2.889,-22.688,0
2.89,-23.604,0
2.891,-15.181,0
2.892,-4.927,0
2.893,4.594,0
2.894,5.693,0
2.895,0.017,0
2.896,-13.167,0
2.897,-33.308,0
2.898,-51.985,0
2.899,-78.719,0
2.9,-103.62,0
2.901,-119.73,0
2.902,-122.66,0
2.903,-125.23,0
2.904,-122.85,0
2.905,-102.89,0
2.906,-100.33,0
2.907,-74.141,0
2.908,-42.464,0
2.909,13.933,0
2.91,98.711,0
2.911,132.4,0
2.912,142.66,0
2.913,133.32,0
2.914,124.89,0
2.915,86.443,0
2.916,79.485,0
2.917,85.71,0
2.918,80.034,0
2.919,64.47,0
2.92,69.231,0
2.921,73.442,0
2.922,77.287,0
2.923,73.808,0
2.924,57.695,0
2.925,48.906,0
2.926,51.469,0
2.927,58.611,0
2.928,65.202,0
2.929,63.188,0
2.93,54.033,0
2.931,39.018,0
2.932,24.919,0
2.933,12.102,0
2.934,13.75,0
2.935,15.215,0
2.936,8.44,0
2.937,-2.73,0
2.938,-16.28,0
2.939,-25.435,0
2.94,-33.675,0
2.941,-35.139,0
2.942,-36.421,0
2.943,-39.9,0
2.944,-47.774,0
2.945,-46.858,0
2.946,-49.605,0
2.947,-43.928,0
2.948,-46.126,0
2.949,-50.703,0
2.95,-43.745,0
2.951,-46.492,0
2.952,-44.112,0
2.953,-41.914,0
2.954,-40.083,0
2.955,-35.689,0
2.956,-36.238,0
2.957,-33.858,0
2.958,-30.196,0
2.959,-25.984,0
2.96,-17.561,0
2.961,-16.463,0
2.962,-19.759,0
2.963,-4.561,0
2.964,-6.758,0
2.965,-16.829,0
2.966,-18.66,0
2.967,-10.42,0
2.968,-14.815,0
2.969,-8.04,0
2.97,-6.941,0
2.971,-5.843,0
2.972,-0.899,0
2.973,-1.814,0
2.974,2.214,0
2.975,4.411,0
2.976,3.862,0
2.977,3.313,0
2.978,1.665,0
2.979,2.947,0
2.98,2.58,0
2.981,0.566,0
2.982,0.932,0
2.983,-0.899,0
2.984,3.679,0
2.985,4.228,0
2.986,3.679,0
2.987,2.031,0
2.988,6.609,0
2.989,8.44,0
2.99,10.088,0
2.991,8.806,0
2.992,9.172,0
2.993,10.271,0
2.994,10.637,0
2.995,6.609,0
2.996,6.242,0
2.997,0.2,0
2.998,2.58,0
2.999,3.313,0
3,2.763,0
3.001,0.932,0
3.002,3.679,0
3.003,6.059,0
3.004,3.862,0
3.005,2.763,0
3.006,4.594,0
3.007,6.426,0
3.008,4.411,0
3.009,6.426,0
3.01,5.693,0
3.011,9.721,0
3.012,11.369,0
3.013,15.947,0
3.014,6.426,0
3.015,-8.589,0
3.016,-6.575,0
3.017,-1.082,0
3.018,-2.73,0
3.019,-1.265,0
3.02,-2.547,0
3.021,-1.448,0
3.022,1.848,0
3.023,-1.082,0
3.024,1.665,0
3.025,4.045,0
3.026,4.778,0
3.027,5.327,0
3.028,0.932,0
3.029,-2.913,0
3.03,-0.532,0
3.031,-0.166,0
3.032,-6.392,0
3.033,-7.307,0
3.034,-3.279,0
3.035,-4.011,0
3.036,-0.716,0
3.037,-0.166,0
3.038,2.58,0
3.039,0.2,0
3.04,2.397,0
3.041,0.383,0
3.042,2.947,0
3.043,2.58,0
3.044,0.566,0
3.045,-2.547,0
3.046,0.2,0
3.047,-2.364,0
3.048,-1.997,0
3.049,-4.744,0
3.05,-0.532,0
3.051,-2.18,0
3.052,0.2,0
3.053,-0.166,0
3.054,2.58,0
3.055,1.482,0
3.056,0.383,0
3.057,1.115,0
3.058,4.228,0
3.059,3.13,0
3.06,0.566,0
3.061,3.13,0
3.062,8.623,0
3.063,13.933,0
3.064,13.384,0
3.065,5.144,0
3.066,-2.73,0
3.067,-1.814,0
3.068,-4.561,0
3.069,-5.293,0
3.07,-3.096,0
3.071,-2.547,0
3.072,-0.716,0
3.073,-1.265,0
3.074,0.017,0
3.075,1.299,0
3.076,5.144,0
3.077,-0.349,0
3.078,1.848,0
3.079,-2.73,0
3.08,0.383,0
3.081,-6.941,0
3.082,-6.026,0
3.083,-6.941,0
3.084,-2.913,0
3.085,-6.758,0
3.086,-2.18,0
3.087,-2.73,0
3.088,-1.082,0
3.089,-1.448,0
3.09,1.665,0
3.091,4.411,0
3.092,3.313,0
3.093,4.411,0
3.094,2.947,0
3.095,-0.716,0
3.096,1.665,0
3.097,-2.547,0
3.098,-1.997,0
3.099,-5.293,0
3.1,-2.18,0
3.101,-2.547,0
3.102,-2.913,0
3.103,-1.082,0
3.104,-0.349,0
3.105,-1.631,0
3.106,1.848,0
3.107,1.482,0
3.108,1.115,0
3.109,6.792,0
3.11,-0.716,0
3.111,-3.096,0
3.112,-4.011,0
3.113,-3.096,0
3.114,0.932,0
3.115,9.355,0
3.116,10.454,0
3.117,1.299,0
3.118,-4.744,0
3.119,-3.645,0
3.12,-0.716,0
3.121,-5.293,0
3.122,0.383,0
3.123,-0.349,0
3.124,1.482,0
3.125,2.031,0
3.126,-0.716,0
3.127,-3.096,0
3.128,-4.378,0
3.129,-2.364,0
3.13,-4.927,0
3.131,-6.758,0
3.132,-4.744,0
3.133,-6.026,0
3.134,-5.843,0
3.135,-2.364,0
3.136,-1.997,0
3.137,-5.11,0
3.138,-0.532,0
3.139,-1.082,0
3.14,1.665,0
3.141,2.031,0
3.142,2.397,0
3.143,5.144,0
3.144,-0.532,0
3.145,1.848,0
3.146,-3.462,0
3.147,-4.011,0
3.148,-7.124,0
3.149,-4.378,0
3.15,0.2,0
3.151,-0.349,0
3.152,0.2,0
3.153,-1.082,0
3.154,3.13,0
3.155,-0.716,0
3.156,1.665,0
3.157,2.947,0
3.158,3.313,0
3.159,1.482,0
3.16,2.58,0
3.161,1.848,0
3.162,-0.899,0
3.163,-2.18,0
3.164,1.848,0
3.165,4.594,0
3.166,12.102,0
3.167,11.003,0
3.168,8.073,0
3.169,-4.011,0
3.17,-2.364,0
3.171,-6.758,0
3.172,-2.73,0
3.173,0.749,0
3.174,-2.547,0
3.175,-1.631,0
3.176,2.947,0
3.177,-1.082,0
3.178,-1.814,0
3.179,0.017,0
3.18,-5.659,0
3.181,-7.857,0
3.182,-6.026,0
3.183,-1.631,0
3.184,-1.082,0
3.185,1.299,0
3.186,1.665,0
3.187,2.031,0
3.188,-0.532,0
3.189,2.763,0
3.19,3.862,0
3.191,3.496,0
3.192,2.397,0
3.193,4.411,0
3.194,5.144,0
3.195,1.115,0
3.196,-2.73,0
3.197,-3.096,0
3.198,-1.814,0
3.199,-2.18,0
3.2,0.383,0
3.201,0.017,0
3.202,2.031,0
3.203,0.2,0
3.204,3.679,0
3.205,4.045,0
3.206,1.299,0
3.207,5.51,0
3.208,4.961,0
3.209,3.679,0
3.21,4.045,0
3.211,2.947,0
3.212,-0.532,0
3.213,-2.364,0
3.214,-2.73,0
3.215,2.763,0
3.216,4.961,0
3.217,5.51,0
3.218,6.059,0
3.219,3.313,0
3.22,5.693,0
3.221,4.411,0
3.222,4.778,0
3.223,5.876,0
3.224,11.369,0
3.225,18.327,0
3.226,6.242,0
3.227,-5.293,0
3.228,-3.828,0
3.229,-5.11,0
3.23,-8.589,0
3.231,-9.688,0
3.232,-8.772,0
3.233,-7.857,0
3.234,-3.828,0
3.235,-3.096,0
3.236,-2.547,0
3.237,-3.096,0
3.238,-1.448,0
3.239,-2.73,0
3.24,1.482,0
3.241,3.13,0
3.242,0.749,0
3.243,-0.532,0
3.244,-1.631,0
3.245,-0.532,0
3.246,-3.828,0
3.247,-2.73,0
3.248,-2.364,0
3.249,-6.392,0
3.25,-7.674,0
3.251,-1.631,0
3.252,-0.899,0
3.253,-0.166,0
3.254,-0.716,0
3.255,1.115,0
3.256,0.566,0
3.257,3.862,0
3.258,3.496,0
3.259,2.397,0
3.26,2.763,0
3.261,0.2,0
3.262,-3.828,0
3.263,-5.476,0
3.264,-6.758,0
3.265,-5.476,0
3.266,1.482,0
3.267,14.665,0
3.268,12.834,0
3.269,7.89,0
3.27,0.383,0
3.271,-0.899,0
3.272,0.2,0
3.273,-0.899,0
3.274,-1.814,0
3.275,-0.899,0
3.276,-1.631,0
3.277,-3.828,0
3.278,-3.279,0
3.279,-5.11,0
3.28,-7.857,0
3.281,-11.153,0
3.282,-6.026,0
3.283,-4.195,0
3.284,-2.364,0
3.285,-0.716,0
3.286,-1.082,0
3.287,0.2,0
3.288,1.299,0
3.289,3.13,0
3.29,2.031,0
3.291,2.214,0
3.292,6.426,0
3.293,3.313,0
3.294,-0.532,0
3.295,-1.814,0
3.296,-2.18,0
3.297,-4.927,0
3.298,-3.828,0
3.299,-1.265,0
3.3,-1.997,0
3.301,-1.814,0
3.302,-2.547,0
3.303,0.932,0
3.304,-0.349,0
3.305,0.932,0
3.306,0.566,0
3.307,2.397,0
3.308,1.299,0
3.309,3.313,0
3.31,-0.899,0
3.311,3.496,0
3.312,0.749,0
3.313,-3.828,0
3.314,-6.941,0
3.315,-2.364,0
3.316,-1.814,0
3.317,0.566,0
3.318,5.693,0
3.319,5.144,0
3.32,14.665,0
3.321,15.947,0
3.322,9.905,0
3.323,2.031,0
3.324,2.947,0
3.325,-3.462,0
3.326,-2.73,0
3.327,-3.462,0
3.328,-4.011,0
3.329,-5.843,0
3.33,-8.589,0
3.331,-8.223,0
3.332,-7.857,0
3.333,-7.49,0
3.334,-6.392,0
3.335,-4.561,0
3.336,-1.814,0
3.337,-0.716,0
3.338,-0.349,0
3.339,0.383,0
3.34,4.594,0
3.341,4.045,0
3.342,5.693,0
3.343,3.313,0
3.344,2.031,0
3.345,0.017,0
3.346,-3.462,0
3.347,-3.828,0
3.348,-5.843,0
3.349,-4.744,0
3.35,-2.18,0
3.351,-6.758,0
3.352,-0.532,0
3.353,6.975,0
3.354,7.89,0
3.355,3.313,0
3.356,0.932,0
3.357,3.13,0
3.358,1.299,0
3.359,3.13,0
3.36,1.482,0
3.361,1.848,0
3.362,-5.11,0
3.363,-4.195,0
3.364,-5.11,0
3.365,-7.49,0
3.366,-4.561,0
3.367,0.749,0
3.368,11.003,0
3.369,15.398,0
3.37,14.116,0
3.371,8.073,0
3.372,0.2,0
3.373,3.13,0
3.374,0.383,0
3.375,-0.349,0
3.376,0.383,0
3.377,-4.195,0
3.378,-2.364,0
3.379,-6.209,0
3.38,-4.927,0
3.381,-6.209,0
3.382,-5.843,0
3.383,-3.279,0
3.384,-2.18,0
3.385,-1.448,0
3.386,1.115,0
3.387,-2.18,0
3.388,2.397,0
3.389,1.848,0
3.39,2.397,0
3.391,3.679,0
3.392,1.482,0
3.393,1.115,0
3.394,0.017,0
3.395,-1.082,0
3.396,-0.349,0
3.397,-4.561,0
3.398,-1.448,0
3.399,-1.997,0
3.4,-5.293,0
3.401,-3.096,0
3.402,-1.997,0
3.403,-2.364,0
3.404,-0.532,0
3.405,0.2,0
3.406,3.313,0
3.407,7.158,0
3.408,-0.349,0
3.409,0.749,0
3.41,1.665,0
3.411,0.749,0
3.412,-1.631,0
3.413,-3.828,0
3.414,-7.124,0
3.415,-6.575,0
3.416,-2.73,0
3.417,-2.364,0
3.418,-1.082,0
3.419,5.876,0
3.42,10.82,0
3.421,8.073,0
3.422,17.229,0
3.423,3.679,0
3.424,-5.476,0
3.425,2.763,0
3.426,1.299,0
3.427,2.58,0
3.428,-3.462,0
3.429,-6.758,0
3.43,-7.674,0
3.431,-6.758,0
3.432,-10.786,0
3.433,-8.589,0
3.434,-6.758,0
3.435,-4.927,0
3.436,-1.082,0
3.437,-1.448,0
3.438,-2.73,0
3.439,2.763,0
3.44,3.496,0
3.441,0.2,0
3.442,0.749,0
3.443,2.397,0
3.444,-0.899,0
3.445,-4.011,0
3.446,-2.913,0
3.447,-7.857,0
3.448,-6.026,0
3.449,-4.195,0
3.45,0.932,0
3.451,0.383,0
3.452,0.932,0
3.453,1.482,0
3.454,0.2,0
3.455,3.313,0
3.456,2.214,0
3.457,4.045,0
3.458,5.876,0
3.459,2.58,0
3.46,2.947,0
3.461,0.932,0
3.462,-0.899,0
3.463,-3.462,0
3.464,-5.476,0
3.465,-7.307,0
3.466,-3.828,0
3.467,-3.462,0
3.468,-1.631,0
3.469,-0.532,0
3.47,5.144,0
3.471,7.524,0
3.472,8.257,0
3.473,18.51,0
3.474,11.003,0
3.475,6.975,0
3.476,-1.448,0
3.477,-2.547,0
3.478,-1.631,0
3.479,-8.04,0
3.48,-5.659,0
3.481,-6.392,0
3.482,-6.941,0
3.483,-3.828,0
3.484,-6.575,0
3.485,-4.195,0
3.486,-1.997,0
3.487,0.749,0
3.488,0.383,0
3.489,-0.716,0
3.49,2.58,0
3.491,1.299,0
3.492,4.045,0
3.493,1.482,0
3.494,-1.814,0
3.495,-4.561,0
3.496,-7.124,0
3.497,-5.293,0
3.498,-3.279,0
3.499,-0.716,0
3.5,1.115,0
3.501,-0.899,0
3.502,3.313,0
3.503,3.862,0
3.504,1.115,0
3.505,0.749,0
3.506,3.862,0
3.507,3.496,0
3.508,4.594,0
3.509,5.693,0
3.51,2.397,0
3.511,3.679,0
3.512,-2.547,0
3.513,-3.462,0
3.514,-10.969,0
3.515,-8.04,0
3.516,-3.462,0
3.517,-2.73,0
3.518,-3.462,0
3.519,0.566,0
3.52,1.115,0
3.521,10.637,0
3.522,25.652,0
3.523,19.609,0
3.524,10.454,0
3.525,5.51,0
3.526,1.115,0
3.527,-0.166,0
3.528,-3.645,0
3.529,-6.941,0
3.53,-6.026,0
3.531,-5.11,0
3.532,-9.138,0
3.533,-2.18,0
3.534,-3.096,0
3.535,-3.828,0
3.536,0.017,0
3.537,-1.814,0
3.538,1.299,0
3.539,0.749,0
3.54,3.13,0
3.541,1.848,0
3.542,2.214,0
3.543,1.115,0
3.544,5.144,0
3.545,-2.364,0
3.546,-1.265,0
3.547,-8.223,0
3.548,-5.476,0
3.549,-4.744,0
3.55,-0.899,0
3.551,-0.349,0
3.552,-3.462,0
3.553,1.665,0
3.554,-0.166,0
3.555,1.665,0
3.556,3.313,0
3.557,2.031,0
3.558,2.397,0
3.559,2.763,0
3.56,0.932,0
3.561,0.566,0
3.562,-2.73,0
3.563,-3.096,0
3.564,-2.73,0
3.565,-3.828,0
3.566,-1.997,0
3.567,0.749,0
3.568,-4.195,0
3.569,-0.899,0
3.57,-1.631,0
3.571,-1.082,0
3.572,7.341,0
3.573,6.242,0
3.574,11.919,0
3.575,6.975,0
3.576,7.89,0
3.577,8.623,0
3.578,6.426,0
3.579,4.594,0
3.58,10.271,0
3.581,6.426,0
3.582,-2.547,0
3.583,-1.448,0
3.584,-4.744,0
3.585,-3.828,0
3.586,-6.575,0
3.587,-7.307,0
3.588,-3.462,0
3.589,-2.913,0
3.59,4.045,0
3.591,-0.532,0
3.592,1.848,0
3.593,-0.349,0
3.594,-3.645,0
3.595,-4.195,0
3.596,-5.843,0
3.597,-8.223,0
3.598,-6.026,0
3.599,0.2,0
3.6,8.623,0
3.601,-1.631,0
3.602,5.144,0
3.603,4.045,0
3.604,2.947,0
3.605,2.031,0
3.606,2.947,0
3.607,2.214,0
3.608,2.947,0
3.609,1.115,0
3.61,-0.716,0
3.611,-3.462,0
3.612,-2.18,0
3.613,-9.138,0
3.614,-10.054,0
3.615,-7.307,0
3.616,-4.927,0
3.617,-4.195,0
3.618,-6.026,0
3.619,-0.349,0
3.62,1.848,0
3.621,2.031,0
3.622,1.482,0
3.623,11.003,0
3.624,9.721,0
3.625,10.82,0
3.626,16.496,0
3.627,7.341,0
3.628,-3.828,0
3.629,-2.364,0
3.63,-6.392,0
3.631,-7.49,0
3.632,-8.589,0
3.633,-3.645,0
3.634,-4.561,0
3.635,-3.828,0
3.636,0.017,0
3.637,-0.532,0
3.638,2.58,0
3.639,0.932,0
3.64,3.313,0
3.641,2.031,0
3.642,0.932,0
3.643,1.299,0
3.644,-2.73,0
3.645,0.566,0
3.646,-2.547,0
3.647,-6.392,0
3.648,-6.758,0
3.649,-6.392,0
3.65,-0.166,0
3.651,-2.913,0
3.652,-0.532,0
3.653,3.313,0
3.654,1.482,0
3.655,3.313,0
3.656,2.763,0
3.657,3.13,0
3.658,5.327,0
3.659,3.313,0
3.66,0.749,0
3.661,1.848,0
3.662,-0.899,0
3.663,-4.378,0
3.664,-4.011,0
3.665,-4.378,0
3.666,-6.209,0
3.667,-1.448,0
3.668,0.383,0
3.669,2.031,0
3.67,2.397,0
3.671,-0.716,0
3.672,0.566,0
3.673,1.665,0
3.674,7.341,0
3.675,14.848,0
3.676,7.89,0
3.677,19.975,0
3.678,8.44,0
3.679,-5.11,0
3.68,-3.279,0
3.681,-8.223,0
3.682,-6.758,0
3.683,-5.476,0
3.684,-1.997,0
3.685,-5.293,0
3.686,-4.378,0
3.687,-5.293,0
3.688,-1.265,0
3.689,-0.532,0
3.69,1.299,0
3.691,3.13,0
3.692,2.58,0
3.693,0.2,0
3.694,-0.166,0
3.695,3.679,0
3.696,3.313,0
3.697,0.2,0
3.698,2.947,0
3.699,8.623,0
3.7,12.651,0
3.701,16.496,0
3.702,21.074,0
3.703,19.243,0
3.704,11.919,0
3.705,11.003,0
3.706,13.75,0
3.707,9.721,0
3.708,7.524,0
3.709,2.947,0
3.71,-6.575,0
3.711,-13.35,0
3.712,-19.392,0
3.713,-22.688,0
3.714,-29.646,0
3.715,-32.393,0
3.716,-26.717,0
3.717,-15.181,0
3.718,-6.941,0
3.719,-5.476,0
3.72,1.299,0
3.721,-12.251,0
3.722,-28.731,0
3.723,-46.309,0
3.724,-66.267,0
3.725,-79.634,0
3.726,-111.31,0
3.727,-132.92,0
3.728,-113.33,0
3.729,-116.8,0
3.73,-119.92,0
3.731,-111.13,0
3.732,-76.155,0
3.733,-33.125,0
3.734,41.948,0
3.735,93.218,0
3.736,121.23,0
3.737,129.66,0
3.738,121.97,0
3.739,115.01,0
3.74,96.147,0
3.741,90.471,0
3.742,74.907,0
3.743,70.146,0
3.744,65.935,0
3.745,69.78,0
3.746,73.259,0
3.747,70.146,0
3.748,73.076,0
3.749,70.512,0
3.75,68.132,0
3.751,74.724,0
3.752,72.71,0
3.753,74.541,0
3.754,69.597,0
3.755,62.09,0
3.756,47.075,0
3.757,28.948,0
3.758,21.806,0
3.759,6.426,0
3.76,8.44,0
3.761,-0.716,0
3.762,-8.955,0
3.763,-19.392,0
3.764,-31.66,0
3.765,-39.9,0
3.766,-44.295,0
3.767,-45.576,0
3.768,-49.055,0
3.769,-47.957,0
3.77,-52.901,0
3.771,-48.323,0
3.772,-47.591,0
3.773,-45.393,0
3.774,-42.647,0
3.775,-42.097,0
3.776,-36.421,0
3.777,-40.266,0
3.778,-30.012,0
3.779,-34.407,0
3.78,-43.928,0
3.781,-40.449,0
3.782,-37.154,0
3.783,-36.238,0
3.784,-31.66,0
3.785,-25.984,0
3.786,-23.787,0
3.787,-23.238,0
3.788,-20.125,0
3.789,-17.378,0
3.79,-10.786,0
3.791,-8.04,0
3.792,-8.772,0
3.793,-6.575,0
3.794,-4.744,0
3.795,-6.575,0
3.796,-7.124,0
3.797,-5.843,0
3.798,-4.561,0
3.799,-0.716,0
3.8,-0.349,0
3.801,2.763,0
3.802,3.862,0
3.803,4.228,0
3.804,5.327,0
3.805,1.299,0
3.806,9.721,0
3.807,6.242,0
3.808,9.538,0
3.809,8.623,0
3.81,5.876,0
3.811,6.609,0
3.812,8.806,0
3.813,4.228,0
3.814,4.778,0
3.815,4.228,0
3.816,3.862,0
3.817,6.059,0
3.818,5.693,0
3.819,6.059,0
3.82,2.031,0
3.821,5.327,0
3.822,8.44,0
3.823,4.594,0
3.824,7.89,0
3.825,3.496,0
3.826,4.778,0
3.827,11.003,0
3.828,8.257,0
3.829,7.524,0
3.83,15.947,0
3.831,17.046,0
3.832,1.848,0
3.833,-0.349,0
3.834,1.665,0
3.835,-0.166,0
3.836,-1.814,0
3.837,-0.349,0
3.838,3.679,0
3.839,0.2,0
3.84,1.299,0
3.841,-1.631,0
3.842,-0.716,0
3.843,0.017,0
3.844,0.749,0
3.845,6.975,0
3.846,2.947,0
3.847,-4.011,0
3.848,-3.096,0
3.849,-2.364,0
3.85,-3.096,0
3.851,1.482,0
3.852,2.031,0
3.853,-1.814,0
3.854,-0.532,0
3.855,1.665,0
3.856,1.299,0
3.857,4.778,0
3.858,3.496,0
3.859,2.397,0
3.86,3.496,0
3.861,2.397,0
3.862,-2.18,0
3.863,-4.011,0
3.864,-3.462,0
3.865,-4.011,0
3.866,-1.631,0
3.867,-1.265,0
3.868,0.749,0
3.869,4.228,0
3.87,3.862,0
3.871,1.115,0
3.872,2.214,0
3.873,4.045,0
3.874,5.51,0
3.875,4.778,0
3.876,1.299,0
3.877,0.017,0
3.878,3.496,0
3.879,11.003,0
3.88,9.905,0
3.881,0.749,0
3.882,-5.293,0
3.883,-4.195,0
3.884,-3.279,0
3.885,-0.532,0
3.886,-2.913,0
3.887,-2.18,0
3.888,-1.631,0
3.889,1.482,0
3.89,0.932,0
3.891,-0.349,0
3.892,0.017,0
3.893,-0.349,0
3.894,1.482,0
3.895,0.383,0
3.896,-1.631,0
3.897,-4.744,0
3.898,-5.11,0
3.899,-2.547,0
3.9,-4.378,0
3.901,-2.364,0
3.902,-1.631,0
3.903,-0.899,0
3.904,-0.716,0
3.905,2.58,0
3.906,3.862,0
3.907,1.115,0
3.908,2.947,0
3.909,1.115,0
3.91,1.299,0
3.911,0.017,0
3.912,-0.716,0
3.913,-4.195,0
3.914,-4.561,0
3.915,-4.195,0
3.916,-3.828,0
3.917,-1.265,0
3.918,-2.364,0
3.919,-0.349,0
3.92,2.214,0
3.921,-1.814,0
3.922,1.482,0
3.923,0.2,0
3.924,0.566,0
3.925,1.665,0
3.926,2.031,0
3.927,-2.364,0
3.928,-1.631,0
3.929,2.58,0
3.93,6.975,0
3.931,6.426,0
3.932,9.721,0
3.933,7.524,0
3.934,1.299,0
3.935,-1.448,0
3.936,-2.18,0
3.937,-2.913,0
3.938,-3.462,0
3.939,-2.913,0
3.94,-1.265,0
3.941,-0.899,0
3.942,-0.532,0
3.943,-3.279,0
3.944,-2.18,0
3.945,-5.476,0
3.946,-4.378,0
3.947,-4.744,0
3.948,-6.575,0
3.949,-4.561,0
3.95,-3.279,0
3.951,-0.349,0
3.952,-3.828,0
3.953,3.13,0
3.954,0.2,0
3.955,2.947,0
3.956,0.566,0
3.957,2.763,0
3.958,7.341,0
3.959,4.228,0
3.96,0.383,0
3.961,1.665,0
3.962,-0.532,0
3.963,-3.279,0
3.964,-1.448,0
3.965,-2.547,0
3.966,-0.532,0
3.967,0.749,0
3.968,-2.18,0
3.969,1.299,0
3.97,4.411,0
3.971,1.665,0
3.972,2.763,0
3.973,0.932,0
3.974,0.749,0
3.975,2.58,0
3.976,-0.349,0
3.977,0.017,0
3.978,-0.899,0
3.979,-2.73,0
3.98,1.848,0
3.981,1.299,0
3.982,1.848,0
3.983,10.271,0
3.984,13.75,0
3.985,-1.082,0
3.986,-3.096,0
3.987,-1.265,0
3.988,-2.913,0
3.989,-1.448,0
3.99,-5.476,0
3.991,-1.997,0
3.992,-0.899,0
3.993,-1.814,0
3.994,-2.73,0
3.995,-3.462,0
3.996,-5.659,0
3.997,-3.828,0
3.998,-6.941,0
3.999,-6.392,0
4,-3.096,0
4.001,0.017,0
4.002,-1.082,0
4.003,3.13,0
4.004,-0.716,0
4.005,3.862,0
4.006,5.693,0
4.007,7.341,0
4.008,4.045,0
4.009,5.327,0
4.01,1.482,0
4.011,3.862,0
4.012,1.665,0
4.013,2.031,0
4.014,-2.913,0
4.015,-3.462,0
4.016,-0.349,0
4.017,3.496,0
4.018,1.115,0
4.019,-1.082,0
4.02,4.411,0
4.021,2.214,0
4.022,0.383,0
4.023,2.214,0
4.024,3.862,0
4.025,3.496,0
4.026,3.13,0
4.027,1.115,0
4.028,0.017,0
4.029,-0.166,0
4.03,-1.265,0
4.031,3.313,0
4.032,13.567,0
4.033,15.031,0
4.034,8.257,0
4.035,-0.166,0
4.036,3.13,0
4.037,0.2,0
4.038,-2.547,0
4.039,-1.814,0
4.04,0.383,0
4.041,2.214,0
4.042,-2.18,0
4.043,-0.532,0
4.044,-1.814,0
4.045,-0.532,0
4.046,-3.279,0
4.047,-1.448,0
4.048,-6.209,0
4.049,-3.096,0
4.05,-2.547,0
4.051,0.749,0
4.052,-4.378,0
4.053,0.2,0
4.054,0.749,0
4.055,0.2,0
4.056,1.482,0
4.057,0.2,0
4.058,2.947,0
4.059,-1.265,0
4.06,0.383,0
4.061,-0.899,0
4.062,-1.265,0
4.063,-3.279,0
4.064,-2.913,0
4.065,-4.011,0
4.066,-5.476,0
4.067,-3.645,0
4.068,-2.364,0
4.069,-1.814,0
4.07,-0.349,0
4.071,2.214,0
4.072,-1.082,0
4.073,1.665,0
4.074,1.299,0
4.075,3.862,0
4.076,3.679,0
4.077,1.848,0
4.078,-1.631,0
4.079,-1.265,0
4.08,-2.364,0
4.081,-5.11,0
4.082,0.566,0
4.083,4.594,0
4.084,16.13,0
4.085,4.594,0
4.086,-2.913,0
4.087,-1.631,0
4.088,-2.73,0
4.089,-3.828,0
4.09,-4.744,0
4.091,5.51,0
4.092,6.792,0
4.093,-4.378,0
4.094,-5.843,0
4.095,-1.814,0
4.096,-5.293,0
4.097,-8.589,0
4.098,-9.505,0
4.099,-4.927,0
4.1,-2.547,0
4.101,-0.349,0
4.102,0.2,0
4.103,-1.631,0
4.104,1.115,0
4.105,2.397,0
4.106,-0.716,0
4.107,3.13,0
4.108,1.848,0
4.109,1.482,0
4.11,-1.265,0
4.111,-0.166,0
4.112,-4.195,0
4.113,-2.913,0
4.114,-4.195,0
4.115,-3.096,0
4.116,-0.532,0
4.117,-0.899,0
4.118,-0.716,0
4.119,0.017,0
4.12,-0.716,0
4.121,-0.166,0
4.122,1.299,0
4.123,0.017,0
4.124,2.031,0
4.125,2.763,0
4.126,3.313,0
4.127,0.383,0
4.128,0.749,0
4.129,-3.279,0
4.13,-1.997,0
4.131,-1.631,0
4.132,-1.265,0
4.133,4.961,0
4.134,9.538,0
4.135,18.694,0
4.136,15.215,0
4.137,7.341,0
4.138,-1.814,0
4.139,-0.716,0
4.14,-1.814,0
4.141,-2.73,0
4.142,-3.645,0
4.143,-2.913,0
4.144,-3.645,0
4.145,-4.195,0
4.146,-4.744,0
4.147,-3.096,0
4.148,-8.589,0
4.149,-3.279,0
4.15,-5.11,0
4.151,-3.279,0
4.152,-3.828,0
4.153,-2.547,0
4.154,-1.265,0
4.155,1.482,0
4.156,0.383,0
4.157,3.679,0
4.158,2.58,0
4.159,2.214,0
4.16,-1.082,0
4.161,-0.716,0
4.162,-1.814,0
4.163,-3.645,0
4.164,-3.828,0
4.165,-2.547,0
4.166,-3.279,0
4.167,0.2,0
4.168,-1.082,0
4.169,1.115,0
4.17,0.749,0
4.171,1.848,0
4.172,1.482,0
4.173,1.299,0
4.174,-0.532,0
4.175,2.947,0
4.176,1.665,0
4.177,-0.349,0
4.178,0.749,0
4.179,-2.547,0
4.18,-2.18,0
4.181,-4.744,0
4.182,-1.631,0
4.183,1.665,0
4.184,7.89,0
4.185,-4.195,0
4.186,17.412,0
4.187,8.623,0
4.188,0.749,0
4.189,-1.631,0
4.19,0.566,0
4.191,-1.448,0
4.192,0.383,0
4.193,-1.265,0
4.194,0.2,0
4.195,-6.575,0
4.196,-5.476,0
4.197,-2.18,0
4.198,-5.11,0
4.199,-4.195,0
4.2,-3.462,0
4.201,0.383,0
4.202,-0.166,0
4.203,-3.279,0
4.204,-0.532,0
4.205,-0.166,0
4.206,-1.448,0
4.207,2.397,0
4.208,1.115,0
4.209,2.397,0
4.21,2.031,0
4.211,3.13,0
4.212,-1.631,0
4.213,-1.082,0
4.214,-2.73,0
4.215,-1.448,0
4.216,-1.082,0
4.217,1.665,0
4.218,2.031,0
4.219,-1.265,0
4.22,-0.166,0
4.221,0.932,0
4.222,-1.631,0
4.223,0.383,0
4.224,0.566,0
4.225,0.749,0
4.226,-0.349,0
4.227,1.115,0
4.228,-1.814,0
4.229,-2.18,0
4.23,-4.744,0
4.231,-2.18,0
4.232,-0.716,0
4.233,-3.096,0
4.234,-1.814,0
4.235,2.214,0
4.236,6.059,0
4.237,7.341,0
4.238,14.299,0
4.239,15.215,0
4.24,10.637,0
4.241,1.482,0
4.242,-1.997,0
4.243,-3.096,0
4.244,-0.166,0
4.245,-6.575,0
4.246,-2.547,0
4.247,-6.392,0
4.248,-8.223,0
4.249,-6.392,0
4.25,-3.645,0
4.251,-2.364,0
4.252,-1.997,0
4.253,0.749,0
4.254,-1.082,0
4.255,-1.448,0
4.256,-3.462,0
4.257,0.749,0
4.258,1.299,0
4.259,1.848,0
4.26,1.482,0
4.261,-1.631,0
4.262,-0.532,0
4.263,-2.364,0
4.264,-5.659,0
4.265,-1.814,0
4.266,-3.096,0
4.267,0.017,0
4.268,0.383,0
4.269,0.017,0
4.27,-0.349,0
4.271,0.383,0
4.272,1.115,0
4.273,1.848,0
4.274,3.313,0
4.275,2.763,0
4.276,4.045,0
4.277,1.299,0
4.278,-1.265,0
4.279,-1.631,0
4.28,-1.448,0
4.281,-2.18,0
4.282,-0.349,0
4.283,-1.814,0
4.284,-2.364,0
4.285,-0.899,0
4.286,2.031,0
4.287,8.257,0
4.288,20.342,0
4.289,15.398,0
4.29,11.003,0
4.291,1.482,0
4.292,0.383,0
4.293,-0.716,0
4.294,-1.631,0
4.295,-0.716,0
4.296,-8.223,0
4.297,-5.293,0
4.298,-6.209,0
4.299,-3.828,0
4.3,-1.631,0
4.301,0.2,0
4.302,-0.349,0
4.303,1.299,0
4.304,-1.082,0
4.305,0.2,0
4.306,-1.814,0
4.307,0.017,0
4.308,0.383,0
4.309,-1.082,0
4.31,-1.814,0
4.311,-1.082,0
4.312,-4.561,0
4.313,-3.279,0
4.314,-6.392,0
4.315,-1.814,0
4.316,-2.364,0
4.317,-1.814,0
4.318,-0.532,0
4.319,1.665,0
4.32,0.566,0
4.321,1.665,0
4.322,2.031,0
4.323,0.017,0
4.324,1.299,0
4.325,2.031,0
4.326,2.214,0
4.327,3.679,0
4.328,0.749,0
4.329,-3.096,0
4.33,-0.716,0
4.331,-1.082,0
4.332,-5.659,0
4.333,-2.547,0
4.334,-1.997,0
4.335,-0.166,0
4.336,0.2,0
4.337,6.242,0
4.338,-6.209,0
4.339,-0.716,0
4.34,0.932,0
4.341,5.327,0
4.342,9.355,0
4.343,15.398,0
4.344,16.496,0
4.345,3.313,0
4.346,-2.18,0
4.347,-7.124,0
4.348,-5.659,0
4.349,-4.378,0
4.35,-5.476,0
4.351,-4.378,0
4.352,-3.462,0
4.353,-4.378,0
4.354,-3.645,0
4.355,-2.913,0
4.356,0.383,0
4.357,-0.166,0
4.358,0.383,0
4.359,-0.899,0
4.36,-1.265,0
4.361,-0.166,0
4.362,-2.73,0
4.363,-3.828,0
4.364,-8.406,0
4.365,-3.828,0
4.366,-3.279,0
4.367,0.566,0
4.368,-1.814,0
4.369,1.299,0
4.37,0.2,0
4.371,1.299,0
4.372,0.2,0
4.373,0.932,0
4.374,1.115,0
4.375,5.144,0
4.376,2.397,0
4.377,2.031,0
4.378,-1.082,0
4.379,-2.18,0
4.38,-2.547,0
4.381,-1.448,0
4.382,-5.476,0
4.383,1.848,0
4.384,0.932,0
4.385,-1.814,0
4.386,-1.631,0
4.387,-0.899,0
4.388,1.299,0
4.389,5.876,0
4.39,8.989,0
4.391,10.637,0
4.392,10.271,0
4.393,11.552,0
4.394,7.707,0
4.395,4.411,0
4.396,3.13,0
4.397,3.496,0
4.398,6.975,0
4.399,10.088,0
4.4,3.862,0
4.401,-6.392,0
4.402,-5.11,0
4.403,-6.209,0
4.404,-7.307,0
4.405,-4.378,0
4.406,-5.293,0
4.407,-4.561,0
4.408,-2.364,0
4.409,-1.814,0
4.41,-4.927,0
4.411,-5.476,0
4.412,-7.857,0
4.413,-4.744,0
4.414,-5.11,0
4.415,-6.941,0
4.416,-8.04,0
4.417,-3.462,0
4.418,-1.631,0
4.419,0.2,0
4.42,0.749,0
4.421,0.383,0
4.422,0.749,0
4.423,2.763,0
4.424,3.13,0
4.425,2.763,0
4.426,1.299,0
4.427,-0.532,0
4.428,-2.913,0
4.429,-3.096,0
4.43,-2.913,0
4.431,-1.082,0
4.432,-4.561,0
4.433,-2.18,0
4.434,-1.814,0
4.435,0.932,0
4.436,2.031,0
4.437,-0.166,0
4.438,0.932,0
4.439,5.51,0
4.44,13.017,0
4.441,13.933,0
4.442,11.186,0
4.443,11.919,0
4.444,3.496,0
4.445,13.75,0
4.446,1.482,0
4.447,-3.462,0
4.448,-4.927,0
4.449,-8.955,0
4.45,-2.913,0
4.451,-6.209,0
4.452,-1.265,0
4.453,-4.011,0
4.454,-1.631,0
4.455,-5.476,0
4.456,-2.18,0
4.457,-0.349,0
4.458,1.299,0
4.459,1.665,0
4.46,2.947,0
4.461,1.848,0
4.462,1.482,0
4.463,0.383,0
4.464,-2.364,0
4.465,0.2,0
4.466,-3.096,0
4.467,-1.997,0
4.468,-4.561,0
4.469,0.932,0
4.47,-2.913,0
4.471,-1.082,0
4.472,-2.913,0
4.473,-1.265,0
4.474,0.017,0
4.475,1.299,0
4.476,-3.279,0
4.477,-0.166,0
4.478,-0.716,0
4.479,-4.011,0
4.48,-2.73,0
4.481,-4.744,0
4.482,-3.645,0
4.483,-1.814,0
4.484,-2.547,0
4.485,-4.378,0
4.486,-0.349,0
4.487,2.397,0
4.488,0.566,0
4.489,-2.73,0
4.49,4.228,0
4.491,9.172,0
4.492,15.581,0
4.493,16.313,0
4.494,9.355,0
4.495,-2.73,0
4.496,-1.082,0
4.497,-5.476,0
4.498,-6.758,0
4.499,-3.279,0
4.5,0.017,0
4.501,-4.927,0
4.502,-2.18,0
4.503,-2.913,0
4.504,-0.716,0
4.505,-1.265,0
4.506,-0.716,0
4.507,-0.166,0
4.508,3.13,0
4.509,0.932,0
4.51,-1.814,0
4.511,0.017,0
4.512,-0.349,0
4.513,-3.645,0
4.514,-4.927,0
4.515,-2.913,0
4.516,-4.744,0
4.517,-2.913,0
4.518,-0.166,0
4.519,0.2,0
4.52,0.566,0
4.521,-0.166,0
4.522,-0.899,0
4.523,1.482,0
4.524,2.947,0
4.525,0.383,0
4.526,2.947,0
4.527,1.482,0
4.528,-0.349,0
4.529,-1.082,0
4.53,-3.279,0
4.531,-3.096,0
4.532,-0.716,0
4.533,0.749,0
4.534,-1.082,0
4.535,0.749,0
4.536,1.299,0
4.537,-1.082,0
4.538,-0.349,0
4.539,3.496,0
4.54,2.763,0
4.541,6.792,0
4.542,9.538,0
4.543,8.257,0
4.544,15.215,0
4.545,14.299,0
4.546,4.045,0
4.547,-5.476,0
4.548,-6.575,0
4.549,-5.476,0
4.55,-4.561,0
4.551,-3.645,0
4.552,-2.913,0
4.553,-0.716,0
4.554,1.115,0
4.555,4.228,0
4.556,6.975,0
4.557,8.257,0
4.558,14.299,0
4.559,15.031,0
4.56,17.229,0
4.561,15.398,0
4.562,12.285,0
4.563,8.44,0
4.564,6.059,0
4.565,0.932,0
4.566,5.51,0
4.567,3.679,0
4.568,-1.448,0
4.569,-11.702,0
4.57,-19.209,0
4.571,-20.491,0
4.572,-26.533,0
4.573,-27.632,0
4.574,-20.674,0
4.575,-14.265,0
4.576,-5.11,0
4.577,-4.011,0
4.578,-11.885,0
4.579,-23.054,0
4.58,-36.604,0
4.581,-60.408,0
4.582,-82.93,0
4.583,-91.719,0
4.584,-110.4,0
4.585,-127.24,0
4.586,-129.44,0
4.587,-123.4,0
4.588,-106.92,0
4.589,-91.536,0
4.59,-73.408,0
4.591,-47.224,0
4.592,6.426,0
4.593,91.203,0
4.594,124.89,0
4.595,114.64,0
4.596,123.98,0
4.597,115.56,0
4.598,92.485,0
4.599,99.443,0
4.6,105.67,0
4.601,99.992,0
4.602,94.865,0
4.603,90.105,0
4.604,102.92,0
4.605,106.77,0
4.606,103.29,0
4.607,87.175,0
4.608,66.484,0
4.609,58.611,0
4.61,60.991,0
4.611,63.188,0
4.612,57.146,0
4.613,40.666,0
4.614,25.285,0
4.615,11.186,0
4.616,2.031,0
4.617,0.383,0
4.618,1.848,0
4.619,-7.674,0
4.62,-11.153,0
4.621,-21.406,0
4.622,-33.675,0
4.623,-38.618,0
4.624,-43.013,0
4.625,-41.731,0
4.626,-50.154,0
4.627,-53.45,0
4.628,-56.38,0
4.629,-53.633,0
4.63,-52.901,0
4.631,-53.633,0
4.632,-53.084,0
4.633,-47.407,0
4.634,-46.675,0
4.635,-44.844,0
4.636,-45.393,0
4.637,-41.548,0
4.638,-40.266,0
4.639,-35.139,0
4.64,-33.308,0
4.641,-32.393,0
4.642,-29.28,0
4.643,-27.632,0
4.644,-23.054,0
4.645,-21.223,0
4.646,-20.674,0
4.647,-17.378,0
4.648,-15.181,0
4.649,-13.167,0
4.65,-7.49,0
4.651,-5.11,0
4.652,-2.913,0
4.653,-3.462,0
4.654,-0.349,0
4.655,-0.899,0
4.656,3.679,0
4.657,5.51,0
4.658,8.257,0
4.659,6.975,0
4.66,5.693,0
4.661,6.792,0
4.662,3.313,0
4.663,4.594,0
4.664,4.228,0
4.665,6.792,0
4.666,4.961,0
4.667,5.693,0
4.668,5.876,0
4.669,6.609,0
4.67,7.158,0
4.671,7.707,0
4.672,6.426,0
4.673,8.073,0
4.674,7.89,0
4.675,6.609,0
4.676,7.89,0
4.677,5.876,0
4.678,2.58,0
4.679,5.327,0
4.68,1.848,0
4.681,2.214,0
4.682,1.848,0
4.683,4.411,0
4.684,3.313,0
4.685,3.496,0
4.686,4.778,0
4.687,4.045,0
4.688,4.228,0
4.689,4.778,0
4.69,7.707,0
4.691,5.693,0
4.692,4.228,0
4.693,3.13,0
4.694,6.426,0
4.695,4.411,0
4.696,0.932,0
4.697,-3.279,0
4.698,-0.532,0
4.699,0.749,0
4.7,-0.532,0
4.701,-0.166,0
4.702,2.397,0
4.703,2.031,0
4.704,1.299,0
4.705,2.031,0
4.706,2.763,0
4.707,-0.349,0
4.708,-0.716,0
4.709,1.115,0
4.71,2.947,0
4.711,-1.082,0
4.712,-0.532,0
4.713,-1.814,0
4.714,-1.448,0
4.715,-1.082,0
4.716,0.017,0
4.717,1.848,0
4.718,-0.166,0
4.719,0.017,0
4.72,0.749,0
4.721,2.214,0
4.722,-0.166,0
4.723,1.299,0
4.724,0.017,0
4.725,-0.166,0
4.726,1.299,0
4.727,1.482,0
4.728,0.566,0
4.729,-2.18,0
4.73,-3.279,0
4.731,-2.18,0
4.732,-2.364,0
4.733,-3.096,0
4.734,0.932,0
4.735,0.383,0
4.736,1.665,0
4.737,0.383,0
4.738,-3.462,0
4.739,-0.166,0
4.74,2.947,0
4.741,0.932,0
4.742,3.496,0
4.743,-1.631,0
4.744,0.932,0
4.745,-3.645,0
4.746,-4.195,0
4.747,-3.645,0
4.748,-4.195,0
4.749,-2.913,0
4.75,-5.11,0
4.751,-1.265,0
4.752,1.115,0
4.753,2.397,0
4.754,1.299,0
4.755,-1.265,0
4.756,3.496,0
4.757,1.665,0
4.758,2.214,0
4.759,0.932,0
4.76,1.299,0
4.761,-4.927,0
4.762,-0.349,0
4.763,-2.73,0
4.764,-3.462,0
4.765,-2.913,0
4.766,-7.307,0
4.767,-3.462,0
4.768,-0.166,0
4.769,-0.532,0
4.77,0.566,0
4.771,3.13,0
4.772,0.566,0
4.773,2.031,0
4.774,0.749,0
4.775,2.031,0
4.776,2.58,0
4.777,-0.716,0
4.778,0.566,0
4.779,-2.18,0
4.78,-3.279,0
4.781,-5.11,0
4.782,-2.364,0
4.783,-1.265,0
4.784,-2.364,0
4.785,-0.899,0
4.786,-0.716,0
4.787,2.214,0
4.788,-1.265,0
4.789,-0.899,0
4.79,-0.532,0
4.791,2.947,0
4.792,-1.265,0
4.793,1.482,0
4.794,0.566,0
4.795,-2.73,0
4.796,-4.927,0
4.797,-5.293,0
4.798,-4.927,0
4.799,-2.364,0
4.8,-0.349,0
4.801,-4.011,0
4.802,-0.716,0
4.803,1.482,0
4.804,3.496,0
4.805,1.665,0
4.806,-0.166,0
4.807,0.017,0
4.808,0.749,0
4.809,0.566,0
4.81,2.031,0
4.811,1.482,0
4.812,-1.448,0
4.813,-5.293,0
4.814,-4.927,0
4.815,-4.561,0
4.816,-3.462,0
4.817,0.017,0
4.818,-0.349,0
4.819,2.397,0
4.82,1.299,0
4.821,2.397,0
4.822,4.411,0
4.823,2.58,0
4.824,4.961,0
4.825,2.947,0
4.826,2.763,0
4.827,6.792,0
4.828,8.44,0
4.829,3.862,0
4.83,-5.659,0
4.831,-6.941,0
4.832,4.228,0
4.833,2.763,0
4.834,12.285,0
4.835,11.186,0
4.836,-5.843,0
4.837,1.299,0
4.838,3.496,0
4.839,5.51,0
4.84,14.665,0
4.841,-0.349,0
4.842,-6.392,0
4.843,-0.899,0
4.844,7.341,0
4.845,-1.631,0
4.846,-3.096,0
4.847,0.932,0
4.848,-0.166,0
4.849,7.707,0
4.85,-1.448,0
4.851,-4.927,0
4.852,-1.631,0
4.853,1.299,0
4.854,2.214,0
4.855,1.482,0
4.856,3.679,0
4.857,9.905,0
4.858,7.524,0
4.859,-4.011,0
4.86,-5.659,0
4.861,4.778,0
4.862,-1.997,0
4.863,-0.899,0
4.864,6.975,0
4.865,7.89,0
4.866,1.482,0
4.867,-6.026,0
4.868,5.144,0
4.869,3.679,0
4.87,-3.096,0
4.871,15.398,0
4.872,12.834,0
4.873,0.749,0
4.874,2.947,0
4.875,0.932,0
4.876,-4.561,0
4.877,-2.913,0
4.878,-4.378,0
4.879,-3.096,0
4.88,-4.195,0
4.881,-5.293,0
4.882,-2.364,0
4.883,-1.448,0
4.884,0.932,0
4.885,0.2,0
4.886,4.778,0
4.887,1.665,0
4.888,0.017,0
4.889,4.594,0
4.89,6.426,0
4.891,5.876,0
4.892,4.594,0
4.893,4.961,0
4.894,3.862,0
4.895,2.763,0
4.896,1.299,0
4.897,-2.73,0
4.898,4.778,0
4.899,17.229,0
4.9,15.581,0
4.901,8.073,0
4.902,4.045,0
4.903,-1.997,0
4.904,3.679,0
4.905,2.763,0
4.906,3.679,0
4.907,2.947,0
4.908,2.214,0
4.909,-2.364,0
4.91,-0.532,0
4.911,-4.378,0
4.912,-1.082,0
4.913,-4.195,0
4.914,-1.448,0
4.915,-4.927,0
4.916,-4.561,0
4.917,-3.462,0
4.918,-2.364,0
4.919,-1.997,0
4.92,1.299,0
4.921,-0.899,0
4.922,0.2,0
4.923,2.763,0
4.924,3.13,0
4.925,3.313,0
4.926,0.749,0
4.927,-1.814,0
4.928,-3.279,0
4.929,-3.096,0
4.93,-3.828,0
4.931,-5.293,0
4.932,-1.997,0
4.933,-2.364,0
4.934,-4.378,0
4.935,-1.814,0
4.936,-2.18,0
4.937,1.848,0
4.938,2.397,0
4.939,0.017,0
4.94,1.299,0
4.941,5.144,0
4.942,1.848,0
4.943,2.214,0
4.944,-4.011,0
4.945,-3.096,0
4.946,-2.364,0
4.947,-6.026,0
4.948,-3.828,0
4.949,3.679,0
4.95,-1.265,0
4.951,12.651,0
4.952,10.637,0
4.953,1.482,0
4.954,-0.166,0
4.955,1.299,0
4.956,0.017,0
4.957,1.115,0
4.958,0.017,0
4.959,-0.899,0
4.96,-1.814,0
4.961,-2.547,0
4.962,-6.392,0
4.963,-5.843,0
4.964,-8.955,0
4.965,-6.209,0
4.966,-4.927,0
4.967,-8.04,0
4.968,-3.462,0
4.969,-2.913,0
4.97,-0.166,0
4.971,-1.448,0
4.972,-1.082,0
4.973,-1.448,0
4.974,3.496,0
4.975,4.045,0
4.976,2.214,0
4.977,-1.631,0
4.978,-0.349,0
4.979,-2.547,0
4.98,-5.293,0
4.981,-4.195,0
4.982,-0.899,0
4.983,0.2,0
4.984,-0.166,0
4.985,-3.462,0
4.986,1.115,0
4.987,-0.716,0
4.988,3.13,0
4.989,6.426,0
4.99,2.214,0
4.991,3.862,0
4.992,1.482,0
4.993,1.115,0
4.994,-1.631,0
4.995,-3.462,0
4.996,-6.026,0
4.997,-4.011,0
4.998,-3.096,0
4.999,0.017,0
5,4.594,0
5.001,5.144,0
5.002,13.567,0
5.003,17.046,0
5.004,6.792,0
5.005,0.017,0
5.006,1.115,0
5.007,2.214,0
5.008,-0.716,0
5.009,-5.293,0
5.01,-4.561,0
5.011,-5.293,0
5.012,-9.871,0
5.013,-8.04,0
5.014,-6.392,0
5.015,-6.026,0
5.016,-1.814,0
5.017,-1.265,0
5.018,0.017,0
5.019,3.13,0
5.02,2.031,0
5.021,0.2,0
5.022,-0.166,0
5.023,4.411,0
5.024,6.242,0
5.025,4.411,0
5.026,1.665,0
5.027,0.383,0
5.028,-2.73,0
5.029,-8.223,0
5.03,-6.026,0
5.031,-5.476,0
5.032,-3.645,0
5.033,-1.997,0
5.034,-0.716,0
5.035,2.397,0
5.036,4.411,0
5.037,3.313,0
5.038,2.214,0
5.039,0.749,0
5.04,4.961,0
5.041,6.792,0
5.042,2.947,0
5.043,2.58,0
5.044,-0.532,0
5.045,-0.899,0
5.046,-0.532,0
5.047,-3.096,0
5.048,-7.674,0
5.049,-2.364,0
5.05,-1.814,0
5.051,7.707,0
5.052,6.426,0
5.053,7.524,0
5.054,17.778,0
5.055,8.257,0
5.056,-7.857,0
5.057,3.13,0
5.058,1.115,0
5.059,-0.716,0
5.06,-2.364,0
5.061,-0.899,0
5.062,-4.927,0
5.063,-6.026,0
5.064,-9.322,0
5.065,-4.378,0
5.066,-5.293,0
5.067,-2.913,0
5.068,-2.18,0
5.069,-0.349,0
5.07,-2.18,0
5.071,-1.631,0
5.072,-0.349,0
5.073,0.932,0
5.074,7.158,0
5.075,8.073,0
5.076,2.397,0
5.077,-1.448,0
5.078,-3.279,0
5.079,-6.392,0
5.08,-5.843,0
5.081,-7.124,0
5.082,-4.011,0
5.083,-0.166,0
5.084,-2.547,0
5.085,1.665,0
5.086,0.017,0
5.087,-1.265,0
5.088,1.848,0
5.089,2.947,0
5.09,5.51,0
5.091,5.876,0
5.092,6.609,0
5.093,2.397,0
5.094,0.566,0
5.095,-2.18,0
5.096,-3.462,0
5.097,-4.744,0
5.098,-1.997,0
5.099,-0.899,0
5.1,2.031,0
5.101,-1.997,0
5.102,5.51,0
5.103,17.961,0
5.104,16.313,0
5.105,8.806,0
5.106,2.031,0
5.107,3.13,0
5.108,4.228,0
5.109,1.299,0
5.11,-1.448,0
5.111,-5.476,0
5.112,-6.209,0
5.113,-8.04,0
5.114,-8.589,0
5.115,-6.941,0
5.116,-4.561,0
5.117,-3.279,0
5.118,-1.265,0
5.119,-0.899,0
5.12,0.932,0
5.121,0.749,0
5.122,1.482,0
5.123,2.763,0
5.124,1.299,0
5.125,1.482,0
5.126,0.566,0
5.127,-0.349,0
5.128,-2.364,0
5.129,-1.997,0
5.13,-2.18,0
5.131,-5.293,0
5.132,-4.195,0
5.133,-2.364,0
5.134,0.2,0
5.135,-2.547,0
5.136,1.665,0
5.137,1.115,0
5.138,2.397,0
5.139,2.763,0
5.14,3.862,0
5.141,3.496,0
5.142,0.932,0
5.143,3.679,0
5.144,2.58,0
5.145,-1.448,0
5.146,-0.166,0
5.147,-3.279,0
5.148,-4.378,0
5.149,-0.166,0
5.15,0.383,0
5.151,-1.631,0
5.152,-1.265,0
5.153,5.693,0
5.154,6.609,0
5.155,20.525,0
5.156,18.51,0
5.157,13.017,0
5.158,4.778,0
5.159,3.313,0
5.16,-3.462,0
5.161,-2.364,0
5.162,-8.04,0
5.163,-8.955,0
5.164,-8.04,0
5.165,-7.307,0
5.166,-8.04,0
5.167,-1.814,0
5.168,-4.195,0
5.169,-3.462,0
5.17,-2.913,0
5.171,2.763,0
5.172,3.496,0
5.173,5.327,0
5.174,3.496,0
5.175,1.848,0
5.176,1.482,0
5.177,-0.716,0
5.178,-2.73,0
5.179,-6.209,0
5.18,-4.927,0
5.181,-7.674,0
5.182,-5.11,0
5.183,-5.476,0
5.184,-0.899,0
5.185,-0.349,0
5.186,2.763,0
5.187,-1.082,0
5.188,0.2,0
5.189,5.327,0
5.19,5.876,0
5.191,4.045,0
5.192,2.397,0
5.193,1.115,0
5.194,2.397,0
5.195,-0.349,0
5.196,-1.448,0
5.197,-2.547,0
5.198,-1.814,0
5.199,-3.096,0
5.2,-2.364,0
5.201,-0.899,0
5.202,-0.899,0
5.203,-0.349,0
5.204,2.58,0
5.205,5.327,0
5.206,10.271,0
5.207,20.525,0
5.208,16.13,0
5.209,-4.378,0
5.21,-1.448,0
5.211,-4.011,0
5.212,-6.392,0
5.213,-8.589,0
5.214,-6.575,0
5.215,-8.406,0
5.216,-6.758,0
5.217,-2.364,0
5.218,-3.645,0
5.219,-2.547,0
5.22,-1.448,0
5.221,-0.532,0
5.222,0.383,0
5.223,2.763,0
5.224,2.031,0
5.225,3.862,0
5.226,0.749,0
5.227,-1.997,0
5.228,-2.364,0
5.229,-9.322,0
5.23,-2.364,0
5.231,-3.279,0
5.232,-4.011,0
5.233,-3.279,0
5.234,-3.828,0
5.235,-0.716,0
5.236,0.932,0
5.237,0.566,0
5.238,0.932,0
5.239,-0.166,0
5.24,4.778,0
5.241,1.482,0
5.242,3.313,0
5.243,2.763,0
5.244,-0.532,0
5.245,-1.814,0
5.246,-2.18,0
5.247,-4.744,0
5.248,-5.11,0
5.249,-1.082,0
5.25,-2.73,0
5.251,-1.448,0
5.252,-2.73,0
5.253,0.566,0
5.254,2.58,0
5.255,8.257,0
5.256,8.989,0
5.257,20.525,0
5.258,15.581,0
5.259,8.073,0
5.26,1.299,0
5.261,-2.18,0
5.262,-5.476,0
5.263,-6.392,0
5.264,-7.307,0
5.265,-4.927,0
5.266,-5.659,0
5.267,-2.364,0
5.268,-4.195,0
5.269,-2.547,0
5.27,0.749,0
5.271,1.115,0
5.272,0.017,0
5.273,-1.082,0
5.274,-0.716,0
5.275,0.017,0
5.276,-1.814,0
5.277,-1.631,0
5.278,-5.11,0
5.279,-3.828,0
5.28,-6.026,0
5.281,-4.927,0
5.282,-2.364,0
5.283,-0.532,0
5.284,0.2,0
5.285,1.482,0
5.286,2.214,0
5.287,-0.899,0
5.288,3.679,0
5.289,0.566,0
5.29,1.115,0
5.291,4.411,0
5.292,0.2,0
5.293,-4.927,0
5.294,-1.631,0
5.295,-3.462,0
5.296,-4.011,0
5.297,-8.589,0
5.298,-5.476,0
5.299,-2.73,0
5.3,0.566,0
5.301,2.763,0
5.302,5.51,0
5.303,5.876,0
5.304,4.961,0
5.305,6.792,0
5.306,11.369,0
5.307,14.665,0
5.308,17.778,0
5.309,9.355,0
5.31,-1.814,0
5.311,-3.279,0
5.312,-7.307,0
5.313,-6.209,0
5.314,-7.307,0
5.315,-6.392,0
5.316,-3.645,0
5.317,-1.265,0
5.318,-0.532,0
5.319,0.017,0
5.32,8.257,0
5.321,9.355,0
5.322,4.411,0
5.323,3.496,0
5.324,5.876,0
5.325,3.679,0
5.326,-0.899,0
5.327,-2.73,0
5.328,-6.575,0
5.329,-6.209,0
5.33,-6.575,0
5.331,-7.674,0
5.332,-5.843,0
5.333,-5.476,0
5.334,-6.941,0
5.335,-5.11,0
5.336,-2.18,0
5.337,-3.279,0
5.338,-1.448,0
5.339,1.299,0
5.34,4.778,0
5.341,4.411,0
5.342,3.313,0
5.343,0.749,0
5.344,-1.082,0
5.345,-5.659,0
5.346,-7.49,0
5.347,-6.941,0
5.348,-4.195,0
5.349,-5.476,0
5.35,-4.195,0
5.351,-1.448,0
5.352,-0.349,0
5.353,2.947,0
5.354,1.848,0
5.355,1.299,0
5.356,4.778,0
5.357,11.736,0
5.358,10.82,0
5.359,-1.265,0
5.36,17.046,0
5.361,9.905,0
5.362,-1.082,0
5.363,-7.124,0
5.364,-5.293,0
5.365,-6.941,0
5.366,-5.476,0
5.367,-4.195,0
5.368,-3.096,0
5.369,0.2,0
5.37,-0.716,0
5.371,2.031,0
5.372,-0.349,0
5.373,1.848,0
5.374,2.397,0
5.375,1.848,0
5.376,-0.899,0
5.377,-2.18,0
5.378,-4.378,0
5.379,-3.279,0
5.38,-6.758,0
5.381,-3.645,0
5.382,-4.011,0
5.383,0.2,0
5.384,-1.448,0
5.385,-0.166,0
5.386,0.2,0
5.387,0.566,0
5.388,-0.532,0
5.389,2.763,0
5.39,5.51,0
5.391,2.947,0
5.392,-1.814,0
5.393,-1.265,0
5.394,2.58,0
5.395,-0.716,0
5.396,-1.997,0
5.397,-4.744,0
5.398,-5.843,0
5.399,-4.011,0
5.4,-1.997,0
5.401,-0.166,0
5.402,-2.547,0
5.403,2.031,0
5.404,6.609,0
5.405,2.214,0
5.406,4.961,0
5.407,3.313,0
5.408,10.82,0
5.409,7.524,0
5.41,0.566,0
5.411,14.482,0
5.412,4.411,0
5.413,-4.744,0
5.414,-6.392,0
5.415,-1.997,0
5.416,-0.716,0
5.417,0.383,0
5.418,1.482,0
5.419,8.44,0
5.42,9.355,0
5.421,13.384,0
5.422,18.694,0
5.423,19.243,0
5.424,19.792,0
5.425,14.665,0
5.426,8.44,0
5.427,9.172,0
5.428,5.327,0
5.429,0.749,0
5.43,-6.209,0
5.431,-14.632,0
5.432,-17.927,0
5.433,-22.871,0
5.434,-23.787,0
5.435,-27.815,0
5.436,-25.618,0
5.437,-15.364,0
5.438,1.115,0
5.439,3.313,0
5.44,-2.73,0
5.441,-19.209,0
5.442,-30.196,0
5.443,-56.38,0
5.444,-81.282,0
5.445,-103.8,0
5.446,-124.5,0
5.447,-127.06,0
5.448,-134.2,0
5.449,-132,0
5.45,-113.88,0
5.451,-101.79,0
5.452,-77.437,0
5.453,-54.915,0
5.454,-10.42,0
5.455,84.978,0
5.456,125.81,0
5.457,124.34,0
5.458,136.8,0
5.459,125.63,0
5.46,115.37,0
5.461,106.03,0
5.462,97.612,0
5.463,105.3,0
5.464,98.344,0
5.465,104.57,0
5.466,121.78,0
5.467,106.22,0
5.468,91.936,0
5.469,70.329,0
5.47,58.611,0
5.471,55.132,0
5.472,58.244,0
5.473,67.033,0
5.474,53.667,0
5.475,41.582,0
5.476,26.201,0
5.477,12.102,0
5.478,2.947,0
5.479,4.594,0
5.48,3.13,0
5.481,-6.392,0
5.482,-9.871,0
5.483,-22.322,0
5.484,-30.562,0
5.485,-34.956,0
5.486,-36.238,0
5.487,-42.281,0
5.488,-45.576,0
5.489,-50.52,0
5.49,-49.605,0
5.491,-45.576,0
5.492,-41.731,0
5.493,-47.957,0
5.494,-48.689,0
5.495,-52.534,0
5.496,-50.703,0
5.497,-53.816,0
5.498,-51.07,0
5.499,-48.689,0
5.5,-43.562,0
5.501,-43.013,0
5.502,-38.618,0
5.503,-33.491,0
5.504,-25.984,0
5.505,-23.054,0
5.506,-18.477,0
5.507,-17.744,0
5.508,-15.547,0
5.509,-13.35,0
5.51,-3.096,0
5.511,-7.49,0
5.512,-14.265,0
5.513,4.228,0
5.514,1.665,0
5.515,-5.476,0
5.516,-3.279,0
5.517,-5.293,0
5.518,-3.462,0
5.519,-1.814,0
5.52,2.58,0
5.521,3.862,0
5.522,2.763,0
5.523,6.059,0
5.524,5.144,0
5.525,6.059,0
5.526,3.679,0
5.527,4.411,0
5.528,1.115,0
5.529,2.947,0
5.53,1.299,0
5.531,1.665,0
5.532,3.862,0
5.533,6.609,0
5.534,7.707,0
5.535,6.609,0
5.536,5.144,0
5.537,6.426,0
5.538,7.158,0
5.539,8.623,0
5.54,11.003,0
5.541,10.271,0
5.542,7.158,0
5.543,7.524,0
5.544,4.961,0
5.545,3.862,0
5.546,0.566,0
5.547,-0.716,0
5.548,-0.349,0
5.549,2.214,0
5.55,2.58,0
5.551,1.848,0
5.552,2.58,0
5.553,1.848,0
5.554,5.327,0
5.555,4.961,0
5.556,6.242,0
5.557,6.609,0
5.558,6.242,0
5.559,3.496,0
5.56,4.594,0
5.561,4.411,0
5.562,0.2,0
5.563,-2.913,0
5.564,-2.364,0
5.565,0.932,0
5.566,6.975,0
5.567,-5.476,0
5.568,3.679,0
5.569,-1.265,0
5.57,9.172,0
5.571,-0.349,0
5.572,18.144,0
5.573,10.271,0
5.574,3.13,0
5.575,0.932,0
5.576,-5.11,0
5.577,-6.941,0
5.578,-1.997,0
5.579,-6.392,0
5.58,-7.674,0
5.581,-8.772,0
5.582,-5.476,0
5.583,-2.547,0
5.584,-5.293,0
5.585,-2.913,0
5.586,-0.716,0
5.587,2.58,0
5.588,-0.532,0
5.589,1.115,0
5.59,5.693,0
5.591,3.862,0
5.592,-1.265,0
5.593,2.031,0
5.594,0.2,0
5.595,-3.645,0
5.596,-4.927,0
5.597,-5.293,0
5.598,0.2,0
5.599,-3.645,0
5.6,-0.349,0
5.601,-0.899,0
5.602,-0.349,0
5.603,2.947,0
5.604,2.58,0
5.605,2.947,0
5.606,3.313,0
5.607,4.411,0
5.608,1.115,0
5.609,2.397,0
5.61,2.763,0
5.611,-1.814,0
5.612,7.707,0
5.613,0.932,0
5.614,17.046,0
5.615,10.454,0
5.616,-3.645,0
5.617,-1.814,0
5.618,-0.166,0
5.619,-1.631,0
5.62,-0.349,0
5.621,3.13,0
5.622,2.031,0
5.623,4.961,0
5.624,2.214,0
5.625,1.482,0
5.626,-2.364,0
5.627,-2.913,0
5.628,-2.364,0
5.629,-1.814,0
5.63,-7.307,0
5.631,-3.462,0
5.632,-5.293,0
5.633,-4.744,0
5.634,-5.293,0
5.635,-1.997,0
5.636,-0.716,0
5.637,-1.082,0
5.638,-1.448,0
5.639,1.848,0
5.64,1.482,0
5.641,3.313,0
5.642,2.214,0
5.643,-2.364,0
5.644,-0.532,0
5.645,-4.927,0
5.646,-3.279,0
5.647,-1.997,0
5.648,-5.11,0
5.649,-0.532,0
5.65,-3.645,0
5.651,-0.899,0
5.652,-1.265,0
5.653,2.947,0
5.654,0.2,0
5.655,1.482,0
5.656,2.763,0
5.657,3.13,0
5.658,1.299,0
5.659,-1.997,0
5.66,-4.011,0
5.661,-1.631,0
5.662,3.313,0
5.663,1.482,0
5.664,3.313,0
5.665,4.961,0
5.666,12.468,0
5.667,4.594,0
5.668,-10.603,0
5.669,0.383,0
5.67,-1.631,0
5.671,-3.462,0
5.672,-1.814,0
5.673,-3.279,0
5.674,-1.997,0
5.675,-0.899,0
5.676,-1.997,0
5.677,-4.927,0
5.678,-4.011,0
5.679,-4.744,0
5.68,-6.941,0
5.681,-6.392,0
5.682,-3.279,0
5.683,-3.828,0
5.684,-1.448,0
5.685,1.665,0
5.686,-0.349,0
5.687,3.862,0
5.688,1.115,0
5.689,1.482,0
5.69,4.594,0
5.691,1.848,0
5.692,0.017,0
5.693,0.383,0
5.694,1.115,0
5.695,-3.096,0
5.696,-4.927,0
5.697,-2.18,0
5.698,-3.462,0
5.699,-1.265,0
5.7,-1.631,0
5.701,0.932,0
5.702,0.566,0
5.703,3.862,0
5.704,1.665,0
5.705,3.679,0
5.706,3.313,0
5.707,5.144,0
5.708,3.679,0
5.709,4.411,0
5.71,0.383,0
5.711,-1.265,0
5.712,-1.631,0
5.713,-6.209,0
5.714,3.313,0
5.715,4.594,0
5.716,15.764,0
5.717,17.229,0
5.718,4.961,0
5.719,0.017,0
5.72,-1.448,0
5.721,2.58,0
5.722,-0.899,0
5.723,-4.195,0
5.724,-1.265,0
5.725,-2.18,0
5.726,-2.913,0
5.727,-3.645,0
5.728,-3.096,0
5.729,-1.265,0
5.73,-1.814,0
5.731,-0.532,0
5.732,-0.899,0
5.733,0.2,0
5.734,-0.899,0
5.735,-0.532,0
5.736,-1.265,0
5.737,0.566,0
5.738,1.299,0
5.739,2.763,0
5.74,3.313,0
5.741,2.763,0
5.742,0.017,0
5.743,-0.349,0
5.744,0.017,0
5.745,0.749,0
5.746,-1.082,0
5.747,-2.913,0
5.748,-6.026,0
5.749,0.2,0
5.75,1.115,0
5.751,3.496,0
5.752,5.693,0
5.753,5.144,0
5.754,5.693,0
5.755,5.144,0
5.756,4.778,0
5.757,6.975,0
5.758,5.876,0
5.759,0.2,0
5.76,0.932,0
5.761,-2.913,0
5.762,-3.462,0
5.763,-4.561,0
5.764,-4.011,0
5.765,4.411,0
5.766,5.51,0
5.767,13.384,0
5.768,14.299,0
5.769,0.383,0
5.77,-1.631,0
5.771,0.2,0
5.772,1.848,0
5.773,3.313,0
5.774,2.031,0
5.775,3.13,0
5.776,-0.166,0
5.777,-5.11,0
5.778,-4.195,0
5.779,-6.575,0
5.78,-5.843,0
5.781,-1.265,0
5.782,-6.941,0
5.783,-4.744,0
5.784,-2.913,0
5.785,1.482,0
5.786,-1.265,0
5.787,-4.561,0
5.788,-3.279,0
5.789,-0.532,0
5.79,1.299,0
5.791,3.13,0
5.792,-1.448,0
5.793,0.383,0
5.794,0.932,0
5.795,-0.716,0
5.796,-5.293,0
5.797,-4.744,0
5.798,-6.392,0
5.799,-3.096,0
5.8,-3.462,0
5.801,-2.364,0
5.802,-1.265,0
5.803,1.299,0
5.804,0.566,0
5.805,1.848,0
5.806,4.228,0
5.807,-0.349,0
5.808,0.2,0
5.809,0.749,0
5.81,0.2,0
5.811,-1.082,0
5.812,4.045,0
5.813,-3.462,0
5.814,-4.561,0
5.815,-1.631,0
5.816,-0.716,0
5.817,10.088,0
5.818,5.693,0
5.819,6.975,0
5.82,15.398,0
5.821,-1.631,0
5.822,-8.772,0
5.823,-2.18,0
5.824,-4.195,0
5.825,-2.364,0
5.826,-7.307,0
5.827,-5.843,0
5.828,-7.124,0
5.829,-8.223,0
5.83,-7.124,0
5.831,-6.209,0
5.832,-3.462,0
5.833,-2.73,0
5.834,-1.997,0
5.835,-0.166,0
5.836,1.665,0
5.837,0.017,0
5.838,-0.349,0
5.839,1.848,0
5.84,2.947,0
5.841,1.115,0
5.842,2.214,0
5.843,-2.364,0
5.844,-4.195,0
5.845,-4.744,0
5.846,-6.392,0
5.847,-5.11,0
5.848,-1.997,0
5.849,-0.899,0
5.85,1.665,0
5.851,0.566,0
5.852,2.031,0
5.853,2.214,0
5.854,2.947,0
5.855,4.411,0
5.856,1.115,0
5.857,2.397,0
5.858,2.763,0
5.859,0.932,0
5.86,-0.899,0
5.861,-2.913,0
5.862,-3.096,0
5.863,0.383,0
5.864,-1.814,0
5.865,-0.166,0
5.866,0.932,0
5.867,6.609,0
5.868,12.285,0
5.869,17.595,0
5.87,7.341,0
5.871,-0.166,0
5.872,1.115,0
5.873,2.214,0
5.874,-1.082,0
5.875,-0.166,0
5.876,-1.082,0
5.877,-3.462,0
5.878,-5.659,0
5.879,-6.209,0
5.88,-4.378,0
5.881,-4.927,0
5.882,-3.645,0
5.883,-0.532,0
5.884,-1.631,0
5.885,4.045,0
5.886,1.665,0
5.887,0.932,0
5.888,7.158,0
5.889,6.426,0
5.89,7.158,0
5.891,2.58,0
5.892,-1.814,0
5.893,-3.462,0
5.894,-4.744,0
5.895,-3.462,0
5.896,-5.476,0
5.897,-6.575,0
5.898,-3.279,0
5.899,-2.18,0
5.9,-0.349,0
5.901,0.749,0
5.902,1.482,0
5.903,1.299,0
5.904,2.031,0
5.905,1.482,0
5.906,2.031,0
5.907,2.214,0
5.908,-0.166,0
5.909,0.566,0
5.91,-0.716,0
5.911,-2.547,0
5.912,-5.11,0
5.913,-4.011,0
5.914,-1.997,0
5.915,-1.814,0
5.916,4.961,0
5.917,2.031,0
5.918,7.707,0
5.919,11.736,0
5.92,20.158,0
5.921,16.863,0
5.922,3.679,0
5.923,1.848,0
5.924,0.2,0
5.925,-1.265,0
5.926,-2.547,0
5.927,-6.026,0
5.928,-9.322,0
5.929,-8.406,0
5.93,-5.659,0
5.931,-4.927,0
5.932,-2.73,0
5.933,-4.561,0
5.934,-0.166,0
5.935,2.58,0
5.936,3.862,0
5.937,3.496,0
5.938,3.862,0
5.939,0.383,0
5.94,1.665,0
5.941,-0.349,0
5.942,-1.448,0
5.943,-1.082,0
5.944,-2.547,0
5.945,-0.716,0
5.946,-4.744,0
5.947,-1.997,0
5.948,-3.279,0
5.949,-1.082,0
5.95,-1.448,0
5.951,0.383,0
5.952,0.749,0
5.953,0.017,0
5.954,3.679,0
5.955,2.397,0
5.956,2.763,0
5.957,1.665,0
5.958,-1.814,0
5.959,-0.532,0
5.96,-4.378,0
5.961,-1.997,0
5.962,-4.195,0
5.963,-1.448,0
5.964,-1.082,0
5.965,0.749,0
5.966,2.763,0
5.967,3.496,0
5.968,0.383,0
5.969,6.609,0
5.97,-1.814,0
5.971,15.215,0
5.972,12.834,0
5.973,1.848,0
5.974,-0.166,0
5.975,-5.659,0
5.976,-0.716,0
5.977,-2.18,0
5.978,-6.209,0
5.979,-9.688,0
5.98,-8.589,0
5.981,-3.645,0
5.982,-2.73,0
5.983,-3.462,0
5.984,-4.195,0
5.985,-3.645,0
5.986,-4.195,0
5.987,-0.349,0
5.988,2.947,0
5.989,-1.265,0
5.99,1.482,0
5.991,3.862,0
5.992,-1.265,0
5.993,-1.814,0
5.994,0.017,0
5.995,-2.73,0
5.996,-4.011,0
5.997,-2.73,0
5.998,0.017,0
5.999,-1.814,0
6,2.214,0
6.001,0.932,0
6.002,3.13,0
6.003,2.031,0
6.004,5.51,0
6.005,1.299,0
6.006,4.045,0
6.007,-3.462,0
6.008,-2.364,0
6.009,0.566,0
6.01,-2.18,0
6.011,-4.561,0
6.012,-2.364,0
6.013,-4.195,0
6.014,-4.744,0
6.015,0.383,0
6.016,-1.448,0
6.017,-0.899,0
6.018,-0.899,0
6.019,1.848,0
6.02,9.355,0
6.021,10.454,0
6.022,25.652,0
6.023,23.454,0
6.024,9.355,0
6.025,0.2,0
6.026,-1.448,0
6.027,-2.913,0
6.028,-6.941,0
6.029,-8.04,0
6.03,-4.744,0
6.031,-7.674,0
6.032,-3.096,0
6.033,-3.828,0
6.034,-4.561,0
6.035,0.017,0
6.036,-4.378,0
6.037,-2.73,0
6.038,0.566,0
6.039,0.932,0
6.04,-0.166,0
6.041,0.932,0
6.042,-0.899,0
6.043,-0.716,0
6.044,-1.448,0
6.045,-2.18,0
6.046,-2.364,0
6.047,-2.913,0
6.048,-0.716,0
6.049,-0.899,0
6.05,2.58,0
6.051,2.947,0
6.052,0.2,0
6.053,0.566,0
6.054,-0.532,0
6.055,2.214,0
6.056,7.89,0
6.057,8.623,0
6.058,1.665,0
6.059,-1.082,0
6.06,-1.814,0
6.061,-5.659,0
6.062,-3.828,0
6.063,-4.378,0
6.064,-1.631,0
6.065,-6.209,0
6.066,0.749,0
6.067,-1.997,0
6.068,0.383,0
6.069,2.763,0
6.07,2.031,0
6.071,12.285,0
6.072,10.82,0
6.073,9.538,0
6.074,17.961,0
6.075,12.285,0
6.076,-0.899,0
6.077,-6.392,0
6.078,-11.336,0
6.079,-9.871,0
6.08,-8.589,0
6.081,-7.49,0
6.082,-4.195,0
6.083,-5.11,0
6.084,-2.364,0
6.085,-1.631,0
6.086,-3.828,0
6.087,-0.532,0
6.088,2.58,0
6.089,4.228,0
6.09,2.947,0
6.091,-0.166,0
6.092,0.932,0
6.093,-0.899,0
6.094,-2.73,0
6.095,-5.476,0
6.096,-1.265,0
6.097,-2.913,0
6.098,-4.195,0
6.099,-1.082,0
6.1,-3.828,0
6.101,-1.265,0
6.102,3.496,0
6.103,0.383,0
6.104,4.228,0
6.105,2.947,0
6.106,4.228,0
6.107,-1.265,0
6.108,0.932,0
6.109,-2.364,0
6.11,-0.532,0
6.111,0.017,0
6.112,-1.265,0
6.113,-1.631,0
6.114,-1.265,0
6.115,-0.166,0
6.116,2.397,0
6.117,0.383,0
6.118,-1.448,0
6.119,2.031,0
6.12,2.031,0
6.121,2.397,0
6.122,8.623,0
6.123,9.538,0
6.124,17.046,0
6.125,1.848,0
6.126,-9.138,0
6.127,-3.096,0
6.128,-8.589,0
6.129,-6.941,0
6.13,-5.476,0
6.131,-4.195,0
6.132,-7.674,0
6.133,-1.997,0
6.134,-2.913,0
6.135,-0.166,0
6.136,-4.195,0
6.137,-3.462,0
6.138,-0.166,0
6.139,2.947,0
6.14,1.299,0
6.141,0.017,0
6.142,2.214,0
6.143,-0.532,0
6.144,-4.011,0
6.145,0.2,0
6.146,-2.547,0
6.147,0.749,0
6.148,-3.462,0
6.149,-0.716,0
6.15,-0.349,0
6.151,2.763,0
6.152,0.017,0
6.153,0.383,0
6.154,2.214,0
6.155,2.947,0
6.156,2.214,0
6.157,2.031,0
6.158,1.482,0
6.159,-1.814,0
6.16,-2.18,0
6.161,-6.026,0
6.162,-6.392,0
6.163,-4.195,0
6.164,-1.448,0
6.165,-2.547,0
6.166,1.482,0
6.167,0.2,0
6.168,-1.082,0
6.169,1.665,0
6.17,3.496,0
6.171,2.763,0
6.172,5.327,0
6.173,6.059,0
6.174,8.623,0
6.175,6.059,0
6.176,10.637,0
6.177,13.933,0
6.178,4.411,0
6.179,-5.11,0
6.18,-4.011,0
6.181,-7.307,0
6.182,-6.392,0
6.183,-3.645,0
6.184,-1.265,0
6.185,0.932,0
6.186,0.383,0
6.187,0.932,0
6.188,-1.814,0
6.189,2.763,0
6.19,-1.631,0
6.191,0.017,0
6.192,-2.364,0
6.193,-3.645,0
6.194,-4.744,0
6.195,-2.18,0
6.196,-3.279,0
6.197,-2.547,0
6.198,-3.828,0
6.199,-6.209,0
6.2,-1.631,0
6.201,-1.082,0
6.202,-0.532,0
6.203,2.214,0
6.204,1.848,0
6.205,4.045,0
6.206,2.947,0
6.207,2.58,0
6.208,0.017,0
6.209,-1.448,0
6.21,-0.716,0
6.211,-4.744,0
6.212,-3.096,0
6.213,-2.73,0
6.214,-3.096,0
6.215,-1.997,0
6.216,-0.166,0
6.217,0.932,0
6.218,1.115,0
6.219,1.299,0
6.22,3.679,0
6.221,2.214,0
6.222,5.693,0
6.223,3.862,0
6.224,7.89,0
6.225,7.341,0
6.226,-0.166,0
6.227,14.665,0
6.228,4.594,0
6.229,-8.223,0
6.23,-3.279,0
6.231,-1.814,0
6.232,-3.096,0
6.233,-1.997,0
6.234,-5.293,0
6.235,-2.364,0
6.236,-3.279,0
6.237,-5.659,0
6.238,-3.462,0
6.239,-2.913,0
6.24,-2.364,0
6.241,-0.716,0
6.242,-1.082,0
6.243,-1.448,0
6.244,-2.547,0
6.245,-4.378,0
6.246,-2.547,0
6.247,2.031,0
6.248,0.2,0
6.249,-0.349,0
6.25,3.496,0
6.251,4.778,0
6.252,6.059,0
6.253,3.313,0
6.254,5.876,0
6.255,6.975,0
6.256,4.228,0
6.257,5.327,0
6.258,0.566,0
6.259,-1.265,0
6.26,-2.913,0
6.261,-4.195,0
6.262,-5.476,0
6.263,-6.575,0
6.264,-6.209,0
6.265,-3.645,0
6.266,-0.349,0
6.267,-0.716,0
6.268,0.383,0
6.269,3.862,0
6.27,4.228,0
6.271,2.214,0
6.272,7.158,0
6.273,3.496,0
6.274,2.947,0
6.275,9.905,0
6.276,7.158,0
6.277,-1.997,0
6.278,14.116,0
6.279,-1.265,0
6.28,-3.279,0
6.281,-5.11,0
6.282,-6.758,0
6.283,-2.364,0
6.284,-6.392,0
6.285,-7.49,0
6.286,-6.392,0
6.287,-1.448,0
6.288,-4.195,0
6.289,-0.166,0
6.29,-2.364,0
6.291,-0.532,0
6.292,-1.082,0
6.293,-0.532,0
6.294,-6.026,0
6.295,-2.18,0
6.296,-5.476,0
6.297,-2.364,0
6.298,-5.11,0
6.299,-1.814,0
6.3,-4.011,0
6.301,1.482,0
6.302,8.44,0
6.303,7.524,0
6.304,3.496,0
6.305,2.763,0
6.306,2.214,0
6.307,4.045,0
6.308,1.299,0
6.309,1.665,0
6.31,-0.532,0
6.311,-0.166,0
6.312,-2.73,0
6.313,-6.758,0
6.314,-3.462,0
6.315,-3.096,0
6.316,0.749,0
6.317,0.383,0
6.318,0.017,0
6.319,-2.73,0
6.32,2.947,0
6.321,3.679,0
6.322,1.482,0
6.323,3.313,0
6.324,3.496,0
6.325,1.665,0
6.326,10.088,0
6.327,6.609,0
6.328,7.707,0
6.329,2.763,0
6.33,-7.49,0
6.331,-6.209,0
6.332,-2.73,0
6.333,-3.828,0
6.334,-0.899,0
6.335,-3.645,0
6.336,-1.265,0
6.337,-1.997,0
6.338,1.299,0
6.339,1.848,0
6.34,0.2,0
6.341,-3.096,0
6.342,-2.73,0
6.343,-3.828,0
6.344,-1.997,0
6.345,-4.561,0
6.346,-6.575,0
6.347,-2.364,0
6.348,-4.195,0
6.349,-2.547,0
6.35,-1.265,0
6.351,-0.899,0
6.352,0.2,0
6.353,0.566,0
6.354,3.13,0
6.355,3.313,0
6.356,5.144,0
6.357,3.313,0
6.358,2.763,0
6.359,2.214,0
6.36,-0.716,0
6.361,-1.082,0
6.362,0.017,0
6.363,2.58,0
6.364,3.313,0
6.365,6.426,0
6.366,2.58,0
6.367,9.172,0
6.368,11.919,0
6.369,12.651,0
6.37,16.496,0
6.371,19.792,0
6.372,19.243,0
6.373,14.116,0
6.374,13.567,0
6.375,7.89,0
6.376,8.44,0
6.377,16.863,0
6.378,3.313,0
6.379,1.482,0
6.38,-10.054,0
6.381,-23.604,0
6.382,-25.435,0
6.383,-27.083,0
6.384,-22.688,0
6.385,-13.167,0
6.386,-1.997,0
6.387,-0.532,0
6.388,-10.054,0
6.389,-18.477,0
6.39,-33.308,0
6.391,-55.464,0
6.392,-88.057,0
6.393,-100.87,0
6.394,-120.47,0
6.395,-131.09,0
6.396,-140.61,0
6.397,-137.68,0
6.398,-119,0
6.399,-97.029,0
6.4,-88.24,0
6.401,-58.76,0
6.402,0.383,0
6.403,76.738,0
6.404,107.5,0
6.405,135.51,0
6.406,143.94,0
6.407,136.25,0
6.408,101.27,0
6.409,95.049,0
6.41,100.72,0
6.411,95.598,0
6.412,90.837,0
6.413,95.049,0
6.414,106.77,0
6.415,117.39,0
6.416,101.27,0
6.417,80.583,0
6.418,61.906,0
6.419,49.822,0
6.42,60.808,0
6.421,70.879,0
6.422,61.723,0
6.423,50.188,0
6.424,30.595,0
6.425,17.229,0
6.426,10.088,0
6.427,7.707,0
6.428,1.115,0
6.429,3.13,0
6.43,-6.026,0
6.431,-17.561,0
6.432,-16.096,0
6.433,-33.858,0
6.434,-40.999,0
6.435,-47.591,0
6.436,-53.633,0
6.437,-55.464,0
6.438,-50.52,0
6.439,-49.055,0
6.44,-45.027,0
6.441,-48.506,0
6.442,-49.605,0
6.443,-54.549,0
6.444,-51.802,0
6.445,-51.07,0
6.446,-48.872,0
6.447,-49.422,0
6.448,-47.591,0
6.449,-40.266,0
6.45,-37.337,0
6.451,-32.759,0
6.452,-32.027,0
6.453,-26.717,0
6.454,-23.421,0
6.455,-19.026,0
6.456,-17.378,0
6.457,-14.998,0
6.458,-14.632,0
6.459,-10.054,0
6.46,-11.885,0
6.461,-8.04,0
6.462,-9.322,0
6.463,-4.195,0
6.464,-2.364,0
6.465,3.313,0
6.466,2.58,0
6.467,4.411,0
6.468,4.961,0
6.469,3.313,0
6.47,4.594,0
6.471,7.707,0
6.472,8.806,0
6.473,9.905,0
6.474,8.073,0
6.475,6.609,0
6.476,4.045,0
6.477,2.763,0
6.478,4.594,0
6.479,6.609,0
6.48,10.82,0
6.481,8.989,0
6.482,17.412,0
6.483,18.51,0
6.484,6.059,0
6.485,7.707,0
6.486,6.242,0
6.487,4.961,0
6.488,6.059,0
6.489,7.158,0
6.49,8.073,0
6.491,5.327,0
6.492,4.594,0
6.493,-0.716,0
6.494,-0.166,0
6.495,0.383,0
6.496,-1.265,0
6.497,-0.899,0
6.498,-0.532,0
6.499,1.482,0
6.5,3.313,0
6.501,1.482,0
6.502,2.947,0
6.503,5.51,0
6.504,4.411,0
6.505,5.144,0
6.506,4.411,0
6.507,5.693,0
6.508,2.214,0
6.509,2.58,0
6.51,2.947,0
6.511,-0.899,0
6.512,-4.195,0
6.513,-1.997,0
6.514,0.749,0
6.515,0.383,0
6.516,1.482,0
6.517,2.214,0
6.518,4.778,0
6.519,1.482,0
6.52,5.327,0
6.521,4.045,0
6.522,5.327,0
6.523,5.693,0
6.524,0.017,0
6.525,-0.716,0
6.526,-1.448,0
6.527,-1.997,0
6.528,-2.364,0
6.529,-1.814,0
6.53,6.609,0
6.531,5.51,0
6.532,-4.744,0
6.533,15.764,0
6.534,6.975,0
6.535,-0.899,0
6.536,1.482,0
6.537,-0.716,0
6.538,1.299,0
6.539,-0.532,0
6.54,1.115,0
6.541,-3.279,0
6.542,-4.561,0
6.543,-5.659,0
6.544,-4.561,0
6.545,-7.49,0
6.546,-4.744,0
6.547,-4.011,0
6.548,6.059,0
6.549,2.031,0
6.55,-1.448,0
6.551,-0.349,0
6.552,-1.265,0
6.553,1.482,0
6.554,0.749,0
6.555,2.947,0
6.556,2.397,0
6.557,1.848,0
6.558,0.2,0
6.559,-0.166,0
6.56,-2.364,0
6.561,-3.462,0
6.562,-5.293,0
6.563,-2.73,0
6.564,-3.462,0
6.565,0.749,0
6.566,-1.082,0
6.567,-0.532,0
6.568,0.749,0
6.569,-0.532,0
6.57,-0.166,0
6.571,3.313,0
6.572,2.031,0
6.573,2.397,0
6.574,-0.166,0
6.575,-4.927,0
6.576,-1.814,0
6.577,-5.659,0
6.578,-5.293,0
6.579,-7.49,0
6.58,-1.448,0
6.581,11.003,0
6.582,5.51,0
6.583,0.566,0
6.584,20.158,0
6.585,6.792,0
6.586,-0.349,0
6.587,1.848,0
6.588,3.862,0
6.589,2.031,0
6.59,0.383,0
6.591,-1.082,0
6.592,-2.364,0
6.593,-5.843,0
6.594,-9.138,0
6.595,-6.209,0
6.596,-5.293,0
6.597,-4.561,0
6.598,-3.828,0
6.599,-4.378,0
6.6,-2.547,0
6.601,-4.195,0
6.602,-2.913,0
6.603,-0.716,0
6.604,1.299,0
6.605,3.13,0
6.606,0.566,0
6.607,0.749,0
6.608,0.017,0
6.609,-2.913,0
6.61,-3.279,0
6.611,-2.18,0
6.612,-6.758,0
6.613,-0.532,0
6.614,-4.561,0
6.615,0.749,0
6.616,-2.547,0
6.617,-1.997,0
6.618,-1.448,0
6.619,-2.73,0
6.62,1.482,0
6.621,3.13,0
6.622,1.848,0
6.623,2.214,0
6.624,1.848,0
6.625,0.749,0
6.626,-2.547,0
6.627,-4.561,0
6.628,-6.392,0
6.629,-6.026,0
6.63,-2.364,0
6.631,-2.18,0
6.632,2.031,0
6.633,11.552,0
6.634,15.581,0
6.635,7.158,0
6.636,1.482,0
6.637,4.411,0
6.638,3.496,0
6.639,4.228,0
6.64,2.031,0
6.641,-1.265,0
6.642,-0.716,0
6.643,-5.843,0
6.644,-5.293,0
6.645,-8.406,0
6.646,-3.279,0
6.647,-2.73,0
6.648,-2.18,0
6.649,-0.532,0
6.65,1.848,0
6.651,1.482,0
6.652,-0.532,0
6.653,-0.166,0
6.654,5.327,0
6.655,3.13,0
6.656,1.299,0
6.657,0.749,0
6.658,-1.997,0
6.659,-4.378,0
6.66,-2.18,0
6.661,-4.927,0
6.662,-6.026,0
6.663,-4.195,0
6.664,-4.927,0
6.665,-4.744,0
6.666,-0.716,0
6.667,0.932,0
6.668,-2.364,0
6.669,2.763,0
6.67,0.932,0
6.671,6.609,0
6.672,5.876,0
6.673,5.327,0
6.674,2.214,0
6.675,0.566,0
6.676,0.932,0
6.677,-2.18,0
6.678,-3.279,0
6.679,-5.11,0
6.68,-1.814,0
6.681,-2.364,0
6.682,-1.265,0
6.683,4.411,0
6.684,8.44,0
6.685,9.172,0
6.686,18.144,0
6.687,12.102,0
6.688,-4.927,0
6.689,2.214,0
6.69,0.017,0
6.691,-1.997,0
6.692,-0.166,0
6.693,-1.814,0
6.694,-6.209,0
6.695,-7.49,0
6.696,-6.392,0
6.697,-3.096,0
6.698,-2.18,0
6.699,0.566,0
6.7,2.947,0
6.701,3.679,0
6.702,0.383,0
6.703,0.932,0
6.704,4.778,0
6.705,6.059,0
6.706,8.257,0
6.707,2.031,0
6.708,1.115,0
6.709,-1.265,0
6.71,2.58,0
6.711,-4.927,0
6.712,-5.843,0
6.713,-3.096,0
6.714,-0.716,0
6.715,1.482,0
6.716,-1.814,0
6.717,2.58,0
6.718,0.932,0
6.719,4.228,0
6.72,2.031,0
6.721,7.524,0
6.722,3.679,0
6.723,8.257,0
6.724,2.58,0
6.725,-1.265,0
6.726,-3.096,0
6.727,-1.265,0
6.728,-6.392,0
6.729,-5.843,0
6.73,-1.448,0
6.731,0.2,0
6.732,-2.364,0
6.733,-5.659,0
6.734,1.299,0
6.735,8.257,0
6.736,-0.166,0
6.737,16.863,0
6.738,14.482,0
6.739,3.496,0
6.74,1.482,0
6.741,-0.349,0
6.742,-5.293,0
6.743,-9.688,0
6.744,-8.406,0
6.745,-11.885,0
6.746,-8.589,0
6.747,-7.674,0
6.748,-3.096,0
6.749,-2.364,0
6.75,-1.631,0
6.751,-3.462,0
6.752,-1.631,0
6.753,-2.18,0
6.754,1.115,0
6.755,2.397,0
6.756,2.763,0
6.757,0.2,0
6.758,-0.899,0
6.759,-0.716,0
6.76,-1.448,0
6.761,-4.378,0
6.762,-4.744,0
6.763,-3.645,0
6.764,-2.18,0
6.765,-2.364,0
6.766,-2.18,0
6.767,1.299,0
6.768,0.932,0
6.769,2.214,0
6.77,0.2,0
6.771,3.679,0
6.772,4.045,0
6.773,6.059,0
6.774,0.383,0
6.775,2.763,0
6.776,-2.547,0
6.777,-3.096,0
6.778,-2.547,0
6.779,-5.293,0
6.78,-4.927,0
6.781,-2.73,0
6.782,-0.716,0
6.783,-3.096,0
6.784,0.383,0
6.785,7.341,0
6.786,22.539,0
6.787,15.947,0
6.788,9.905,0
6.789,0.749,0
6.79,-0.899,0
6.791,-2.364,0
6.792,-3.645,0
6.793,-2.547,0
6.794,0.749,0
6.795,-2.18,0
6.796,-8.589,0
6.797,-6.209,0
6.798,-4.011,0
6.799,-2.18,0
6.8,0.932,0
6.801,-2.913,0
6.802,-2.547,0
6.803,-0.349,0
6.804,2.397,0
6.805,-1.082,0
6.806,4.045,0
6.807,2.214,0
6.808,1.665,0
6.809,0.017,0
6.81,1.299,0
6.811,-0.899,0
6.812,-1.997,0
6.813,-1.631,0
6.814,-3.462,0
6.815,-0.716,0
6.816,-1.082,0
6.817,0.017,0
6.818,2.031,0
6.819,1.299,0
6.82,3.679,0
6.821,2.214,0
6.822,-0.349,0
6.823,0.017,0
6.824,-0.166,0
6.825,-4.378,0
6.826,-4.927,0
6.827,0.2,0
6.828,-4.378,0
6.829,-3.828,0
6.83,-3.279,0
6.831,0.017,0
6.832,-2.18,0
6.833,-1.082,0
6.834,2.763,0
6.835,0.932,0
6.836,6.426,0
6.837,8.623,0
6.838,18.877,0
6.839,20.342,0
6.84,10.82,0
6.841,2.397,0
6.842,-3.279,0
6.843,-6.209,0
6.844,-7.124,0
6.845,-9.505,0
6.846,-7.307,0
6.847,-6.758,0
6.848,-3.645,0
6.849,-3.096,0
6.85,-1.814,0
6.851,-4.011,0
6.852,-2.913,0
6.853,-1.082,0
6.854,-0.716,0
6.855,0.749,0
6.856,0.566,0
6.857,-0.716,0
6.858,0.749,0
6.859,-2.547,0
6.86,-1.265,0
6.861,-1.631,0
6.862,-1.265,0
6.863,-1.631,0
6.864,1.665,0
6.865,-0.532,0
6.866,1.482,0
6.867,-1.997,0
6.868,3.13,0
6.869,3.679,0
6.87,5.51,0
6.871,4.961,0
6.872,4.594,0
6.873,4.961,0
6.874,3.862,0
6.875,2.763,0
6.876,-2.73,0
6.877,-4.927,0
6.878,-6.758,0
6.879,-4.927,0
6.88,-3.279,0
6.881,-3.645,0
6.882,-3.279,0
6.883,-2.18,0
6.884,-4.744,0
6.885,-1.631,0
6.886,0.932,0
6.887,5.51,0
6.888,13.017,0
6.889,13.933,0
6.89,20.342,0
6.891,7.89,0
6.892,-4.927,0
6.893,-6.575,0
6.894,-8.04,0
6.895,-9.322,0
6.896,-8.223,0
6.897,-7.124,0
6.898,-2.18,0
6.899,-6.758,0
6.9,-1.082,0
6.901,-0.349,0
6.902,-0.899,0
6.903,-1.448,0
6.904,0.2,0
6.905,3.496,0
6.906,4.778,0
6.907,-1.448,0
6.908,-2.364,0
6.909,-4.744,0
6.91,-6.941,0
6.911,-6.392,0
6.912,-4.561,0
6.913,-4.011,0
6.914,-0.716,0
6.915,0.566,0
6.916,0.932,0
6.917,2.031,0
6.918,2.397,0
6.919,0.383,0
6.92,2.947,0
6.921,5.51,0
6.922,5.693,0
6.923,4.961,0
6.924,2.58,0
6.925,3.313,0
6.926,-0.349,0
6.927,-0.716,0
6.928,-7.674,0
6.929,-4.744,0
6.93,-3.828,0
6.931,-1.448,0
6.932,-2.18,0
6.933,-2.73,0
6.934,0.383,0
6.935,3.13,0
6.936,2.031,0
6.937,5.327,0
6.938,12.285,0
6.939,17.229,0
6.94,16.313,0
6.941,8.806,0
6.942,-2.364,0
6.943,-6.758,0
6.944,-2.73,0
6.945,-3.828,0
6.946,-7.124,0
6.947,-6.209,0
6.948,-5.293,0
6.949,-2.913,0
6.95,-0.716,0
6.951,-2.547,0
6.952,0.566,0
6.953,-3.279,0
6.954,0.017,0
6.955,-1.265,0
6.956,-0.899,0
6.957,1.665,0
6.958,0.566,0
6.959,-2.18,0
6.96,-0.349,0
6.961,-1.448,0
6.962,-1.631,0
6.963,-1.448,0
6.964,-0.166,0
6.965,2.031,0
6.966,2.214,0
6.967,1.482,0
6.968,2.031,0
6.969,1.482,0
6.97,1.299,0
6.971,2.947,0
6.972,2.763,0
6.973,1.482,0
6.974,-1.265,0
6.975,-3.096,0
6.976,-1.265,0
6.977,-4.561,0
6.978,-4.195,0
6.979,-3.096,0
6.98,-4.195,0
6.981,-3.096,0
6.982,-1.082,0
6.983,2.58,0
6.984,0.2,0
6.985,1.482,0
6.986,1.115,0
6.987,2.031,0
6.988,2.397,0
6.989,7.89,0
6.99,16.313,0
6.991,13.017,0
6.992,6.059,0
6.993,-2.364,0
6.994,0.932,0
6.995,-6.026,0
6.996,-5.11,0
6.997,-1.082,0
6.998,-4.927,0
6.999,2.58,0
7,-4.378,0
7.001,-1.631,0
7.002,-0.899,0
7.003,-4.744,0
7.004,-4.195,0
7.005,0.2,0
7.006,-0.349,0
7.007,-1.631,0
7.008,-1.997,0
7.009,-4.744,0
7.01,-3.645,0
7.011,-4.744,0
7.012,-2.73,0
7.013,-4.011,0
7.014,0.017,0
7.015,-1.631,0
7.016,1.665,0
7.017,5.876,0
7.018,6.426,0
7.019,4.045,0
7.02,6.242,0
7.021,5.144,0
7.022,2.58,0
7.023,1.482,0
7.024,3.496,0
7.025,-0.716,0
7.026,-3.828,0
7.027,-6.575,0
7.028,-4.195,0
7.029,-4.561,0
7.03,-5.659,0
7.031,-2.18,0
7.032,-2.547,0
7.033,-1.448,0
7.034,-1.082,0
7.035,1.482,0
7.036,0.749,0
7.037,2.58,0
7.038,5.693,0
7.039,1.665,0
7.04,8.989,0
7.041,-2.18,0
7.042,2.214,0
7.043,-1.814,0
7.044,1.665,0
7.045,2.763,0
7.046,5.693,0
7.047,14.116,0
7.048,15.215,0
7.049,2.031,0
7.05,-3.462,0
7.051,-1.814,0
7.052,-0.349,0
7.053,-4.378,0
7.054,-5.476,0
7.055,-2.18,0
7.056,-1.265,0
7.057,-7.674,0
7.058,-3.645,0
7.059,-2.913,0
7.06,-6.209,0
7.061,-9.322,0
7.062,-4.195,0
7.063,-4.744,0
7.064,-4.195,0
7.065,-2.547,0
7.066,-4.927,0
7.067,-1.814,0
7.068,0.932,0
7.069,0.566,0
7.07,3.862,0
7.071,4.228,0
7.072,1.665,0
7.073,2.763,0
7.074,2.031,0
7.075,-2.18,0
7.076,-0.349,0
7.077,-5.476,0
7.078,-6.026,0
7.079,-4.195,0
7.08,-2.547,0
7.081,0.749,0
7.082,-2.364,0
7.083,-1.265,0
7.084,-0.166,0
7.085,0.932,0
7.086,0.2,0
7.087,1.482,0
7.088,3.313,0
7.089,3.496,0
7.09,5.693,0
7.091,9.905,0
7.092,6.792,0
7.093,6.242,0
7.094,13.75,0
7.095,8.073,0
7.096,-3.096,0
7.097,-1.631,0
7.098,-2.913,0
7.099,-4.011,0
7.1,-2.913,0
7.101,-5.843,0
7.102,-1.265,0
7.103,-3.645,0
7.104,0.2,0
7.105,0.749,0
7.106,0.2,0
7.107,-4.927,0
7.108,-3.096,0
7.109,-1.265,0
7.11,-0.716,0
7.111,-3.096,0
7.112,-3.462,0
7.113,-6.209,0
7.114,-5.843,0
7.115,-4.011,0
7.116,0.017,0
7.117,1.665,0
7.118,0.383,0
7.119,0.749,0
7.12,1.115,0
7.121,2.947,0
7.122,-0.349,0
7.123,1.665,0
7.124,0.566,0
7.125,-0.532,0
7.126,-1.265,0
7.127,-3.096,0
7.128,-4.378,0
7.129,-5.476,0
7.13,-6.941,0
7.131,-4.011,0
7.132,2.214,0
7.133,4.961,0
7.134,5.693,0
7.135,7.89,0
7.136,6.059,0
7.137,2.947,0
7.138,4.594,0
7.139,1.299,0
7.14,-0.166,0
7.141,2.031,0
7.142,4.778,0
7.143,10.454,0
7.144,11.186,0
7.145,1.115,0
7.146,-5.659,0
7.147,-4.561,0
7.148,-3.462,0
7.149,-2.547,0
7.15,-1.631,0
7.151,2.397,0
7.152,4.594,0
7.153,2.763,0
7.154,4.594,0
7.155,7.341,0
7.156,4.045,0
7.157,-1.997,0
7.158,-2.73,0
7.159,-0.532,0
7.16,-5.11,0
7.161,-4.561,0
7.162,-7.307,0
7.163,-4.011,0
7.164,-7.124,0
7.165,-2.547,0
7.166,-0.716,0
7.167,-2.364,0
7.168,-1.082,0
7.169,-4.195,0
7.17,2.031,0
7.171,2.947,0
7.172,0.566,0
7.173,1.299,0
7.174,-0.532,0
7.175,2.58,0
7.176,-5.843,0
7.177,-6.941,0
7.178,-8.04,0
7.179,-5.11,0
7.18,1.299,0
7.181,2.031,0
7.182,2.763,0
7.183,-1.814,0
7.184,1.299,0
7.185,-1.448,0
7.186,1.848,0
7.187,3.13,0
7.188,1.115,0
7.189,4.594,0
7.19,1.482,0
7.191,3.496,0
7.192,-1.997,0
7.193,4.961,0
7.194,2.214,0
7.195,2.947,0
7.196,13.017,0
7.197,0.749,0
7.198,-4.195,0
7.199,0.2,0
7.2,-3.828,0
7.201,-0.349,0
7.202,-1.448,0
7.203,-2.364,0
7.204,-1.448,0
7.205,0.932,0
7.206,-1.265,0
7.207,-1.814,0
7.208,-3.645,0
7.209,-1.997,0
7.21,-5.293,0
7.211,-4.927,0
7.212,-7.674,0
7.213,-5.843,0
7.214,-5.476,0
7.215,-0.899,0
7.216,-0.349,0
7.217,0.2,0
7.218,-0.349,0
7.219,-1.631,0
7.22,1.482,0
7.221,1.115,0
7.222,6.059,0
7.223,1.482,0
7.224,4.594,0
7.225,-0.532,0
7.226,-2.364,0
7.227,-5.476,0
7.228,1.848,0
7.229,-1.082,0
7.23,-1.997,0
7.231,-2.73,0
7.232,1.115,0
7.233,2.947,0
7.234,3.496,0
7.235,1.848,0
7.236,2.214,0
7.237,0.932,0
7.238,4.778,0
7.239,2.397,0
7.24,4.594,0
7.241,1.848,0
7.242,-2.364,0
7.243,-1.265,0
7.244,4.228,0
7.245,4.961,0
7.246,13.933,0
7.247,17.412,0
7.248,16.313,0
7.249,11.369,0
7.25,12.285,0
7.251,13.017,0
7.252,15.215,0
7.253,18.51,0
7.254,17.961,0
7.255,14.116,0
7.256,13.75,0
7.257,8.623,0
7.258,2.397,0
7.259,3.13,0
7.26,-2.18,0
7.261,-8.406,0
7.262,-20.857,0
7.263,-19.026,0
7.264,-23.97,0
7.265,-28.365,0
7.266,-32.393,0
7.267,-26.35,0
7.268,-13.899,0
7.269,-5.659,0
7.27,-1.265,0
7.271,8.257,0
7.272,-5.293,0
7.273,-25.435,0
7.274,-44.112,0
7.275,-70.845,0
7.276,-95.747,0
7.277,-125.04,0
7.278,-136.76,0
7.279,-140.24,0
7.28,-137.13,0
7.281,-116.44,0
7.282,-113.88,0
7.283,-87.141,0
7.284,-47.774,0
7.285,20.525,0
7.286,104.57,0
7.287,138.26,0
7.288,148.51,0
7.289,139.18,0
7.29,130.75,0
7.291,107.68,0
7.292,86.809,0
7.293,78.203,0
7.294,71.977,0
7.295,77.654,0
7.296,62.09,0
7.297,85.893,0
7.298,90.105,0
7.299,78.386,0
7.3,74.907,0
7.301,71.794,0
7.302,74.724,0
7.303,72.16,0
7.304,74.541,0
7.305,76.738,0
7.306,66.667,0
7.307,50.188,0
7.308,34.807,0
7.309,16.679,0
7.31,4.594,0
7.311,2.397,0
7.312,0.383,0
7.313,-8.772,0
7.314,-17.012,0
7.315,-30.562,0
7.316,-39.717,0
7.317,-47.957,0
7.318,-49.422,0
7.319,-50.703,0
7.32,-56.746,0
7.321,-57.844,0
7.322,-52.901,0
7.323,-50.154,0
7.324,-50.886,0
7.325,-48.689,0
7.326,-49.239,0
7.327,-47.407,0
7.328,-49.055,0
7.329,-46.675,0
7.33,-39.717,0
7.331,-42.647,0
7.332,-36.238,0
7.333,-35.506,0
7.334,-30.196,0
7.335,-28.365,0
7.336,-26.533,0
7.337,-21.406,0
7.338,-16.829,0
7.339,-14.998,0
7.34,-12.251,0
7.341,-12.617,0
7.342,-9.505,0
7.343,-9.871,0
7.344,-11.885,0
7.345,-10.054,0
7.346,-12.617,0
7.347,-8.04,0
7.348,2.214,0
7.349,15.764,0
7.35,17.595,0
7.351,9.355,0
7.352,1.848,0
7.353,0.566,0
7.354,4.045,0
7.355,5.144,0
7.356,4.228,0
7.357,6.975,0
7.358,6.242,0
7.359,2.397,0
7.36,0.566,0
7.361,-1.265,0
7.362,-2.913,0
7.363,-1.631,0
7.364,2.58,0
7.365,3.13,0
7.366,7.707,0
7.367,4.594,0
7.368,8.44,0
7.369,6.059,0
7.37,6.426,0
7.371,7.524,0
7.372,4.961,0
7.373,8.989,0
7.374,10.271,0
7.375,5.144,0
7.376,3.313,0
7.377,1.482,0
7.378,0.932,0
7.379,-3.645,0
7.38,3.313,0
7.381,2.397,0
7.382,4.778,0
7.383,4.045,0
7.384,8.623,0
7.385,0.383,0
7.386,6.059,0
7.387,5.144,0
7.388,9.721,0
7.389,5.693,0
7.39,6.426,0
7.391,4.594,0
7.392,4.045,0
7.393,2.397,0
7.394,-0.899,0
7.395,-2.364,0
7.396,-1.997,0
7.397,4.228,0
7.398,6.975,0
7.399,7.707,0
7.4,14.665,0
7.401,10.088,0
7.402,-2.364,0
7.403,-0.532,0
7.404,-2.18,0
7.405,-3.645,0
7.406,-4.927,0
7.407,-3.828,0
7.408,-4.927,0
7.409,-5.843,0
7.41,-4.927,0
7.411,-2.547,0
7.412,-3.279,0
7.413,-2.73,0
7.414,-0.899,0
7.415,-4.744,0
7.416,0.749,0
7.417,-3.096,0
7.418,0.2,0
7.419,-1.631,0
7.42,2.214,0
7.421,1.848,0
7.422,4.045,0
7.423,2.031,0
7.424,4.594,0
7.425,-0.166,0
7.426,1.665,0
7.427,-5.659,0
7.428,-4.744,0
7.429,-5.659,0
7.43,-1.631,0
7.431,0.566,0
7.432,0.017,0
7.433,-0.532,0
7.434,5.693,0
7.435,0.017,0
7.436,0.749,0
7.437,0.2,0
7.438,-0.349,0
7.439,1.299,0
7.44,0.932,0
7.441,0.566,0
7.442,-2.18,0
7.443,-6.392,0
7.444,-1.265,0
7.445,-0.716,0
7.446,-0.899,0
7.447,-2.73,0
7.448,5.693,0
7.449,9.172,0
7.45,5.876,0
7.451,6.792,0
7.452,2.214,0
7.453,13.017,0
7.454,17.412,0
7.455,5.144,0
7.456,0.2,0
7.457,-1.265,0
7.458,-2.547,0
7.459,-3.645,0
7.46,-6.941,0
7.461,-7.857,0
7.462,-5.11,0
7.463,-1.082,0
7.464,-3.279,0
7.465,0.017,0
7.466,-0.532,0
7.467,-2.18,0
7.468,-0.899,0
7.469,-1.265,0
7.47,0.749,0
7.471,-1.082,0
7.472,0.749,0
7.473,-3.279,0
7.474,-2.73,0
7.475,-4.011,0
7.476,-5.293,0
7.477,-4.195,0
7.478,-6.026,0
7.479,-7.857,0
7.48,-3.279,0
7.481,-5.11,0
7.482,-1.997,0
7.483,-3.645,0
7.484,-1.265,0
7.485,0.932,0
7.486,3.679,0
7.487,4.045,0
7.488,5.144,0
7.489,3.13,0
7.49,0.017,0
7.491,1.115,0
7.492,0.017,0
7.493,-4.744,0
7.494,0.932,0
7.495,-4.378,0
7.496,-4.927,0
7.497,-1.631,0
7.498,-4.744,0
7.499,3.679,0
7.5,14.848,0
7.501,16.313,0
7.502,6.792,0
7.503,0.749,0
7.504,-0.349,0
7.505,0.566,0
7.506,-0.349,0
7.507,0.383,0
7.508,-3.462,0
7.509,-6.758,0
7.51,-3.645,0
7.511,-8.772,0
7.512,-8.223,0
7.513,-5.11,0
7.514,-3.462,0
7.515,-2.18,0
7.516,-2.547,0
7.517,0.2,0
7.518,2.763,0
7.519,-1.265,0
7.52,0.017,0
7.521,1.299,0
7.522,3.313,0
7.523,1.482,0
7.524,0.383,0
7.525,0.566,0
7.526,0.749,0
7.527,-1.082,0
7.528,-3.279,0
7.529,-5.11,0
7.53,-3.828,0
7.531,-0.349,0
7.532,2.947,0
7.533,-1.265,0
7.534,-2.913,0
7.535,-0.532,0
7.536,-2.73,0
7.537,-2.364,0
7.538,1.848,0
7.539,2.397,0
7.54,1.115,0
7.541,-0.166,0
7.542,0.932,0
7.543,-0.899,0
7.544,-4.927,0
7.545,-3.645,0
7.546,-5.843,0
7.547,-3.096,0
7.548,-0.899,0
7.549,-1.997,0
7.55,3.496,0
7.551,15.031,0
7.552,16.679,0
7.553,9.172,0
7.554,5.144,0
7.555,4.045,0
7.556,0.749,0
7.557,-0.166,0
7.558,-2.913,0
7.559,-2.18,0
7.56,-2.913,0
7.561,-3.462,0
7.562,-6.575,0
7.563,-0.349,0
7.564,-4.378,0
7.565,-2.18,0
7.566,-1.631,0
7.567,-1.082,0
7.568,-1.631,0
7.569,3.862,0
7.57,3.13,0
7.571,4.961,0
7.572,8.073,0
7.573,6.426,0
7.574,3.13,0
7.575,1.848,0
7.576,0.749,0
7.577,-2.73,0
7.578,-4.011,0
7.579,-4.378,0
7.58,-0.899,0
7.581,1.299,0
7.582,-0.716,0
7.583,2.763,0
7.584,4.961,0
7.585,3.862,0
7.586,0.383,0
7.587,3.496,0
7.588,3.862,0
7.589,2.763,0
7.59,3.862,0
7.591,3.13,0
7.592,4.411,0
7.593,0.383,0
7.594,-4.744,0
7.595,-4.195,0
7.596,-3.645,0
7.597,-4.195,0
7.598,0.383,0
7.599,-0.899,0
7.6,0.932,0
7.601,9.355,0
7.602,8.257,0
7.603,9.355,0
7.604,20.525,0
7.605,6.975,0
7.606,-9.505,0
7.607,-2.913,0
7.608,-4.927,0
7.609,-6.758,0
7.61,-8.406,0
7.611,-6.941,0
7.612,-10.969,0
7.613,-4.927,0
7.614,-8.223,0
7.615,-3.279,0
7.616,-6.026,0
7.617,-0.349,0
7.618,-1.082,0
7.619,2.214,0
7.62,0.383,0
7.621,3.13,0
7.622,1.848,0
7.623,-1.265,0
7.624,-3.279,0
7.625,-4.378,0
7.626,-4.011,0
7.627,-3.828,0
7.628,-6.941,0
7.629,-5.843,0
7.63,-3.279,0
7.631,-2.18,0
7.632,-3.645,0
7.633,-2.913,0
7.634,-3.645,0
7.635,-0.166,0
7.636,0.2,0
7.637,5.327,0
7.638,4.778,0
7.639,5.327,0
7.64,6.975,0
7.641,1.482,0
7.642,-2.364,0
7.643,-2.913,0
7.644,-4.744,0
7.645,-10.969,0
7.646,-8.589,0
7.647,-1.631,0
7.648,-0.716,0
7.649,-1.448,0
7.65,-2.364,0
7.651,-0.166,0
7.652,8.806,0
7.653,7.707,0
7.654,8.806,0
7.655,15.764,0
7.656,14.848,0
7.657,7.341,0
7.658,0.383,0
7.659,-4.195,0
7.66,-4.927,0
7.661,-7.124,0
7.662,-7.674,0
7.663,-8.223,0
7.664,-4.378,0
7.665,-5.659,0
7.666,1.299,0
7.667,-1.631,0
7.668,-2.547,0
7.669,-0.166,0
7.67,2.031,0
7.671,2.58,0
7.672,0.749,0
7.673,-1.997,0
7.674,-0.716,0
7.675,0.566,0
7.676,-5.659,0
7.677,-4.744,0
7.678,-8.772,0
7.679,-1.814,0
7.68,-0.899,0
7.681,-0.166,0
7.682,0.566,0
7.683,-1.265,0
7.684,1.848,0
7.685,0.2,0
7.686,1.482,0
7.687,5.693,0
7.688,4.045,0
7.689,-1.448,0
7.69,-3.645,0
7.691,-0.349,0
7.692,-0.899,0
7.693,-0.349,0
7.694,-1.631,0
7.695,-1.265,0
7.696,-4.011,0
7.697,-2.913,0
7.698,-1.814,0
7.699,2.763,0
7.7,3.313,0
7.701,2.763,0
7.702,3.313,0
7.703,8.44,0
7.704,10.271,0
7.705,10.82,0
7.706,17.046,0
7.707,9.538,0
7.708,-3.645,0
7.709,-5.476,0
7.71,-7.124,0
7.711,-8.589,0
7.712,-4.561,0
7.713,-5.659,0
7.714,-2.364,0
7.715,-5.293,0
7.716,-2.547,0
7.717,-4.927,0
7.718,-2.73,0
7.719,1.848,0
7.72,2.397,0
7.721,1.848,0
7.722,1.482,0
7.723,0.2,0
7.724,-1.814,0
7.725,0.749,0
7.726,-4.011,0
7.727,-0.899,0
7.728,-6.026,0
7.729,-4.195,0
7.73,-4.744,0
7.731,3.679,0
7.732,2.58,0
7.733,1.482,0
7.734,2.397,0
7.735,5.144,0
7.736,1.115,0
7.737,3.313,0
7.738,1.482,0
7.739,3.313,0
7.74,1.665,0
7.741,-1.631,0
7.742,-3.828,0
7.743,-3.462,0
7.744,-3.828,0
7.745,-7.124,0
7.746,-3.279,0
7.747,-3.645,0
7.748,2.397,0
7.749,1.665,0
7.75,-0.532,0
7.751,2.763,0
7.752,4.961,0
7.753,5.51,0
7.754,13.933,0
7.755,10.454,0
7.756,0.2,0
7.757,20.708,0
7.758,5.876,0
7.759,-1.997,0
7.76,0.383,0
7.761,-6.209,0
7.762,-4.195,0
7.763,-6.026,0
7.764,-7.674,0
7.765,-3.279,0
7.766,-1.997,0
7.767,-0.899,0
7.768,-1.997,0
7.769,0.932,0
7.77,0.017,0
7.771,2.397,0
7.772,0.2,0
7.773,-1.631,0
7.774,-1.082,0
7.775,-2.73,0
7.776,-4.011,0
7.777,0.2,0
7.778,-2.547,0
7.779,-4.927,0
7.78,-3.645,0
7.781,-1.631,0
7.782,0.932,0
7.783,0.566,0
7.784,2.58,0
7.785,1.299,0
7.786,0.566,0
7.787,4.045,0
7.788,4.411,0
7.789,4.778,0
7.79,3.679,0
7.791,1.848,0
7.792,-2.18,0
7.793,-5.476,0
7.794,-8.589,0
7.795,-8.223,0
7.796,-2.547,0
7.797,-1.814,0
7.798,0.383,0
7.799,-2.913,0
7.8,0.2,0
7.801,-1.448,0
7.802,-1.082,0
7.803,-3.096,0
7.804,3.862,0
7.805,2.947,0
7.806,9.355,0
7.807,16.863,0
7.808,15.947,0
7.809,7.524,0
7.81,-2.73,0
7.811,-1.448,0
7.812,-4.927,0
7.813,-6.026,0
7.814,-5.11,0
7.815,-2.364,0
7.816,3.313,0
7.817,2.58,0
7.818,-3.645,0
7.819,-1.265,0
7.82,0.932,0
7.821,0.383,0
7.822,2.214,0
7.823,1.665,0
7.824,1.299,0
7.825,-0.899,0
7.826,-5.476,0
7.827,-4.927,0
7.828,-5.476,0
7.829,-3.096,0
7.83,-4.378,0
7.831,-4.011,0
7.832,0.932,0
7.833,-2.364,0
7.834,0.749,0
7.835,0.2,0
7.836,-0.166,0
7.837,4.961,0
7.838,3.13,0
7.839,1.299,0
7.84,1.848,0
7.841,3.13,0
7.842,-1.082,0
7.843,-2.73,0
7.844,-4.011,0
7.845,-7.124,0
7.846,-3.279,0
7.847,0.017,0
7.848,2.214,0
7.849,1.848,0
7.85,2.214,0
7.851,4.778,0
7.852,2.763,0
7.853,2.031,0
7.854,4.228,0
7.855,2.947,0
7.856,6.426,0
7.857,8.806,0
7.858,7.524,0
7.859,13.017,0
7.86,15.215,0
7.861,4.961,0
7.862,-8.589,0
7.863,-6.758,0
7.864,-5.11,0
7.865,-0.716,0
7.866,-1.997,0
7.867,-3.096,0
7.868,-1.997,0
7.869,-1.082,0
7.87,1.665,0
7.871,0.932,0
7.872,-2.913,0
7.873,-4.744,0
7.874,-1.631,0
7.875,-1.082,0
7.876,-2.364,0
7.877,-0.166,0
7.878,-6.392,0
7.879,-7.307,0
7.88,-3.279,0
7.881,-2.547,0
7.882,-1.997,0
7.883,2.397,0
7.884,-1.448,0
7.885,4.045,0
7.886,0.2,0
7.887,3.496,0
7.888,6.609,0
7.889,3.862,0
7.89,1.482,0
7.891,3.679,0
7.892,-2.547,0
7.893,-1.631,0
7.894,-2.364,0
7.895,-0.166,0
7.896,-0.716,0
7.897,1.115,0
7.898,-0.532,0
7.899,-0.899,0
7.9,-0.532,0
7.901,2.214,0
7.902,1.115,0
7.903,0.749,0
7.904,3.496,0
7.905,2.763,0
7.906,5.327,0
7.907,10.82,0
7.908,17.778,0
7.909,11.369,0
7.91,2.214,0
7.911,-6.209,0
7.912,-2.913,0
7.913,-3.828,0
7.914,-4.744,0
7.915,-2.364,0
7.916,-4.561,0
7.917,-1.265,0
7.918,-0.716,0
7.919,-1.265,0
7.92,0.017,0
7.921,3.13,0
7.922,0.383,0
7.923,1.482,0
7.924,-0.349,0
7.925,-2.364,0
7.926,-0.532,0
7.927,-0.716,0
7.928,-4.195,0
7.929,-1.814,0
7.93,-0.532,0
7.931,-1.631,0
7.932,-4.195,0
7.933,0.566,0
7.934,3.679,0
7.935,3.13,0
7.936,0.749,0
7.937,4.961,0
7.938,5.51,0
7.939,8.806,0
7.94,1.848,0
7.941,4.778,0
7.942,0.2,0
7.943,-5.476,0
7.944,-4.744,0
7.945,-8.04,0
7.946,-6.209,0
7.947,-1.082,0
7.948,-1.631,0
7.949,1.482,0
7.95,-1.265,0
7.951,3.313,0
7.952,1.482,0
7.953,2.031,0
7.954,2.397,0
7.955,3.679,0
7.956,4.228,0
7.957,3.13,0
7.958,8.806,0
7.959,6.426,0
7.96,7.158,0
7.961,17.412,0
7.962,13.017,0
7.963,6.242,0
7.964,0.2,0
7.965,-0.899,0
7.966,-3.828,0
7.967,-6.575,0
7.968,-4.195,0
7.969,-3.462,0
7.97,-5.293,0
7.971,-3.462,0
7.972,-2.913,0
7.973,-4.195,0
7.974,-5.476,0
7.975,-5.11,0
7.976,-2.547,0
7.977,-8.04,0
7.978,-7.307,0
7.979,-4.011,0
7.98,-0.899,0
7.981,-1.448,0
7.982,-2.73,0
7.983,-4.927,0
7.984,-2.18,0
7.985,-2.547,0
7.986,-0.716,0
7.987,3.862,0
7.988,4.411,0
7.989,2.58,0
7.99,2.031,0
7.991,1.665,0
7.992,0.383,0
7.993,0.749,0
7.994,-3.462,0
7.995,-1.814,0
7.996,-1.448,0
7.997,-0.166,0
7.998,0.2,0
7.999,2.031,0
8,3.862,0
8.001,-0.166,0
8.002,2.58,0
8.003,3.862,0
8.004,6.059,0
8.005,8.073,0
8.006,6.242,0
8.007,1.299,0
8.008,1.665,0
8.009,6.242,0
8.01,4.411,0
8.011,-5.11,0
8.012,12.651,0
8.013,5.51,0
8.014,-1.082,0
8.015,-3.096,0
8.016,-1.265,0
8.017,-2.913,0
8.018,-1.448,0
8.019,-0.166,0
8.02,0.932,0
8.021,-2.364,0
8.022,0.566,0
8.023,5.144,0
8.024,7.524,0
8.025,-4.011,0
8.026,-5.659,0
8.027,-7.124,0
8.028,-8.406,0
8.029,-7.307,0
8.03,-4.011,0
8.031,-4.927,0
8.032,-2.18,0
8.033,-1.448,0
8.034,-0.716,0
8.035,2.58,0
8.036,-0.532,0
8.037,2.214,0
8.038,0.932,0
8.039,5.144,0
8.04,2.397,0
8.041,1.115,0
8.042,-1.997,0
8.043,-1.631,0
8.044,-4.195,0
8.045,-3.828,0
8.046,-5.293,0
8.047,-1.631,0
8.048,1.665,0
8.049,0.383,0
8.05,3.13,0
8.051,3.496,0
8.052,4.594,0
8.053,4.778,0
8.054,8.989,0
8.055,12.102,0
8.056,14.848,0
8.057,17.229,0
8.058,16.679,0
8.059,17.961,0
8.06,24.187,0
8.061,10.271,0
8.062,20.342,0
8.063,14.848,0
8.064,13.2,0
8.065,14.665,0
8.066,18.694,0
8.067,5.144,0
8.068,-11.336,0
8.069,-17.927,0
8.07,-15.913,0
8.071,-25.069,0
8.072,-30.012,0
8.073,-34.407,0
8.074,-33.125,0
8.075,-19.575,0
8.076,-17.744,0
8.077,-12.801,0
8.078,-5.293,0
8.079,-17.561,0
8.08,-35.872,0
8.081,-52.718,0
8.082,-72.676,0
8.083,-102.16,0
8.084,-129.62,0
8.085,-140.24,0
8.086,-137.13,0
8.087,-116.44,0
8.088,-119,0
8.089,-102.16,0
8.09,-73.408,0
8.091,-30.012,0
8.092,45.061,0
8.093,96.33,0
8.094,124.34,0
8.095,132.77,0
8.096,125.08,0
8.097,118.12,0
8.098,99.26,0
8.099,82.048,0
8.1,76.921,0
8.101,72.16,0
8.102,67.949,0
8.103,71.794,0
8.104,75.273,0
8.105,84.795,0
8.106,87.724,0
8.107,79.851,0
8.108,77.47,0
8.109,78.935,0
8.11,76.738,0
8.111,86.809,0
8.112,70.329,0
8.113,76.921,0
8.114,58.794,0
8.115,27.116,0
8.116,14.299,0
8.117,2.58,0
8.118,6.059,0
8.119,2.947,0
8.12,-11.885,0
8.121,-14.448,0
8.122,-26.533,0
8.123,-37.52,0
8.124,-51.619,0
8.125,-53.45,0
8.126,-58.394,0
8.127,-65.901,0
8.128,-64.619,0
8.129,-61.14,0
8.13,-55.464,0
8.131,-48.506,0
8.132,-47.591,0
8.133,-45.21,0
8.134,-41.365,0
8.135,-40.816,0
8.136,-40.266,0
8.137,-38.618,0
8.138,-34.041,0
8.139,-35.872,0
8.14,-32.027,0
8.141,-33.308,0
8.142,-32.027,0
8.143,-28.181,0
8.144,-27.815,0
8.145,-23.604,0
8.146,-19.759,0
8.147,-16.463,0
8.148,-14.265,0
8.149,-10.42,0
8.15,-5.843,0
8.151,-7.674,0
8.152,-3.828,0
8.153,-1.448,0
8.154,-0.166,0
8.155,0.932,0
8.156,3.496,0
8.157,4.594,0
8.158,2.58,0
8.159,1.299,0
8.16,1.299,0
8.161,-2.73,0
8.162,5.693,0
8.163,11.736,0
8.164,15.031,0
8.165,12.102,0
8.166,22.356,0
8.167,21.074,0
8.168,12.651,0
8.169,4.778,0
8.17,7.707,0
8.171,3.13,0
8.172,5.51,0
8.173,4.778,0
8.174,4.228,0
8.175,3.679,0
8.176,2.031,0
8.177,1.665,0
8.178,-0.532,0
8.179,-0.166,0
8.18,2.397,0
8.181,-0.166,0
8.182,3.13,0
8.183,3.496,0
8.184,3.862,0
8.185,4.961,0
8.186,8.257,0
8.187,5.51,0
8.188,6.609,0
8.189,7.707,0
8.19,4.961,0
8.191,5.327,0
8.192,5.693,0
8.193,1.115,0
8.194,0.566,0
8.195,1.115,0
8.196,-1.631,0
8.197,-0.349,0
8.198,-1.631,0
8.199,0.383,0
8.2,4.594,0
8.201,4.045,0
8.202,5.327,0
8.203,7.524,0
8.204,4.778,0
8.205,5.144,0
8.206,0.383,0
8.207,2.214,0
8.208,-1.631,0
8.209,-2.913,0
8.21,-2.547,0
8.211,-2.364,0
8.212,-3.462,0
8.213,2.214,0
8.214,-5.293,0
8.215,9.905,0
8.216,7.707,0
8.217,1.665,0
8.218,-0.166,0
8.219,1.482,0
8.22,-2.913,0
8.221,1.115,0
8.222,4.594,0
8.223,-1.082,0
8.224,-0.166,0
8.225,-2.913,0
8.226,-3.645,0
8.227,-5.843,0
8.228,-6.392,0
8.229,-1.997,0
8.23,-0.349,0
8.231,-2.73,0
8.232,-2.364,0
8.233,-6.209,0
8.234,-0.716,0
8.235,-1.448,0
8.236,1.848,0
8.237,2.397,0
8.238,1.848,0
8.239,1.482,0
8.24,0.2,0
8.241,-2.547,0
8.242,-0.716,0
8.243,-4.011,0
8.244,-3.645,0
8.245,-4.011,0
8.246,-3.645,0
8.247,0.383,0
8.248,-1.265,0
8.249,2.031,0
8.25,5.144,0
8.251,3.13,0
8.252,-0.349,0
8.253,0.932,0
8.254,3.679,0
8.255,2.58,0
8.256,4.411,0
8.257,1.115,0
8.258,-3.096,0
8.259,-2.547,0
8.26,-7.124,0
8.261,-6.575,0
8.262,-3.828,0
8.263,-1.082,0
8.264,-1.448,0
8.265,0.749,0
8.266,-1.265,0
8.267,2.214,0
8.268,-1.997,0
8.269,6.426,0
8.27,-1.997,0
8.271,5.876,0
8.272,2.947,0
8.273,5.693,0
8.274,8.073,0
8.275,11.919,0
8.276,2.947,0
8.277,-5.476,0
8.278,-8.772,0
8.279,-5.843,0
8.28,-8.589,0
8.281,-7.857,0
8.282,-4.011,0
8.283,-5.843,0
8.284,-2.73,0
8.285,-2.18,0
8.286,-0.899,0
8.287,-0.532,0
8.288,1.482,0
8.289,1.115,0
8.29,0.017,0
8.291,-3.279,0
8.292,-5.476,0
8.293,-6.575,0
8.294,-4.744,0
8.295,-3.645,0
8.296,-3.828,0
8.297,0.383,0
8.298,2.214,0
8.299,-0.532,0
8.3,-2.913,0
8.301,0.2,0
8.302,-0.166,0
8.303,0.932,0
8.304,1.299,0
8.305,2.763,0
8.306,2.031,0
8.307,-0.349,0
8.308,-3.645,0
8.309,-3.279,0
8.31,-4.378,0
8.311,-4.744,0
8.312,-4.378,0
8.313,-5.293,0
