0,-154.73,0
0.001,-118.29,0
0.002,-49.994,0
0.003,52.728,0
0.004,148.31,0
0.005,185.66,0
0.006,196.83,0
0.007,207.09,0
0.008,197.75,0
0.009,172.48,0
0.01,149.41,0
0.011,128.53,0
0.012,109.67,0
0.013,104,0
0.014,119.56,0
0.015,152.89,0
0.016,157.1,0
0.017,168.82,0
0.018,172.3,0
0.019,149.77,0
0.02,140.99,0
0.021,122.31,0
0.022,119.93,0
0.023,113.34,0
0.024,87.152,0
0.025,47.784,0
0.026,21.6,0
0.027,16.839,0
0.028,12.628,0
0.029,8.782,0
0.03,5.303,0
0.031,-10.81,0
0.032,-25.641,0
0.033,-39.008,0
0.034,-46.149,0
0.035,-52.741,0
0.036,-50.727,0
0.037,-67.206,0
0.038,-69.404,0
0.039,-75.446,0
0.04,-73.615,0
0.041,-68.671,0
0.042,-70.136,0
0.043,-68.854,0
0.044,-69.953,0
0.045,-73.249,0
0.046,-80.207,0
0.047,-79.291,0
0.048,-80.024,0
0.049,-82.221,0
0.05,-78.925,0
0.051,-77.094,0
0.052,-72.699,0
0.053,-64.277,0
0.054,-58.234,0
0.055,-61.53,0
0.056,-46.332,0
0.057,-39.74,0
0.058,-37.726,0
0.059,-32.233,0
0.06,-30.585,0
0.061,-26.191,0
0.062,-19.416,0
0.063,-18.317,0
0.064,-17.219,0
0.065,-10.26,0
0.066,-7.514,0
0.067,-5.134,0
0.068,-5.866,0
0.069,-1.288,0
0.07,-0.739,0
0.071,3.106,0
0.072,1.824,0
0.073,6.951,0
0.074,7.501,0
0.075,8.05,0
0.076,7.501,0
0.077,8.782,0
0.078,11.895,0
0.079,11.529,0
0.08,12.628,0
0.081,11.529,0
0.082,10.797,0
0.083,11.529,0
0.084,10.247,0
0.085,10.797,0
0.086,8.416,0
0.087,6.951,0
0.088,10.064,0
0.089,11.163,0
0.09,10.064,0
0.091,11.895,0
0.092,14.642,0
0.093,15.74,0
0.094,12.445,0
0.095,6.951,0
0.096,6.219,0
0.097,5.67,0
0.098,5.12,0
0.099,6.768,0
0.1,8.05,0
0.101,7.684,0
0.102,8.599,0
0.103,7.501,0
0.104,13.177,0
0.105,12.445,0
0.106,14.642,0
0.107,14.093,0
0.108,9.698,0
0.109,6.951,0
0.11,8.233,0
0.111,6.036,0
0.112,5.67,0
0.113,3.106,0
0.114,-1.655,0
0.115,-1.105,0
0.116,1.641,0
0.117,2.923,0
0.118,-1.288,0
0.119,1.458,0
0.12,1.824,0
0.121,6.036,0
0.122,2.191,0
0.123,3.472,0
0.124,3.106,0
0.125,2.008,0
0.126,4.571,0
0.127,-0.19,0
0.128,1.641,0
0.129,-2.204,0
0.13,-2.57,0
0.131,-1.288,0
0.132,-0.922,0
0.133,1.641,0
0.134,-0.922,0
0.135,2.374,0
0.136,0.177,0
0.137,0.543,0
0.138,1.641,0
0.139,-1.655,0
0.14,0.36,0
0.141,1.458,0
0.142,1.092,0
0.143,2.557,0
0.144,3.289,0
0.145,1.458,0
0.146,-1.105,0
0.147,-2.936,0
0.148,-0.922,0
0.149,0.36,0
0.15,2.191,0
0.151,-1.288,0
0.152,-2.57,0
0.153,-2.387,0
0.154,0.726,0
0.155,6.951,0
0.156,6.036,0
0.157,3.656,0
0.158,10.614,0
0.159,11.529,0
0.16,-0.922,0
0.161,-2.753,0
0.162,-1.105,0
0.163,-5.5,0
0.164,-4.218,0
0.165,-0.739,0
0.166,-4.035,0
0.167,-3.119,0
0.168,-2.204,0
0.169,0.177,0
0.17,-2.021,0
0.171,-2.57,0
0.172,1.824,0
0.173,0.177,0
0.174,0.543,0
0.175,-0.739,0
0.176,1.275,0
0.177,3.106,0
0.178,2.74,0
0.179,-1.838,0
0.18,-5.134,0
0.181,-2.021,0
0.182,-0.373,0
0.183,-0.739,0
0.184,-2.021,0
0.185,-0.007,0
0.186,0.36,0
0.187,-5.134,0
0.188,-4.401,0
0.189,4.571,0
0.19,3.472,0
0.191,0.177,0
0.192,3.106,0
0.193,2.191,0
0.194,1.458,0
0.195,-2.387,0
0.196,-0.556,0
0.197,-4.95,0
0.198,-4.401,0
0.199,-4.767,0
0.2,-3.486,0
0.201,-3.852,0
0.202,-3.486,0
0.203,-0.922,0
0.204,-3.119,0
0.205,-2.387,0
0.206,1.824,0
0.207,2.374,0
0.208,10.797,0
0.209,-5.317,0
0.21,-11.908,0
0.211,2.191,0
0.212,0.36,0
0.213,-4.584,0
0.214,-0.19,0
0.215,1.092,0
0.216,-0.007,0
0.217,-5.683,0
0.218,-2.753,0
0.219,-1.838,0
0.22,-2.57,0
0.221,1.275,0
0.222,10.247,0
0.223,4.205,0
0.224,-1.471,0
0.225,1.458,0
0.226,0.543,0
0.227,1.275,0
0.228,-2.57,0
0.229,-2.021,0
0.23,-1.471,0
0.231,-2.021,0
0.232,-3.302,0
0.233,-2.021,0
0.234,-3.119,0
0.235,-1.288,0
0.236,-0.19,0
0.237,-0.007,0
0.238,-0.739,0
0.239,2.191,0
0.24,3.289,0
0.241,8.05,0
0.242,9.881,0
0.243,7.135,0
0.244,4.754,0
0.245,1.641,0
0.246,-1.105,0
0.247,2.374,0
0.248,2.74,0
0.249,-1.838,0
0.25,1.275,0
0.251,1.824,0
0.252,4.205,0
0.253,1.092,0
0.254,2.191,0
0.255,2.74,0
0.256,1.641,0
0.257,7.135,0
0.258,10.98,0
0.259,15.557,0
0.26,12.445,0
0.261,4.022,0
0.262,0.543,0
0.263,-5.134,0
0.264,-4.218,0
0.265,-6.965,0
0.266,-2.936,0
0.267,-2.204,0
0.268,-2.753,0
0.269,-2.204,0
0.27,-1.655,0
0.271,-2.936,0
0.272,-1.655,0
0.273,0.36,0
0.274,0.726,0
0.275,2.557,0
0.276,1.092,0
0.277,-0.739,0
0.278,0.543,0
0.279,-1.655,0
0.28,-5.866,0
0.281,-6.415,0
0.282,-4.767,0
0.283,-3.486,0
0.284,-2.204,0
0.285,-1.105,0
0.286,-1.471,0
0.287,4.022,0
0.288,3.289,0
0.289,-1.288,0
0.29,3.106,0
0.291,-0.739,0
0.292,0.543,0
0.293,-1.655,0
0.294,-0.556,0
0.295,1.275,0
0.296,-4.218,0
0.297,-3.486,0
0.298,-1.655,0
0.299,-3.486,0
0.3,-1.838,0
0.301,-0.556,0
0.302,-2.753,0
0.303,-3.119,0
0.304,-2.753,0
0.305,-2.387,0
0.306,5.67,0
0.307,4.937,0
0.308,9.149,0
0.309,4.754,0
0.31,13.177,0
0.311,9.698,0
0.312,6.402,0
0.313,-0.556,0
0.314,0.36,0
0.315,-0.373,0
0.316,-1.105,0
0.317,-0.556,0
0.318,-1.105,0
0.319,-3.852,0
0.32,0.726,0
0.321,0.177,0
0.322,-1.471,0
0.323,3.106,0
0.324,3.656,0
0.325,-2.57,0
0.326,1.458,0
0.327,2.191,0
0.328,4.022,0
0.329,-0.373,0
0.33,0.177,0
0.331,2.557,0
0.332,2.191,0
0.333,0.177,0
0.334,-2.387,0
0.335,-4.218,0
0.336,-6.965,0
0.337,-2.753,0
0.338,-3.302,0
0.339,1.275,0
0.34,-0.556,0
0.341,2.191,0
0.342,-1.105,0
0.343,1.092,0
0.344,3.839,0
0.345,1.275,0
0.346,2.374,0
0.347,-2.204,0
0.348,-2.753,0
0.349,0.36,0
0.35,0.909,0
0.351,-1.471,0
0.352,-2.753,0
0.353,-0.007,0
0.354,-2.57,0
0.355,-1.471,0
0.356,0.543,0
0.357,0.543,0
0.358,0.726,0
0.359,4.205,0
0.36,-2.753,0
0.361,12.445,0
0.362,1.458,0
0.363,-0.556,0
0.364,1.275,0
0.365,-3.669,0
0.366,-2.204,0
0.367,-3.486,0
0.368,-4.584,0
0.369,-1.288,0
0.37,-0.373,0
0.371,-1.288,0
0.372,-0.556,0
0.373,-1.288,0
0.374,3.289,0
0.375,1.458,0
0.376,5.303,0
0.377,5.67,0
0.378,2.557,0
0.379,4.571,0
0.38,-1.105,0
0.381,-3.486,0
0.382,-4.218,0
0.383,0.36,0
0.384,-1.471,0
0.385,-2.021,0
0.386,-2.387,0
0.387,0.726,0
0.388,-2.021,0
0.389,-1.655,0
0.39,-4.95,0
0.391,-4.584,0
0.392,-0.373,0
0.393,-4.218,0
0.394,-3.852,0
0.395,-0.739,0
0.396,3.106,0
0.397,1.824,0
0.398,1.458,0
0.399,0.36,0
0.4,-0.739,0
0.401,1.824,0
0.402,1.092,0
0.403,-0.739,0
0.404,-3.119,0
0.405,-1.105,0
0.406,3.106,0
0.407,-0.007,0
0.408,0.543,0
0.409,-1.105,0
0.41,-2.387,0
0.411,4.571,0
0.412,1.641,0
0.413,0.726,0
0.414,-0.007,0
0.415,5.303,0
0.416,4.754,0
0.417,-3.486,0
0.418,2.191,0
0.419,3.106,0
0.42,-1.471,0
0.421,-5.5,0
0.422,-0.19,0
0.423,0.36,0
0.424,0.909,0
0.425,1.458,0
0.426,3.839,0
0.427,1.641,0
0.428,0.543,0
0.429,-1.288,0
0.43,-1.655,0
0.431,2.923,0
0.432,2.374,0
0.433,0.543,0
0.434,-0.007,0
0.435,-0.373,0
0.436,0.909,0
0.437,-1.838,0
0.438,-3.669,0
0.439,-1.838,0
0.44,0.177,0
0.441,2.008,0
0.442,-0.922,0
0.443,-0.556,0
0.444,-3.852,0
0.445,2.374,0
0.446,-0.373,0
0.447,-4.401,0
0.448,-2.204,0
0.449,-2.753,0
0.45,0.36,0
0.451,0.909,0
0.452,-0.373,0
0.453,1.824,0
0.454,-0.922,0
0.455,1.641,0
0.456,2.74,0
0.457,2.923,0
0.458,6.585,0
0.459,1.275,0
0.46,4.571,0
0.461,-2.387,0
0.462,2.557,0
0.463,-0.19,0
0.464,-4.218,0
0.465,-4.95,0
0.466,-5.5,0
0.467,-3.669,0
0.468,4.754,0
0.469,8.233,0
0.47,0.36,0
0.471,1.275,0
0.472,7.684,0
0.473,6.951,0
0.474,-1.471,0
0.475,8.782,0
0.476,2.008,0
0.477,-1.471,0
0.478,1.824,0
0.479,0.909,0
0.48,-5.5,0
0.481,-4.767,0
0.482,0.543,0
0.483,1.092,0
0.484,-3.302,0
0.485,-4.95,0
0.486,-4.584,0
0.487,0.543,0
0.488,1.092,0
0.489,-2.021,0
0.49,-0.373,0
0.491,0.909,0
0.492,-1.288,0
0.493,-0.19,0
0.494,1.641,0
0.495,-3.119,0
0.496,-2.57,0
0.497,-3.119,0
0.498,-2.753,0
0.499,-0.556,0
0.5,-3.302,0
0.501,0.177,0
0.502,2.374,0
0.503,2.008,0
0.504,0.177,0
0.505,3.472,0
0.506,2.374,0
0.507,3.472,0
0.508,2.374,0
0.509,4.388,0
0.51,2.74,0
0.511,1.458,0
0.512,5.487,0
0.513,10.614,0
0.514,8.782,0
0.515,1.824,0
0.516,-4.584,0
0.517,-3.852,0
0.518,-3.119,0
0.519,-4.95,0
0.52,-0.556,0
0.521,-4.401,0
0.522,0.177,0
0.523,-4.218,0
0.524,2.008,0
0.525,2.74,0
0.526,0.543,0
0.527,2.374,0
0.528,2.923,0
0.529,2.374,0
0.53,3.656,0
0.531,-2.387,0
0.532,-1.655,0
0.533,-3.852,0
0.534,-4.401,0
0.535,-3.852,0
0.536,2.374,0
0.537,-1.655,0
0.538,3.656,0
0.539,3.106,0
0.54,-0.007,0
0.541,-1.655,0
0.542,-4.035,0
0.543,0.177,0
0.544,5.303,0
0.545,3.472,0
0.546,-3.486,0
0.547,-6.232,0
0.548,-6.965,0
0.549,-1.655,0
0.55,5.853,0
0.551,4.937,0
0.552,0.36,0
0.553,2.74,0
0.554,3.472,0
0.555,1.641,0
0.556,3.472,0
0.557,-0.373,0
0.558,-2.753,0
0.559,2.374,0
0.56,-0.922,0
0.561,-0.19,0
0.562,-2.021,0
0.563,4.205,0
0.564,9.881,0
0.565,4.571,0
0.566,4.022,0
0.567,-0.373,0
0.568,-3.119,0
0.569,-4.401,0
0.57,-1.288,0
0.571,-2.387,0
0.572,-1.288,0
0.573,-3.119,0
0.574,-0.373,0
0.575,3.839,0
0.576,5.487,0
0.577,0.909,0
0.578,1.458,0
0.579,-1.288,0
0.58,-1.655,0
0.581,-1.288,0
0.582,-4.035,0
0.583,-4.401,0
0.584,-1.838,0
0.585,1.458,0
0.586,4.571,0
0.587,-1.655,0
0.588,-0.739,0
0.589,-3.119,0
0.59,0.726,0
0.591,1.275,0
0.592,-1.838,0
0.593,3.289,0
0.594,-2.936,0
0.595,-0.556,0
0.596,-2.753,0
0.597,0.543,0
0.598,-1.288,0
0.599,0.36,0
0.6,-4.218,0
0.601,0.177,0
0.602,-1.471,0
0.603,0.909,0
0.604,1.275,0
0.605,-0.739,0
0.606,1.092,0
0.607,1.458,0
0.608,-0.007,0
0.609,1.275,0
0.61,5.303,0
0.611,1.458,0
0.612,0.543,0
0.613,-2.753,0
0.614,4.205,0
0.615,5.12,0
0.616,6.036,0
0.617,2.008,0
0.618,-0.19,0
0.619,-3.486,0
0.62,-0.373,0
0.621,1.275,0
0.622,1.641,0
0.623,-2.57,0
0.624,0.177,0
0.625,0.543,0
0.626,1.824,0
0.627,2.923,0
0.628,0.36,0
0.629,1.458,0
0.63,-2.57,0
0.631,-3.119,0
0.632,-1.838,0
0.633,-0.556,0
0.634,-1.655,0
0.635,-0.556,0
0.636,0.543,0
0.637,0.726,0
0.638,1.458,0
0.639,2.191,0
0.64,-0.922,0
0.641,0.177,0
0.642,-1.655,0
0.643,-1.288,0
0.644,-1.471,0
0.645,2.74,0
0.646,0.909,0
0.647,-1.838,0
0.648,-0.556,0
0.649,-1.838,0
0.65,-3.852,0
0.651,-1.288,0
0.652,-2.387,0
0.653,0.909,0
0.654,-6.049,0
0.655,-1.105,0
0.656,3.472,0
0.657,4.205,0
0.658,4.937,0
0.659,9.515,0
0.66,6.402,0
0.661,3.656,0
0.662,-0.922,0
0.663,-0.922,0
0.664,-0.373,0
0.665,8.05,0
0.666,-5.5,0
0.667,7.318,0
0.668,5.67,0
0.669,-4.767,0
0.67,-3.486,0
0.671,-2.387,0
0.672,-1.288,0
0.673,-0.373,0
0.674,0.543,0
0.675,-3.486,0
0.676,-1.288,0
0.677,-5.866,0
0.678,2.374,0
0.679,1.275,0
0.68,-1.655,0
0.681,-2.57,0
0.682,-0.19,0
0.683,-0.922,0
0.684,2.374,0
0.685,5.487,0
0.686,4.937,0
0.687,-0.556,0
0.688,0.177,0
0.689,-0.373,0
0.69,2.74,0
0.691,3.289,0
0.692,-2.204,0
0.693,-2.936,0
0.694,0.36,0
0.695,-0.19,0
0.696,-2.936,0
0.697,-2.57,0
0.698,-5.683,0
0.699,-6.781,0
0.7,-6.415,0
0.701,-0.922,0
0.702,2.923,0
0.703,4.754,0
0.704,-2.204,0
0.705,-3.119,0
0.706,2.557,0
0.707,6.402,0
0.708,0.177,0
0.709,4.205,0
0.71,4.937,0
0.711,6.768,0
0.712,3.656,0
0.713,0.909,0
0.714,4.205,0
0.715,4.571,0
0.716,-2.387,0
0.717,0.543,0
0.718,-2.204,0
0.719,-4.584,0
0.72,2.374,0
0.721,5.12,0
0.722,5.853,0
0.723,0.543,0
0.724,-5.683,0
0.725,-3.302,0
0.726,-7.148,0
0.727,-2.57,0
0.728,-0.739,0
0.729,-3.486,0
0.73,-5.866,0
0.731,-8.979,0
0.732,-2.753,0
0.733,-0.007,0
0.734,7.501,0
0.735,8.416,0
0.736,5.67,0
0.737,8.05,0
0.738,2.74,0
0.739,-0.556,0
0.74,-4.95,0
0.741,-2.204,0
0.742,0.177,0
0.743,-1.105,0
0.744,0.909,0
0.745,3.472,0
0.746,-2.021,0
0.747,0.177,0
0.748,0.726,0
0.749,-4.95,0
0.75,-2.753,0
0.751,-0.922,0
0.752,-1.471,0
0.753,0.177,0
0.754,-3.119,0
0.755,1.092,0
0.756,-0.556,0
0.757,4.937,0
0.758,2.74,0
0.759,3.289,0
0.76,-1.105,0
0.761,-2.753,0
0.762,2.74,0
0.763,0.543,0
0.764,-2.753,0
0.765,-3.852,0
0.766,1.824,0
0.767,7.135,0
0.768,2.557,0
0.769,4.388,0
0.77,10.614,0
0.771,6.585,0
0.772,-4.95,0
0.773,-3.302,0
0.774,-1.838,0
0.775,2.191,0
0.776,3.289,0
0.777,-0.007,0
0.778,-6.965,0
0.779,-4.218,0
0.78,-3.486,0
0.781,0.36,0
0.782,-1.471,0
0.783,-2.021,0
0.784,0.726,0
0.785,4.022,0
0.786,3.656,0
0.787,1.641,0
0.788,-0.922,0
0.789,1.641,0
0.79,-0.373,0
0.791,-2.204,0
0.792,-2.387,0
0.793,1.092,0
0.794,2.374,0
0.795,0.177,0
0.796,-2.57,0
0.797,-2.204,0
0.798,-3.302,0
0.799,-5.317,0
0.8,-1.655,0
0.801,-1.288,0
0.802,1.824,0
0.803,-0.19,0
0.804,2.374,0
0.805,1.275,0
0.806,2.74,0
0.807,2.008,0
0.808,-0.373,0
0.809,1.092,0
0.81,-2.57,0
0.811,-2.204,0
0.812,-3.486,0
0.813,-4.584,0
0.814,-0.373,0
0.815,-2.021,0
0.816,-1.655,0
0.817,2.923,0
0.818,9.881,0
0.819,18.304,0
0.82,12.628,0
0.821,7.684,0
0.822,1.275,0
0.823,-4.401,0
0.824,-5.134,0
0.825,-8.429,0
0.826,-2.753,0
0.827,-2.021,0
0.828,-3.852,0
0.829,-2.021,0
0.83,-2.57,0
0.831,0.726,0
0.832,7.684,0
0.833,2.74,0
0.834,1.824,0
0.835,1.092,0
0.836,0.36,0
0.837,-0.19,0
0.838,0.36,0
0.839,-2.387,0
0.84,-2.021,0
0.841,-4.218,0
0.842,-1.471,0
0.843,-1.105,0
0.844,-5.134,0
0.845,0.36,0
0.846,2.557,0
0.847,0.726,0
0.848,3.839,0
0.849,5.487,0
0.85,3.106,0
0.851,0.909,0
0.852,3.656,0
0.853,4.754,0
0.854,-0.739,0
0.855,-6.049,0
0.856,1.458,0
0.857,4.388,0
0.858,1.641,0
0.859,9.149,0
0.86,4.205,0
0.861,1.458,0
0.862,0.726,0
0.863,-1.471,0
0.864,-7.697,0
0.865,-5.317,0
0.866,-3.119,0
0.867,-2.387,0
0.868,-2.936,0
0.869,5.303,0
0.87,2.008,0
0.871,15.191,0
0.872,9.698,0
0.873,-1.838,0
0.874,-6.232,0
0.875,-4.95,0
0.876,-3.852,0
0.877,-0.556,0
0.878,2.374,0
0.879,-4.035,0
0.88,-9.711,0
0.881,-7.514,0
0.882,-4.218,0
0.883,-4.767,0
0.884,-3.119,0
0.885,0.177,0
0.886,5.303,0
0.887,2.008,0
0.888,3.839,0
0.889,7.684,0
0.89,8.966,0
0.891,2.008,0
0.892,1.092,0
0.893,-1.655,0
0.894,-2.387,0
0.895,-0.19,0
0.896,6.036,0
0.897,-1.471,0
0.898,-2.387,0
0.899,4.022,0
0.9,-1.655,0
0.901,-5.5,0
0.902,0.726,0
0.903,-4.95,0
0.904,-1.105,0
0.905,2.191,0
0.906,4.022,0
0.907,4.571,0
0.908,4.937,0
0.909,4.571,0
0.91,-0.007,0
0.911,0.543,0
0.912,-2.204,0
0.913,-1.838,0
0.914,-4.035,0
0.915,-10.26,0
0.916,-11.176,0
0.917,-7.148,0
0.918,-2.387,0
0.919,6.036,0
0.92,20.867,0
0.921,6.768,0
0.922,4.937,0
0.923,9.881,0
0.924,14.276,0
0.925,-3.486,0
0.926,8.599,0
0.927,-2.387,0
0.928,-4.401,0
0.929,-2.57,0
0.93,-10.81,0
0.931,-3.302,0
0.932,-4.584,0
0.933,1.458,0
0.934,0.36,0
0.935,-6.598,0
0.936,-7.514,0
0.937,-6.781,0
0.938,-4.584,0
0.939,-4.035,0
0.94,-3.486,0
0.941,1.641,0
0.942,11.895,0
0.943,16.29,0
0.944,12.261,0
0.945,11.163,0
0.946,7.867,0
0.947,-1.288,0
0.948,-4.767,0
0.949,0.909,0
0.95,7.867,0
0.951,18.121,0
0.952,22.149,0
0.953,33.319,0
0.954,31.854,0
0.955,27.825,0
0.956,24.346,0
0.957,23.248,0
0.958,14.093,0
0.959,8.05,0
0.96,9.149,0
0.961,-6.049,0
0.962,-21.43,0
0.963,-31.501,0
0.964,-40.656,0
0.965,-42.304,0
0.966,-52.741,0
0.967,-51.459,0
0.968,-37.909,0
0.969,-22.162,0
0.97,-13.007,0
0.971,-14.655,0
0.972,-37.177,0
0.973,-53.29,0
0.974,-80.024,0
0.975,-104.93,0
0.976,-121.04,0
0.977,-129.83,0
0.978,-143.19,0
0.979,-160.04,0
0.98,-175.42,0
0.981,-165.35,0
0.982,-156.2,0
0.983,-134.59,0
0.984,-102,0
0.985,-36.994,0
0.986,103.08,0
0.987,163.14,0
0.988,181.27,0
0.989,197.75,0
0.99,182.73,0
0.991,169.18,0
0.992,131.83,0
0.993,143,0
0.994,132.75,0
0.995,123.41,0
0.996,131.83,0
0.997,139.52,0
0.998,160.39,0
0.999,154.17,0
1,148.49,0
1.001,132.93,0
1.002,109.12,0
1.003,104.91,0
1.004,124.5,0
1.005,113.89,0
1.006,78.179,0
1.007,44.854,0
1.008,23.248,0
1.009,11.529,0
1.01,8.05,0
1.011,-1.471,0
1.012,7.318,0
1.013,9.881,0
1.014,-2.204,0
1.015,-8.796,0
1.016,-18.866,0
1.017,-13.373,0
1.018,-38.276,0
1.019,-48.896,0
1.02,-63.91,0
1.021,-73.432,0
1.022,-76.362,0
1.023,-73.798,0
1.024,-71.418,0
1.025,-73.615,0
1.026,-75.629,0
1.027,-70.136,0
1.028,-78.376,0
1.029,-76.911,0
1.03,-83.686,0
1.031,-87.165,0
1.032,-88.263,0
1.033,-73.066,0
1.034,-53.107,0
1.035,-28.937,0
1.036,-32.05,0
1.037,-34.98,0
1.038,-42.853,0
1.039,-35.712,0
1.04,-29.12,0
1.041,-35.163,0
1.042,-29.67,0
1.043,-24.726,0
1.044,-20.331,0
1.045,-24.36,0
1.046,-23.261,0
1.047,-15.387,0
1.048,-8.429,0
1.049,3.656,0
1.05,5.303,0
1.051,0.909,0
1.052,-0.373,0
1.053,-1.471,0
1.054,-2.57,0
1.055,-1.655,0
1.056,4.754,0
1.057,7.135,0
1.058,4.937,0
1.059,8.233,0
1.06,12.628,0
1.061,13.177,0
1.062,7.684,0
1.063,6.951,0
1.064,2.374,0
1.065,4.205,0
1.066,4.754,0
1.067,5.12,0
1.068,0.909,0
1.069,2.557,0
1.07,8.05,0
1.071,11.529,0
1.072,13.726,0
1.073,23.98,0
1.074,25.445,0
1.075,32.22,0
1.076,28.741,0
1.077,13.909,0
1.078,3.839,0
1.079,5.67,0
1.08,-2.57,0
1.081,-1.105,0
1.082,2.923,0
1.083,1.824,0
1.084,12.078,0
1.085,13.36,0
1.086,9.881,0
1.087,2.008,0
1.088,8.966,0
1.089,4.388,0
1.09,5.12,0
1.091,-0.19,0
1.092,6.036,0
1.093,11.712,0
1.094,12.445,0
1.095,12.994,0
1.096,6.036,0
1.097,-2.387,0
1.098,-5.683,0
1.099,-6.598,0
1.1,-7.514,0
1.101,-6.781,0
1.102,-6.049,0
1.103,-7.88,0
1.104,-3.486,0
1.105,4.937,0
1.106,1.458,0
1.107,2.557,0
1.108,-6.598,0
1.109,-0.556,0
1.11,0.543,0
1.111,1.458,0
1.112,2.374,0
1.113,4.754,0
1.114,5.487,0
1.115,8.782,0
1.116,11.895,0
1.117,10.247,0
1.118,5.67,0
1.119,5.12,0
1.12,-0.007,0
1.121,-1.838,0
1.122,0.543,0
1.123,6.219,0
1.124,17.755,0
1.125,9.515,0
1.126,13.909,0
1.127,9.881,0
1.128,6.402,0
1.129,0.726,0
1.13,-4.218,0
1.131,-5.134,0
1.132,-5.866,0
1.133,-8.063,0
1.134,-8.613,0
1.135,-2.936,0
1.136,0.909,0
1.137,5.487,0
1.138,3.656,0
1.139,0.909,0
1.14,-3.669,0
1.141,2.008,0
1.142,4.205,0
1.143,4.754,0
1.144,2.923,0
1.145,0.177,0
1.146,-1.105,0
1.147,-0.739,0
1.148,3.839,0
1.149,-0.556,0
1.15,-2.204,0
1.151,-3.486,0
1.152,-1.288,0
1.153,-7.514,0
1.154,-6.598,0
1.155,-8.979,0
1.156,-6.781,0
1.157,-3.486,0
1.158,0.909,0
1.159,3.656,0
1.16,6.036,0
1.161,8.233,0
1.162,7.867,0
1.163,2.191,0
1.164,-0.19,0
1.165,-2.387,0
1.166,-1.838,0
1.167,-1.288,0
1.168,-2.936,0
1.169,-6.232,0
1.17,-7.514,0
1.171,-12.092,0
1.172,-8.979,0
1.173,-9.711,0
1.174,-5.866,0
1.175,1.641,0
1.176,2.74,0
1.177,7.684,0
1.178,10.43,0
1.179,14.459,0
1.18,6.036,0
1.181,4.937,0
1.182,2.008,0
1.183,2.923,0
1.184,3.656,0
1.185,4.388,0
1.186,4.937,0
1.187,-2.021,0
1.188,-4.767,0
1.189,-5.5,0
1.19,-4.767,0
1.191,-0.19,0
1.192,-0.739,0
1.193,-0.19,0
1.194,0.177,0
1.195,-2.021,0
1.196,0.726,0
1.197,0.36,0
1.198,0.726,0
1.199,-3.852,0
1.2,-8.429,0
1.201,-7.88,0
1.202,-5.134,0
1.203,-2.753,0
1.204,0.36,0
1.205,-1.655,0
1.206,2.557,0
1.207,-5.866,0
1.208,0.177,0
1.209,-3.119,0
1.21,-2.204,0
1.211,0.543,0
1.212,12.994,0
1.213,0.177,0
1.214,-4.767,0
1.215,-0.373,0
1.216,3.656,0
1.217,0.177,0
1.218,3.472,0
1.219,0.543,0
1.22,6.951,0
1.221,2.923,0
1.222,-0.922,0
1.223,2.374,0
1.224,6.402,0
1.225,4.571,0
1.226,12.994,0
1.227,6.951,0
1.228,8.05,0
1.229,1.092,0
1.23,-9.162,0
1.231,-7.88,0
1.232,-4.401,0
1.233,-1.105,0
1.234,-0.19,0
1.235,0.726,0
1.236,-0.007,0
1.237,3.839,0
1.238,-3.669,0
1.239,-2.753,0
1.24,-0.007,0
1.241,-0.739,0
1.242,3.106,0
1.243,1.275,0
1.244,5.67,0
1.245,2.923,0
1.246,4.205,0
1.247,4.571,0
1.248,1.824,0
1.249,0.726,0
1.25,1.824,0
1.251,0.36,0
1.252,2.923,0
1.253,4.754,0
1.254,0.177,0
1.255,0.726,0
1.256,5.12,0
1.257,-0.007,0
1.258,-0.556,0
1.259,-1.105,0
1.26,0.543,0
1.261,-4.95,0
1.262,-4.218,0
1.263,-4.767,0
1.264,2.191,0
1.265,1.275,0
1.266,-2.753,0
1.267,-6.598,0
1.268,-8.429,0
1.269,-4.035,0
1.27,1.092,0
1.271,-5.134,0
1.272,-2.753,0
1.273,8.782,0
1.274,7.135,0
1.275,1.275,0
1.276,5.67,0
1.277,15.191,0
1.278,6.768,0
1.279,5.67,0
1.28,8.599,0
1.281,-5.317,0
1.282,-23.444,0
1.283,-6.598,0
1.284,-8.796,0
1.285,-2.753,0
1.286,-0.922,0
1.287,-2.57,0
1.288,-6.965,0
1.289,-2.936,0
1.29,3.106,0
1.291,4.205,0
1.292,-2.753,0
1.293,-5.5,0
1.294,-6.232,0
1.295,-0.922,0
1.296,-1.471,0
1.297,-0.922,0
1.298,-1.471,0
1.299,0.909,0
1.3,2.191,0
1.301,-4.035,0
1.302,-3.119,0
1.303,-2.387,0
1.304,-3.119,0
1.305,1.458,0
1.306,3.289,0
1.307,7.135,0
1.308,14.642,0
1.309,13.543,0
1.31,4.388,0
1.311,3.289,0
1.312,4.388,0
1.313,-4.767,0
1.314,-5.866,0
1.315,-6.965,0
1.316,-0.007,0
1.317,-4.584,0
1.318,-8.613,0
1.319,-6.415,0
1.32,-4.584,0
1.321,2.374,0
1.322,5.12,0
1.323,2.74,0
1.324,6.585,0
1.325,8.416,0
1.326,7.135,0
1.327,-2.387,0
1.328,12.628,0
1.329,2.557,0
1.33,4.388,0
1.331,9.332,0
1.332,10.797,0
1.333,4.022,0
1.334,-4.401,0
1.335,-5.5,0
1.336,-8.429,0
1.337,-5.683,0
1.338,-3.302,0
1.339,-8.613,0
1.34,-4.035,0
1.341,0.36,0
1.342,2.008,0
1.343,4.388,0
1.344,7.501,0
1.345,4.754,0
1.346,2.191,0
1.347,-1.838,0
1.348,-8.429,0
1.349,-11.176,0
1.35,-13.556,0
1.351,-12.824,0
1.352,-2.57,0
1.353,-6.965,0
1.354,-5.683,0
1.355,7.867,0
1.356,9.698,0
1.357,11.346,0
1.358,12.811,0
1.359,11.529,0
1.36,10.43,0
1.361,20.684,0
1.362,8.416,0
1.363,3.472,0
1.364,-4.035,0
1.365,-5.317,0
1.366,-1.838,0
1.367,-5.134,0
1.368,-0.19,0
1.369,4.388,0
1.37,10.064,0
1.371,3.106,0
1.372,-1.471,0
1.373,0.909,0
1.374,3.106,0
1.375,-0.19,0
1.376,1.641,0
1.377,-0.922,0
1.378,-9.345,0
1.379,-8.246,0
1.38,-11.542,0
1.381,-4.584,0
1.382,-7.331,0
1.383,-9.711,0
1.384,-1.288,0
1.385,2.008,0
1.386,-0.922,0
1.387,-5.5,0
1.388,-11.176,0
1.389,-10.444,0
1.39,-1.471,0
1.391,-4.95,0
1.392,-6.049,0
1.393,5.12,0
1.394,15.557,0
1.395,6.036,0
1.396,2.557,0
1.397,-7.697,0
1.398,7.318,0
1.399,13.36,0
1.4,7.867,0
1.401,-3.669,0
1.402,-2.204,0
1.403,7.318,0
1.404,6.219,0
1.405,-1.655,0
1.406,-2.57,0
1.407,-1.655,0
1.408,0.726,0
1.409,1.458,0
1.41,4.754,0
1.411,-3.486,0
1.412,-13.74,0
1.413,-20.514,0
1.414,-19.416,0
1.415,-18.317,0
1.416,-15.387,0
1.417,-12.641,0
1.418,-6.965,0
1.419,4.571,0
1.42,12.811,0
1.421,5.303,0
1.422,17.572,0
1.423,35.882,0
1.424,43.023,0
1.425,18.67,0
1.426,9.149,0
1.427,6.219,0
1.428,5.67,0
1.429,8.233,0
1.43,10.614,0
1.431,-4.767,0
1.432,1.275,0
1.433,-7.88,0
1.434,-9.528,0
1.435,-2.021,0
1.436,-3.302,0
1.437,-4.401,0
1.438,-5.5,0
1.439,-0.556,0
1.44,0.36,0
1.441,-3.669,0
1.442,-5.866,0
1.443,-10.444,0
1.444,-10.993,0
1.445,-8.246,0
1.446,-6.965,0
1.447,-13.007,0
1.448,-12.275,0
1.449,-2.204,0
1.45,-3.486,0
1.451,15.008,0
1.452,17.572,0
1.453,5.487,0
1.454,7.684,0
1.455,1.641,0
1.456,-0.19,0
1.457,-1.838,0
1.458,-0.373,0
1.459,-1.655,0
1.46,-0.556,0
1.461,7.318,0
1.462,4.388,0
1.463,-2.021,0
1.464,-6.049,0
1.465,-8.246,0
1.466,-10.077,0
1.467,-10.627,0
1.468,-8.979,0
1.469,-1.471,0
1.47,4.205,0
1.471,9.149,0
1.472,17.572,0
1.473,16.473,0
1.474,13.543,0
1.475,-0.373,0
1.476,-6.415,0
1.477,-4.584,0
1.478,0.36,0
1.479,3.472,0
1.48,7.867,0
1.481,25.628,0
1.482,13.543,0
1.483,6.951,0
1.484,-3.119,0
1.485,-8.613,0
1.486,-6.965,0
1.487,-5.5,0
1.488,-1.471,0
1.489,-2.57,0
1.49,-8.246,0
1.491,-3.302,0
1.492,5.12,0
1.493,4.022,0
1.494,3.106,0
1.495,9.515,0
1.496,5.487,0
1.497,1.641,0
1.498,-2.936,0
1.499,-8.613,0
1.5,-7.88,0
1.501,-7.331,0
1.502,-6.781,0
1.503,-10.627,0
1.504,-13.007,0
1.505,-6.965,0
1.506,-6.232,0
1.507,-0.922,0
1.508,5.303,0
1.509,7.684,0
1.51,12.994,0
1.511,11.163,0
1.512,5.487,0
1.513,0.177,0
1.514,-1.655,0
1.515,-8.613,0
1.516,-4.035,0
1.517,-8.063,0
1.518,-5.866,0
1.519,-9.162,0
1.52,-10.993,0
1.521,-9.345,0
1.522,-3.852,0
1.523,-3.119,0
1.524,-1.288,0
1.525,0.543,0
1.526,8.966,0
1.527,15.008,0
1.528,16.107,0
1.529,6.951,0
1.53,-0.19,0
1.531,0.909,0
1.532,17.938,0
1.533,10.797,0
1.534,17.388,0
1.535,7.318,0
1.536,5.487,0
1.537,0.543,0
1.538,4.937,0
1.539,3.656,0
1.54,-2.387,0
1.541,-5.683,0
1.542,-10.627,0
1.543,-4.218,0
1.544,-6.598,0
1.545,-2.753,0
1.546,-4.584,0
1.547,-1.471,0
1.548,0.177,0
1.549,1.458,0
1.55,4.571,0
1.551,4.937,0
1.552,6.768,0
1.553,6.402,0
1.554,7.867,0
1.555,3.656,0
1.556,-5.866,0
1.557,-7.148,0
1.558,-15.571,0
1.559,-9.894,0
1.56,-19.05,0
1.561,-17.951,0
1.562,-0.922,0
1.563,25.811,0
1.564,36.431,0
1.565,20.318,0
1.566,17.388,0
1.567,9.515,0
1.568,2.374,0
1.569,-8.613,0
1.57,-18.683,0
1.571,-13.19,0
1.572,-11.542,0
1.573,-4.035,0
1.574,-5.317,0
1.575,-6.415,0
1.576,-0.739,0
1.577,0.177,0
1.578,-4.401,0
1.579,-6.781,0
1.58,-15.204,0
1.581,-9.711,0
1.582,-6.415,0
1.583,-1.471,0
1.584,-2.387,0
1.585,1.641,0
1.586,13.177,0
1.587,31.488,0
1.588,4.754,0
1.589,-5.866,0
1.59,-2.753,0
1.591,6.036,0
1.592,13.909,0
1.593,21.051,0
1.594,10.064,0
1.595,4.022,0
1.596,2.191,0
1.597,-2.753,0
1.598,-4.218,0
1.599,-0.19,0
1.6,-1.288,0
1.601,-4.584,0
1.602,-9.528,0
1.603,-10.444,0
1.604,-9.711,0
1.605,-5.866,0
1.606,-7.697,0
1.607,-3.302,0
1.608,-3.852,0
1.609,3.656,0
1.61,4.754,0
1.611,5.67,0
1.612,10.247,0
1.613,2.74,0
1.614,1.824,0
1.615,-0.922,0
1.616,-6.598,0
1.617,-4.401,0
1.618,-4.95,0
1.619,-3.119,0
1.62,-6.965,0
1.621,-0.373,0
1.622,2.374,0
1.623,-5.134,0
1.624,-6.049,0
1.625,4.205,0
1.626,8.233,0
1.627,11.712,0
1.628,12.811,0
1.629,9.881,0
1.63,7.135,0
1.631,3.106,0
1.632,-3.119,0
1.633,-6.965,0
1.634,2.008,0
1.635,0.909,0
1.636,-0.19,0
1.637,6.768,0
1.638,-1.655,0
1.639,-0.556,0
1.64,-3.486,0
1.641,-2.57,0
1.642,8.233,0
1.643,3.839,0
1.644,-5.683,0
1.645,-9.162,0
1.646,-8.063,0
1.647,-3.119,0
1.648,-9.528,0
1.649,-11.908,0
1.65,-6.598,0
1.651,-7.148,0
1.652,-7.697,0
1.653,0.726,0
1.654,11.895,0
1.655,-1.655,0
1.656,-3.486,0
1.657,1.458,0
1.658,2.923,0
1.659,9.698,0
1.66,6.219,0
1.661,2.923,0
1.662,2.008,0
1.663,2.923,0
1.664,-1.105,0
1.665,-0.373,0
1.666,2.923,0
1.667,3.472,0
1.668,-2.753,0
1.669,-5.134,0
1.67,-2.936,0
1.671,0.36,0
1.672,-2.753,0
1.673,2.374,0
1.674,0.543,0
1.675,3.656,0
1.676,3.106,0
1.677,7.684,0
1.678,0.726,0
1.679,3.472,0
1.68,4.205,0
1.681,3.472,0
1.682,-1.105,0
1.683,-4.584,0
1.684,-4.035,0
1.685,4.388,0
1.686,-1.655,0
1.687,6.219,0
1.688,1.275,0
1.689,2.191,0
1.69,-1.838,0
1.691,-5.683,0
1.692,-1.105,0
1.693,2.008,0
1.694,-1.838,0
1.695,0.543,0
1.696,-0.739,0
1.697,5.487,0
1.698,0.909,0
1.699,0.177,0
1.7,4.022,0
1.701,-0.556,0
1.702,-0.007,0
1.703,1.641,0
1.704,1.275,0
1.705,-0.007,0
1.706,-2.021,0
1.707,-3.119,0
1.708,1.641,0
1.709,-6.598,0
1.71,-7.697,0
1.711,-0.739,0
1.712,7.684,0
1.713,8.782,0
1.714,1.824,0
1.715,0.909,0
1.716,4.937,0
1.717,7.135,0
1.718,-1.838,0
1.719,-2.936,0
1.72,0.36,0
1.721,7.318,0
1.722,11.895,0
1.723,7.867,0
1.724,2.557,0
1.725,-0.739,0
1.726,-2.57,0
1.727,-6.415,0
1.728,0.177,0
1.729,-2.57,0
1.73,-3.302,0
1.731,-4.035,0
1.732,-2.204,0
1.733,-2.753,0
1.734,-0.922,0
1.735,-0.373,0
1.736,7.135,0
1.737,-5.317,0
1.738,9.698,0
1.739,3.656,0
1.74,-5.5,0
1.741,-0.556,0
1.742,3.839,0
1.743,2.557,0
1.744,-0.922,0
1.745,-2.021,0
1.746,-4.95,0
1.747,-2.204,0
1.748,0.177,0
1.749,-8.246,0
1.75,-2.57,0
1.751,0.36,0
1.752,-0.556,0
1.753,3.472,0
1.754,-0.373,0
1.755,-4.95,0
1.756,-8.063,0
1.757,0.36,0
1.758,-3.119,0
1.759,-4.218,0
1.76,-3.302,0
1.761,3.106,0
1.762,-2.57,0
1.763,-10.993,0
1.764,-9.894,0
1.765,-8.979,0
1.766,-0.556,0
1.767,0.543,0
1.768,13.726,0
1.769,22.882,0
1.77,7.867,0
1.771,-6.232,0
1.772,-0.739,0
1.773,4.205,0
1.774,2.74,0
1.775,6.768,0
1.776,-1.655,0
1.777,-4.95,0
1.778,-4.035,0
1.779,9.881,0
1.78,19.952,0
1.781,7.135,0
1.782,-1.105,0
1.783,0.36,0
1.784,-3.669,0
1.785,4.205,0
1.786,10.247,0
1.787,11.346,0
1.788,0.177,0
1.789,4.571,0
1.79,3.289,0
1.791,2.191,0
1.792,-1.105,0
1.793,-2.021,0
1.794,-2.936,0
1.795,4.571,0
1.796,1.641,0
1.797,0.726,0
1.798,-1.655,0
1.799,5.303,0
1.8,6.219,0
1.801,-1.288,0
1.802,-0.373,0
1.803,0.543,0
1.804,-6.965,0
1.805,-4.035,0
1.806,-4.95,0
1.807,-7.331,0
1.808,-11.176,0
1.809,-13.007,0
1.81,-8.613,0
1.811,-0.19,0
1.812,18.304,0
1.813,10.43,0
1.814,-11.542,0
1.815,-20.331,0
1.816,-12.458,0
1.817,-5.317,0
1.818,-3.119,0
1.819,10.98,0
1.82,5.487,0
1.821,-2.753,0
1.822,-7.148,0
1.823,-3.119,0
1.824,5.303,0
1.825,-2.57,0
1.826,0.36,0
1.827,-2.387,0
1.828,1.641,0
1.829,3.839,0
1.83,3.289,0
1.831,2.74,0
1.832,2.191,0
1.833,-2.387,0
1.834,-5.5,0
1.835,-0.373,0
1.836,0.543,0
1.837,2.374,0
1.838,8.05,0
1.839,19.586,0
1.84,11.346,0
1.841,6.951,0
1.842,5.67,0
1.843,6.768,0
1.844,7.867,0
1.845,2.923,0
1.846,0.177,0
1.847,2.557,0
1.848,-4.401,0
1.849,-3.486,0
1.85,-4.218,0
1.851,-4.95,0
1.852,-4.401,0
1.853,-2.57,0
1.854,0.177,0
1.855,-1.105,0
1.856,-2.387,0
1.857,-2.021,0
1.858,1.458,0
1.859,-0.739,0
1.86,-1.105,0
1.861,3.839,0
1.862,7.135,0
1.863,4.022,0
1.864,-4.401,0
1.865,-5.5,0
1.866,-6.598,0
1.867,0.36,0
1.868,1.275,0
1.869,3.656,0
1.87,1.458,0
1.871,-0.373,0
1.872,-0.922,0
1.873,-0.373,0
1.874,-1.655,0
1.875,-3.852,0
1.876,-6.598,0
1.877,-0.922,0
1.878,4.754,0
1.879,5.487,0
1.88,-2.021,0
1.881,-4.95,0
1.882,3.472,0
1.883,0.177,0
1.884,13.36,0
1.885,4.205,0
1.886,-0.739,0
1.887,-3.119,0
1.888,-7.514,0
1.889,4.754,0
1.89,12.994,0
1.891,5.487,0
1.892,17.755,0
1.893,19.403,0
1.894,29.84,0
1.895,47.601,0
1.896,40.46,0
1.897,29.473,0
1.898,19.403,0
1.899,21.234,0
1.9,6.219,0
1.901,0.177,0
1.902,9.332,0
1.903,1.092,0
1.904,-18.5,0
1.905,-26.374,0
1.906,-28.754,0
1.907,-30.951,0
1.908,-45.051,0
1.909,-54.206,0
1.91,-52.558,0
1.911,-45.051,0
1.912,-35.529,0
1.913,-29.487,0
1.914,-17.035,0
1.915,-32.05,0
1.916,-58.234,0
1.917,-75.995,0
1.918,-98.517,0
1.919,-119.21,0
1.92,-159.49,0
1.921,-165.17,0
1.922,-160.04,0
1.923,-155.28,0
1.924,-151.07,0
1.925,-139.35,0
1.926,-121.59,0
1.927,-72.883,0
1.928,32.22,0
1.929,137.51,0
1.93,151.06,0
1.931,188.41,0
1.932,177.24,0
1.933,166.99,0
1.934,157.65,0
1.935,132.38,0
1.936,93.927,0
1.937,73.052,0
1.938,70.123,0
1.939,88.983,0
1.94,129.27,0
1.941,134.39,0
1.942,139.15,0
1.943,143.37,0
1.944,139.52,0
1.945,128.9,0
1.946,119.38,0
1.947,110.59,0
1.948,102.72,0
1.949,109.86,0
1.95,89.898,0
1.951,49.615,0
1.952,20.867,0
1.953,25.994,0
1.954,21.234,0
1.955,17.022,0
1.956,5.303,0
1.957,-19.599,0
1.958,-29.12,0
1.959,-26.191,0
1.96,-39.557,0
1.961,-37.177,0
1.962,-34.98,0
1.963,-53.107,0
1.964,-60.248,0
1.965,-66.84,0
1.966,-72.883,0
1.967,-71.052,0
1.968,-69.404,0
1.969,-73.798,0
1.97,-61.53,0
1.971,-66.474,0
1.972,-70.868,0
1.973,-72.15,0
1.974,-75.629,0
1.975,-74.531,0
1.976,-73.615,0
1.977,-65.192,0
1.978,-57.319,0
1.979,-50.361,0
1.98,-49.445,0
1.981,-41.938,0
1.982,-44.867,0
1.983,-40.29,0
1.984,-39.557,0
1.985,-38.825,0
1.986,-31.318,0
1.987,-32.233,0
1.988,-31.318,0
1.989,-21.43,0
1.99,-8.979,0
1.991,7.501,0
1.992,5.303,0
1.993,-0.739,0
1.994,1.092,0
1.995,6.036,0
1.996,1.641,0
1.997,13.909,0
1.998,15.557,0
1.999,11.163,0
2,9.881,0
2.001,3.839,0
2.002,4.937,0
2.003,-0.007,0
2.004,0.909,0
2.005,8.416,0
2.006,9.332,0
2.007,12.078,0
2.008,11.346,0
2.009,15.191,0
2.01,13.36,0
2.011,8.966,0
2.012,11.712,0
2.013,15.008,0
2.014,8.05,0
2.015,5.12,0
2.016,7.867,0
2.017,18.67,0
2.018,14.276,0
2.019,7.501,0
2.02,4.022,0
2.021,2.923,0
2.022,5.853,0
2.023,19.769,0
2.024,13.726,0
2.025,8.233,0
2.026,6.585,0
2.027,5.12,0
2.028,6.402,0
2.029,9.881,0
2.03,8.782,0
2.031,1.824,0
2.032,-0.922,0
2.033,-4.95,0
2.034,0.36,0
2.035,-0.19,0
2.036,5.487,0
2.037,10.797,0
2.038,8.966,0
2.039,8.416,0
2.04,5.67,0
2.041,8.416,0
2.042,15.924,0
2.043,10.247,0
2.044,11.163,0
2.045,-2.753,0
2.046,-8.796,0
2.047,4.022,0
2.048,-0.922,0
2.049,-2.387,0
2.05,-3.669,0
2.051,-2.57,0
2.052,3.106,0
2.053,2.191,0
2.054,1.275,0
2.055,-4.401,0
2.056,-0.556,0
2.057,-0.007,0
2.058,0.543,0
2.059,-3.302,0
2.06,-0.007,0
2.061,3.106,0
2.062,4.205,0
2.063,6.768,0
2.064,7.867,0
2.065,4.571,0
2.066,3.289,0
2.067,0.543,0
2.068,6.219,0
2.069,2.191,0
2.07,-3.119,0
2.071,-2.57,0
2.072,-0.739,0
2.073,-1.288,0
2.074,-1.655,0
2.075,-3.852,0
2.076,-3.486,0
2.077,-6.965,0
2.078,-12.092,0
2.079,-1.838,0
2.08,5.67,0
2.081,-3.852,0
2.082,-7.331,0
2.083,-6.232,0
2.084,-3.302,0
2.085,5.12,0
2.086,1.824,0
2.087,4.754,0
2.088,2.008,0
2.089,1.275,0
2.09,2.008,0
2.091,0.543,0
2.092,-0.007,0
2.093,9.515,0
2.094,5.487,0
2.095,8.966,0
2.096,7.867,0
2.097,-5.317,0
2.098,-3.486,0
2.099,-1.838,0
2.1,5.67,0
2.101,4.388,0
2.102,0.909,0
2.103,-6.965,0
2.104,-9.894,0
2.105,-8.979,0
2.106,-6.598,0
2.107,1.824,0
2.108,2.923,0
2.109,-0.007,0
2.11,0.909,0
2.111,-1.471,0
2.112,-0.739,0
2.113,-4.035,0
2.114,1.641,0
2.115,2.374,0
2.116,-0.922,0
2.117,-1.471,0
2.118,2.374,0
2.119,4.754,0
2.12,-1.288,0
2.121,-6.965,0
2.122,-3.119,0
2.123,-2.57,0
2.124,1.824,0
2.125,-6.598,0
2.126,-0.556,0
2.127,-1.655,0
2.128,-0.739,0
2.129,11.346,0
2.13,6.402,0
2.131,-1.105,0
2.132,-5.134,0
2.133,-4.035,0
2.134,1.641,0
2.135,4.571,0
2.136,-0.007,0
2.137,-5.683,0
2.138,-7.88,0
2.139,-6.049,0
2.14,-7.88,0
2.141,-4.035,0
2.142,-6.049,0
2.143,-0.556,0
2.144,10.98,0
2.145,6.036,0
2.146,1.641,0
2.147,13.909,0
2.148,-1.105,0
2.149,-11.176,0
2.15,1.641,0
2.151,13.177,0
2.152,5.67,0
2.153,-1.105,0
2.154,-7.148,0
2.155,-6.049,0
2.156,-3.119,0
2.157,-2.204,0
2.158,-2.936,0
2.159,-0.739,0
2.16,-1.288,0
2.161,1.824,0
2.162,2.374,0
2.163,-0.007,0
2.164,1.275,0
2.165,-0.739,0
2.166,-4.95,0
2.167,0.177,0
2.168,3.472,0
2.169,5.303,0
2.17,8.05,0
2.171,4.754,0
2.172,1.641,0
2.173,0.543,0
2.174,6.219,0
2.175,-1.288,0
2.176,3.656,0
2.177,2.74,0
2.178,0.36,0
2.179,1.092,0
2.18,-5.134,0
2.181,0.543,0
2.182,2.74,0
2.183,2.191,0
2.184,-2.204,0
2.185,-4.95,0
2.186,-4.584,0
2.187,-3.302,0
2.188,2.923,0
2.189,13.177,0
2.19,17.205,0
2.191,11.163,0
2.192,5.487,0
2.193,1.275,0
2.194,4.205,0
2.195,5.12,0
2.196,-2.387,0
2.197,-1.471,0
2.198,12.445,0
2.199,6.402,0
2.2,-2.753,0
2.201,-4.401,0
2.202,-0.007,0
2.203,-1.288,0
2.204,-2.387,0
2.205,-3.486,0
2.206,-2.57,0
2.207,-1.655,0
2.208,-0.922,0
2.209,-3.119,0
2.21,-1.288,0
2.211,-1.838,0
2.212,-3.486,0
2.213,-3.119,0
2.214,-0.922,0
2.215,1.092,0
2.216,3.656,0
2.217,3.289,0
2.218,0.543,0
2.219,0.909,0
2.22,0.543,0
2.221,1.275,0
2.222,-2.936,0
2.223,-8.613,0
2.224,-6.415,0
2.225,-4.584,0
2.226,4.937,0
2.227,3.656,0
2.228,-4.767,0
2.229,-5.866,0
2.23,-4.95,0
2.231,-0.373,0
2.232,0.36,0
2.233,-1.838,0
2.234,-1.288,0
2.235,-0.739,0
2.236,-3.486,0
2.237,-3.852,0
2.238,-1.655,0
2.239,3.839,0
2.24,-0.007,0
2.241,-3.302,0
2.242,-5.134,0
2.243,3.289,0
2.244,5.67,0
2.245,11.712,0
2.246,21.966,0
2.247,17.938,0
2.248,21.417,0
2.249,6.585,0
2.25,-3.486,0
2.251,-1.655,0
2.252,6.585,0
2.253,10.98,0
2.254,1.458,0
2.255,-4.584,0
2.256,-3.486,0
2.257,-2.57,0
2.258,0.177,0
2.259,-7.331,0
2.26,-2.387,0
2.261,0.36,0
2.262,2.74,0
2.263,-5.683,0
2.264,-11.359,0
2.265,-10.444,0
2.266,-5.866,0
2.267,-3.486,0
2.268,0.36,0
2.269,0.909,0
2.27,-4.767,0
2.271,-8.613,0
2.272,1.641,0
2.273,9.149,0
2.274,7.867,0
2.275,4.388,0
2.276,1.092,0
2.277,-1.838,0
2.278,4.571,0
2.279,6.951,0
2.28,3.106,0
2.281,4.937,0
2.282,1.824,0
2.283,-4.401,0
2.284,-2.021,0
2.285,-1.288,0
2.286,-4.584,0
2.287,-2.753,0
2.288,-4.401,0
2.289,-3.119,0
2.29,-4.401,0
2.291,-3.302,0
2.292,-5.866,0
2.293,-1.105,0
2.294,-5.5,0
2.295,-1.655,0
2.296,-2.204,0
2.297,5.303,0
2.298,13.177,0
2.299,8.233,0
2.3,7.318,0
2.301,-0.19,0
2.302,0.726,0
2.303,3.472,0
2.304,4.205,0
2.305,0.36,0
2.306,-1.471,0
2.307,-3.302,0
2.308,-0.556,0
2.309,-1.838,0
2.31,-3.119,0
2.311,-4.218,0
2.312,-5.317,0
2.313,-3.486,0
2.314,-2.753,0
2.315,-0.922,0
2.316,-1.655,0
2.317,-0.19,0
2.318,1.275,0
2.319,-1.655,0
2.32,-0.556,0
2.321,-1.655,0
2.322,0.177,0
2.323,4.754,0
2.324,2.923,0
2.325,1.092,0
2.326,1.641,0
2.327,1.275,0
2.328,-1.838,0
2.329,-2.204,0
2.33,2.74,0
2.331,-0.556,0
2.332,-1.105,0
2.333,0.543,0
2.334,1.824,0
2.335,3.106,0
2.336,2.008,0
2.337,4.571,0
2.338,0.543,0
2.339,0.909,0
2.34,-2.204,0
2.341,-2.57,0
2.342,-1.471,0
2.343,-3.302,0
2.344,-0.007,0
2.345,1.275,0
2.346,-2.387,0
2.347,-3.486,0
2.348,-4.584,0
2.349,0.909,0
2.35,3.106,0
2.351,13.36,0
2.352,5.853,0
2.353,9.881,0
2.354,3.839,0
2.355,-1.838,0
2.356,-2.753,0
2.357,-5.5,0
2.358,-4.767,0
2.359,5.303,0
2.36,-1.471,0
2.361,-2.57,0
2.362,-3.669,0
2.363,1.275,0
2.364,2.191,0
2.365,-0.19,0
2.366,2.008,0
2.367,0.177,0
2.368,3.289,0
2.369,-5.134,0
2.37,-13.556,0
2.371,-7.88,0
2.372,-6.965,0
2.373,-6.049,0
2.374,-6.781,0
2.375,-4.584,0
2.376,5.67,0
2.377,13.177,0
2.378,9.149,0
2.379,3.106,0
2.38,4.205,0
2.381,-2.753,0
2.382,1.824,0
2.383,-0.556,0
2.384,3.289,0
2.385,9.515,0
2.386,7.135,0
2.387,0.177,0
2.388,2.923,0
2.389,-1.105,0
2.39,-0.373,0
2.391,-0.922,0
2.392,-2.753,0
2.393,-6.598,0
2.394,-4.218,0
2.395,-5.5,0
2.396,0.726,0
2.397,2.008,0
2.398,6.585,0
2.399,19.036,0
2.4,20.867,0
2.401,12.628,0
2.402,5.12,0
2.403,1.092,0
2.404,-2.387,0
2.405,-3.486,0
2.406,1.458,0
2.407,0.543,0
2.408,1.275,0
2.409,2.008,0
2.41,-6.965,0
2.411,-3.486,0
2.412,-6.781,0
2.413,-5.866,0
2.414,-3.119,0
2.415,-3.852,0
2.416,-6.049,0
2.417,-2.753,0
2.418,-2.204,0
2.419,-1.655,0
2.42,2.923,0
2.421,-1.471,0
2.422,2.374,0
2.423,3.656,0
2.424,-1.471,0
2.425,0.36,0
2.426,-1.471,0
2.427,1.275,0
2.428,1.641,0
2.429,3.839,0
2.43,3.472,0
2.431,4.571,0
2.432,1.275,0
2.433,0.177,0
2.434,2.008,0
2.435,7.501,0
2.436,-4.035,0
2.437,0.909,0
2.438,2.374,0
2.439,3.656,0
2.44,4.754,0
2.441,5.853,0
2.442,4.937,0
2.443,0.36,0
2.444,-5.317,0
2.445,-4.584,0
2.446,-0.007,0
2.447,-0.556,0
2.448,-4.584,0
2.449,-4.035,0
2.45,3.472,0
2.451,-6.781,0
2.452,10.98,0
2.453,-1.105,0
2.454,-3.302,0
2.455,2.74,0
2.456,4.571,0
2.457,2.923,0
2.458,4.388,0
2.459,3.106,0
2.46,-0.373,0
2.461,-1.471,0
2.462,-2.387,0
2.463,-6.965,0
2.464,-7.697,0
2.465,-5.5,0
2.466,-2.204,0
2.467,2.191,0
2.468,-0.556,0
2.469,-0.19,0
2.47,1.092,0
2.471,0.726,0
2.472,-0.373,0
2.473,-1.471,0
2.474,-4.767,0
2.475,-2.57,0
2.476,2.008,0
2.477,-1.105,0
2.478,-4.95,0
2.479,-6.232,0
2.48,-2.021,0
2.481,1.824,0
2.482,7.318,0
2.483,0.36,0
2.484,1.275,0
2.485,2.008,0
2.486,2.74,0
2.487,2.191,0
2.488,-0.922,0
2.489,1.824,0
2.49,3.106,0
2.491,3.472,0
2.492,-2.753,0
2.493,-3.669,0
2.494,-4.401,0
2.495,-3.669,0
2.496,-3.119,0
2.497,-1.288,0
2.498,2.557,0
2.499,2.74,0
2.5,2.374,0
2.501,7.501,0
2.502,2.923,0
2.503,12.445,0
2.504,8.416,0
2.505,7.318,0
2.506,-0.556,0
2.507,0.36,0
2.508,1.275,0
2.509,12.078,0
2.51,1.641,0
2.511,2.923,0
2.512,1.824,0
2.513,-1.471,0
2.514,1.458,0
2.515,-3.119,0
2.516,-3.852,0
2.517,-1.655,0
2.518,-7.88,0
2.519,-10.26,0
2.52,-14.106,0
2.521,-13.556,0
2.522,-6.598,0
2.523,-0.19,0
2.524,0.543,0
2.525,2.74,0
2.526,8.966,0
2.527,9.698,0
2.528,8.966,0
2.529,4.388,0
2.53,3.839,0
2.531,-2.387,0
2.532,-1.655,0
2.533,-3.852,0
2.534,0.726,0
2.535,-4.95,0
2.536,2.008,0
2.537,6.585,0
2.538,0.909,0
2.539,3.106,0
2.54,1.275,0
2.541,4.388,0
2.542,8.233,0
2.543,4.937,0
2.544,6.219,0
2.545,8.233,0
2.546,5.67,0
2.547,8.233,0
2.548,5.487,0
2.549,8.05,0
2.55,0.543,0
2.551,-1.288,0
2.552,3.289,0
2.553,1.458,0
2.554,3.289,0
2.555,11.712,0
2.556,8.233,0
2.557,0.36,0
2.558,-0.556,0
2.559,4.022,0
2.56,-1.655,0
2.561,-8.613,0
2.562,-2.204,0
2.563,-7.88,0
2.564,-7.148,0
2.565,-6.598,0
2.566,-6.049,0
2.567,-5.5,0
2.568,-5.134,0
2.569,-2.021,0
2.57,3.472,0
2.571,-4.95,0
2.572,0.726,0
2.573,1.641,0
2.574,2.557,0
2.575,-3.119,0
2.576,-2.387,0
2.577,-2.936,0
2.578,-6.049,0
2.579,-5.5,0
2.58,-4.218,0
2.581,-2.936,0
2.582,-0.19,0
2.583,-3.669,0
2.584,-3.302,0
2.585,-2.936,0
2.586,-1.105,0
2.587,2.923,0
2.588,10.43,0
2.589,4.754,0
2.59,5.67,0
2.591,-2.753,0
2.592,-3.852,0
2.593,5.303,0
2.594,6.402,0
2.595,9.698,0
2.596,2.74,0
2.597,1.824,0
2.598,9.332,0
2.599,4.388,0
2.6,1.641,0
2.601,-4.584,0
2.602,2.923,0
2.603,14.093,0
2.604,0.543,0
2.605,-8.613,0
2.606,6.402,0
2.607,-3.669,0
2.608,-1.838,0
2.609,-3.486,0
2.61,-7.88,0
2.611,-6.598,0
2.612,-5.5,0
2.613,4.754,0
2.614,6.036,0
2.615,4.937,0
2.616,3.839,0
2.617,-1.105,0
2.618,-0.19,0
2.619,2.191,0
2.62,-0.007,0
2.621,-3.302,0
2.622,1.092,0
2.623,-1.655,0
2.624,-4.95,0
2.625,-2.753,0
2.626,-3.852,0
2.627,-1.288,0
2.628,-3.119,0
2.629,-2.387,0
2.63,-3.669,0
2.631,-3.852,0
2.632,-0.373,0
2.633,6.219,0
2.634,7.135,0
2.635,11.163,0
2.636,15.008,0
2.637,13.177,0
2.638,17.572,0
2.639,23.797,0
2.64,31.304,0
2.641,26.361,0
2.642,29.107,0
2.643,25.079,0
2.644,18.121,0
2.645,11.712,0
2.646,9.332,0
2.647,20.867,0
2.648,22.515,0
2.649,-0.007,0
2.65,-16.12,0
2.651,-36.811,0
2.652,-41.938,0
2.653,-55.304,0
2.654,-48.163,0
2.655,-59.15,0
2.656,-53.107,0
2.657,-47.614,0
2.658,-49.262,0
2.659,-29.67,0
2.66,-32.233,0
2.661,-63.91,0
2.662,-76.728,0
2.663,-96.32,0
2.664,-128.55,0
2.665,-167.55,0
2.666,-172.68,0
2.667,-177.44,0
2.668,-164.62,0
2.669,-160.77,0
2.67,-157.29,0
2.671,-128,0
2.672,-92.475,0
2.673,-20.881,0
2.674,112.6,0
2.675,167.17,0
2.676,216.79,0
2.677,201.78,0
2.678,215.32,0
2.679,202.87,0
2.68,169.18,0
2.681,138.42,0
2.682,110.41,0
2.683,85.137,0
2.684,108.21,0
2.685,115.17,0
2.686,134.03,0
2.687,139.7,0
2.688,155.27,0
2.689,150.51,0
2.69,146.29,0
2.691,134.58,0
2.692,116.81,0
2.693,107.29,0
2.694,92.462,0
2.695,84.588,0
2.696,48.15,0
2.697,21.966,0
2.698,7.684,0
2.699,3.472,0
2.7,7.318,0
2.701,3.839,0
2.702,0.726,0
2.703,-16.303,0
2.704,-31.135,0
2.705,-17.768,0
2.706,-44.501,0
2.707,-47.98,0
2.708,-51.093,0
2.709,-59.882,0
2.71,-62.446,0
2.711,-69.587,0
2.712,-80.573,0
2.713,-82.587,0
2.714,-84.418,0
2.715,-76.178,0
2.716,-68.671,0
2.717,-75.446,0
2.718,-76.545,0
2.719,-73.249,0
2.72,-74.164,0
2.721,-75.08,0
2.722,-71.052,0
2.723,-65.741,0
2.724,-61.164,0
2.725,-52.924,0
2.726,-49.628,0
2.727,-54.572,0
2.728,-48.163,0
2.729,-35.712,0
2.73,-33.881,0
2.731,-35.529,0
2.732,-34.064,0
2.733,-30.036,0
2.734,-13.923,0
2.735,-11.725,0
2.736,-9.711,0
2.737,-7.88,0
2.738,0.36,0
2.739,-4.035,0
2.74,-0.007,0
2.741,3.472,0
2.742,0.177,0
2.743,1.092,0
2.744,5.67,0
2.745,6.402,0
2.746,8.599,0
2.747,6.768,0
2.748,8.599,0
2.749,10.247,0
2.75,12.628,0
2.751,10.43,0
2.752,13.177,0
2.753,18.121,0
2.754,21.051,0
2.755,17.755,0
2.756,27.276,0
2.757,15.008,0
2.758,10.064,0
2.759,26.544,0
2.76,15.557,0
2.761,9.515,0
2.762,7.684,0
2.763,2.74,0
2.764,4.205,0
2.765,10.98,0
2.766,9.881,0
2.767,13.177,0
2.768,10.247,0
2.769,5.67,0
2.77,6.402,0
2.771,4.205,0
2.772,8.782,0
2.773,11.895,0
2.774,8.05,0
2.775,7.684,0
2.776,8.966,0
2.777,6.951,0
2.778,2.74,0
2.779,11.163,0
2.78,5.12,0
2.781,4.022,0
2.782,4.937,0
2.783,5.853,0
2.784,11.529,0
2.785,6.219,0
2.786,1.641,0
2.787,9.881,0
2.788,4.205,0
2.789,-4.95,0
2.79,-1.471,0
2.791,-0.373,0
2.792,0.543,0
2.793,3.289,0
2.794,4.022,0
2.795,4.754,0
2.796,2.923,0
2.797,6.036,0
2.798,6.585,0
2.799,3.289,0
2.8,-2.753,0
2.801,1.275,0
2.802,3.472,0
2.803,6.768,0
2.804,3.656,0
2.805,1.275,0
2.806,-2.57,0
2.807,4.022,0
2.808,1.275,0
2.809,-2.753,0
2.81,4.205,0
2.811,10.614,0
2.812,-1.838,0
2.813,-0.007,0
2.814,-8.246,0
2.815,2.191,0
2.816,6.219,0
2.817,0.177,0
2.818,1.275,0
2.819,10.43,0
2.82,2.008,0
2.821,3.106,0
2.822,-3.852,0
2.823,-1.105,0
2.824,-0.373,0
2.825,3.472,0
2.826,0.177,0
2.827,4.571,0
2.828,-2.753,0
2.829,-7.697,0
2.83,-8.613,0
2.831,-4.584,0
2.832,-9.894,0
2.833,-10.444,0
2.834,-3.486,0
2.835,-0.739,0
2.836,4.937,0
2.837,5.67,0
2.838,1.092,0
2.839,0.543,0
2.84,-2.204,0
2.841,1.092,0
2.842,7.135,0
2.843,1.458,0
2.844,-0.739,0
2.845,2.557,0
2.846,4.388,0
2.847,6.036,0
2.848,-1.471,0
2.849,-4.767,0
2.85,0.177,0
2.851,-4.401,0
2.852,-2.021,0
2.853,1.824,0
2.854,-0.007,0
2.855,-0.556,0
2.856,4.205,0
2.857,1.458,0
2.858,8.966,0
2.859,5.67,0
2.86,10.614,0
2.861,9.698,0
2.862,-2.753,0
2.863,-4.584,0
2.864,-2.936,0
2.865,-7.331,0
2.866,-6.049,0
2.867,-7.148,0
2.868,-3.852,0
2.869,-2.936,0
2.87,-3.852,0
2.871,-3.119,0
2.872,-5.317,0
2.873,-0.739,0
2.874,-2.57,0
2.875,-2.021,0
2.876,-0.739,0
2.877,-1.105,0
2.878,-6.598,0
2.879,-11.908,0
2.88,-7.331,0
2.881,-0.373,0
2.882,4.205,0
2.883,3.472,0
2.884,-0.373,0
2.885,0.177,0
2.886,-0.373,0
2.887,2.374,0
2.888,2.74,0
2.889,6.951,0
2.89,0.726,0
2.891,-0.007,0
2.892,8.416,0
2.893,5.12,0
2.894,0.177,0
2.895,-2.57,0
2.896,-1.838,0
2.897,-4.035,0
2.898,-5.866,0
2.899,-2.753,0
2.9,-0.007,0
2.901,-1.288,0
2.902,0.909,0
2.903,3.656,0
2.904,2.557,0
2.905,-1.471,0
2.906,0.909,0
2.907,0.543,0
2.908,-2.57,0
2.909,3.656,0
2.91,4.571,0
2.911,2.191,0
2.912,-3.119,0
2.913,7.135,0
2.914,-0.373,0
2.915,-1.655,0
2.916,-0.556,0
2.917,-1.655,0
2.918,-2.57,0
2.919,2.008,0
2.92,7.684,0
2.921,6.951,0
2.922,3.656,0
2.923,3.106,0
2.924,0.36,0
2.925,1.641,0
2.926,8.599,0
2.927,5.67,0
2.928,-4.584,0
2.929,-0.556,0
2.93,-1.655,0
2.931,-0.556,0
2.932,-1.471,0
2.933,-0.556,0
2.934,-4.584,0
2.935,-0.739,0
2.936,6.768,0
2.937,3.839,0
2.938,1.092,0
2.939,-1.288,0
2.94,-2.021,0
2.941,-1.471,0
2.942,-2.021,0
2.943,-0.373,0
2.944,-2.753,0
2.945,-4.95,0
2.946,-3.852,0
2.947,1.092,0
2.948,-5.134,0
2.949,5.67,0
2.95,13.177,0
2.951,6.402,0
2.952,-2.021,0
2.953,1.275,0
2.954,2.191,0
2.955,-0.556,0
2.956,1.824,0
2.957,-3.486,0
2.958,-0.922,0
2.959,-0.373,0
2.96,9.149,0
2.961,5.12,0
2.962,4.022,0
2.963,0.726,0
2.964,-6.232,0
2.965,-5.317,0
2.966,7.135,0
2.967,1.641,0
2.968,-3.302,0
2.969,-1.838,0
2.97,-0.556,0
2.971,-1.655,0
2.972,-2.753,0
2.973,-1.838,0
2.974,-2.753,0
2.975,-3.486,0
2.976,-2.753,0
2.977,1.824,0
2.978,-0.007,0
2.979,-1.655,0
2.98,-6.232,0
2.981,-5.683,0
2.982,0.543,0
2.983,1.275,0
2.984,-2.57,0
2.985,-0.739,0
2.986,-1.288,0
2.987,-2.936,0
2.988,-0.556,0
2.989,-0.922,0
2.99,3.656,0
2.991,1.824,0
2.992,1.275,0
2.993,1.641,0
2.994,-0.556,0
2.995,-3.302,0
2.996,-2.204,0
2.997,-2.57,0
2.998,-0.556,0
2.999,-0.739,0
3,-2.57,0
3.001,-1.105,0
3.002,-0.007,0
3.003,-0.19,0
3.004,-2.936,0
3.005,2.74,0
3.006,0.36,0
3.007,4.205,0
3.008,14.459,0
3.009,9.332,0
3.01,4.937,0
3.011,8.966,0
3.012,2.923,0
3.013,-0.373,0
3.014,8.782,0
3.015,5.303,0
3.016,-7.148,0
3.017,-5.5,0
3.018,-4.035,0
3.019,-0.007,0
3.02,-3.486,0
3.021,-2.387,0
3.022,0.543,0
3.023,3.289,0
3.024,-2.387,0
3.025,-3.119,0
3.026,-4.95,0
3.027,-3.119,0
3.028,-5.866,0
3.029,-2.57,0
3.03,-5.683,0
3.031,-4.584,0
3.032,-2.021,0
3.033,-0.922,0
3.034,-4.218,0
3.035,-1.105,0
3.036,4.388,0
3.037,6.585,0
3.038,2.008,0
3.039,2.557,0
3.04,0.909,0
3.041,2.191,0
3.042,0.909,0
3.043,-1.838,0
3.044,-2.204,0
3.045,-2.57,0
3.046,-4.584,0
3.047,-0.922,0
3.048,4.571,0
3.049,0.726,0
3.05,2.557,0
3.051,-0.556,0
3.052,-2.204,0
3.053,-2.57,0
3.054,-1.288,0
3.055,4.205,0
3.056,-1.105,0
3.057,-1.655,0
3.058,-4.767,0
3.059,-2.021,0
3.06,-1.655,0
3.061,0.726,0
3.062,3.839,0
3.063,9.332,0
3.064,11.529,0
3.065,4.022,0
3.066,1.092,0
3.067,-1.655,0
3.068,-0.922,0
3.069,7.501,0
3.07,-0.373,0
3.071,-3.302,0
3.072,-0.556,0
3.073,-4.584,0
3.074,-5.317,0
3.075,-4.767,0
3.076,-2.936,0
3.077,0.909,0
3.078,2.191,0
3.079,1.824,0
3.08,-2.753,0
3.081,-3.302,0
3.082,0.543,0
3.083,1.824,0
3.084,-4.218,0
3.085,-4.95,0
3.086,0.36,0
3.087,3.656,0
3.088,4.205,0
3.089,1.458,0
3.09,-5.134,0
3.091,-6.049,0
3.092,-2.021,0
3.093,3.289,0
3.094,6.585,0
3.095,6.036,0
3.096,3.289,0
3.097,-0.007,0
3.098,-5.134,0
3.099,-0.556,0
3.1,-0.007,0
3.101,1.641,0
3.102,2.008,0
3.103,4.205,0
3.104,0.36,0
3.105,-2.021,0
3.106,-1.655,0
3.107,-5.5,0
3.108,2.008,0
3.109,-1.288,0
3.11,-2.204,0
3.111,9.332,0
3.112,8.416,0
3.113,7.684,0
3.114,2.374,0
3.115,2.923,0
3.116,7.318,0
3.117,2.191,0
3.118,-1.105,0
3.119,-4.218,0
3.12,-3.669,0
3.121,-4.035,0
3.122,2.923,0
3.123,5.853,0
3.124,1.275,0
3.125,0.543,0
3.126,2.74,0
3.127,0.909,0
3.128,0.36,0
3.129,-4.767,0
3.13,-6.598,0
3.131,-3.486,0
3.132,-6.232,0
3.133,-1.655,0
3.134,4.022,0
3.135,0.177,0
3.136,-0.373,0
3.137,0.177,0
3.138,0.726,0
3.139,3.106,0
3.14,-3.852,0
3.141,1.092,0
3.142,3.839,0
3.143,3.106,0
3.144,2.374,0
3.145,-2.204,0
3.146,-6.598,0
3.147,-8.246,0
3.148,-2.753,0
3.149,-6.598,0
3.15,-8.429,0
3.151,1.092,0
3.152,5.12,0
3.153,-0.922,0
3.154,2.374,0
3.155,-0.556,0
3.156,-6.965,0
3.157,2.191,0
3.158,-1.288,0
3.159,4.388,0
3.16,3.472,0
3.161,0.726,0
3.162,-3.119,0
3.163,-2.387,0
3.164,-1.655,0
3.165,-6.232,0
3.166,-5.683,0
3.167,-6.232,0
3.168,1.275,0
3.169,9.149,0
3.17,12.078,0
3.171,3.656,0
3.172,11.529,0
3.173,2.374,0
3.174,-3.669,0
3.175,-4.767,0
3.176,10.43,0
3.177,8.233,0
3.178,10.247,0
3.179,8.416,0
3.18,3.472,0
3.181,-4.035,0
3.182,-8.063,0
3.183,8.05,0
3.184,10.247,0
3.185,0.177,0
3.186,2.008,0
3.187,0.36,0
3.188,-1.105,0
3.189,0.177,0
3.19,-3.302,0
3.191,-2.204,0
3.192,0.726,0
3.193,-0.19,0
3.194,2.191,0
3.195,6.036,0
3.196,-0.19,0
3.197,-4.218,0
3.198,-4.95,0
3.199,-4.401,0
3.2,-4.95,0
3.201,-6.598,0
3.202,-4.218,0
3.203,-2.021,0
3.204,-0.007,0
3.205,-2.57,0
3.206,-2.204,0
3.207,-5.5,0
3.208,-3.302,0
3.209,0.543,0
3.21,8.05,0
3.211,4.754,0
3.212,-2.204,0
3.213,-5.317,0
3.214,-8.063,0
3.215,4.388,0
3.216,17.205,0
3.217,18.853,0
3.218,17.388,0
3.219,10.614,0
3.22,-0.556,0
3.221,-4.95,0
3.222,-3.669,0
3.223,2.374,0
3.224,5.67,0
3.225,-5.5,0
3.226,-13.007,0
3.227,-11.725,0
3.228,-0.556,0
3.229,-4.95,0
3.23,-3.669,0
3.231,-0.19,0
3.232,10.064,0
3.233,8.782,0
3.234,0.36,0
3.235,1.458,0
3.236,2.374,0
3.237,3.289,0
3.238,0.909,0
3.239,-1.288,0
3.24,-5.866,0
3.241,-6.415,0
3.242,-9.162,0
3.243,-1.655,0
3.244,1.641,0
3.245,2.557,0
3.246,-0.19,0
3.247,-0.922,0
3.248,-7.88,0
3.249,-8.796,0
3.25,-3.119,0
3.251,-0.922,0
3.252,6.585,0
3.253,3.656,0
3.254,-0.922,0
3.255,3.106,0
3.256,2.374,0
3.257,1.824,0
3.258,2.374,0
3.259,1.824,0
3.26,-2.753,0
3.261,0.36,0
3.262,5.487,0
3.263,-3.486,0
3.264,-1.655,0
3.265,-2.753,0
3.266,9.698,0
3.267,-5.317,0
3.268,-3.302,0
3.269,5.853,0
3.27,14.093,0
3.271,9.698,0
3.272,-2.57,0
3.273,-0.922,0
3.274,-2.387,0
3.275,-1.105,0
3.276,10.064,0
3.277,5.67,0
3.278,12.445,0
3.279,13.543,0
3.28,14.642,0
3.281,1.458,0
3.282,-0.373,0
3.283,4.571,0
3.284,0.177,0
3.285,-3.852,0
3.286,-2.753,0
3.287,-10.627,0
3.288,-3.669,0
3.289,-4.584,0
3.29,-2.204,0
3.291,-1.471,0
3.292,1.824,0
3.293,-3.852,0
3.294,-6.049,0
3.295,-2.753,0
3.296,-9.711,0
3.297,-5.134,0
3.298,-1.105,0
3.299,-0.373,0
3.3,1.458,0
3.301,-2.936,0
3.302,-3.486,0
3.303,-4.767,0
3.304,-3.486,0
3.305,-3.119,0
3.306,2.557,0
3.307,4.937,0
3.308,11.895,0
3.309,3.472,0
3.31,0.177,0
3.311,-0.739,0
3.312,0.177,0
3.313,4.205,0
3.314,0.36,0
3.315,-8.246,0
3.316,-2.021,0
3.317,2.008,0
3.318,2.74,0
3.319,0.909,0
3.32,6.585,0
3.321,1.275,0
3.322,-4.95,0
3.323,7.501,0
3.324,5.67,0
3.325,0.726,0
3.326,-6.781,0
3.327,-5.5,0
3.328,-6.598,0
3.329,-9.894,0
3.33,-2.936,0
3.331,3.472,0
3.332,5.853,0
3.333,6.585,0
3.334,3.289,0
3.335,0.177,0
3.336,-3.669,0
3.337,-4.035,0
3.338,-1.838,0
3.339,-4.584,0
3.34,-2.021,0
3.341,-3.119,0
3.342,1.458,0
3.343,8.966,0
3.344,2.008,0
3.345,-2.57,0
3.346,-10.077,0
3.347,-5.134,0
3.348,-6.049,0
3.349,-3.669,0
3.35,0.177,0
3.351,3.472,0
3.352,5.303,0
3.353,1.458,0
3.354,-1.838,0
3.355,1.275,0
3.356,-4.95,0
3.357,-2.204,0
3.358,-1.471,0
3.359,-3.669,0
3.36,-1.838,0
3.361,1.275,0
3.362,0.726,0
3.363,-2.57,0
3.364,-3.852,0
3.365,-3.486,0
3.366,-2.387,0
3.367,1.824,0
3.368,10.247,0
3.369,23.797,0
3.37,40.277,0
3.371,33.685,0
3.372,43.756,0
3.373,41.925,0
3.374,33.685,0
3.375,23.248,0
3.376,21.966,0
3.377,15.924,0
3.378,10.247,0
3.379,3.289,0
3.38,0.543,0
3.381,-11.908,0
3.382,-21.064,0
3.383,-32.599,0
3.384,-40.107,0
3.385,-52.375,0
3.386,-54.023,0
3.387,-49.628,0
3.388,-42.853,0
3.389,-29.303,0
3.39,-27.472,0
3.391,-25.824,0
3.392,-36.261,0
3.393,-56.769,0
3.394,-71.601,0
3.395,-101.08,0
3.396,-136.6,0
3.397,-160.41,0
3.398,-164.62,0
3.399,-168.46,0
3.4,-157.84,0
3.401,-154.73,0
3.402,-157.66,0
3.403,-122.69,0
3.404,-79.657,0
3.405,6.951,0
3.406,119.01,0
3.407,164.06,0
3.408,177.61,0
3.409,190.06,0
3.41,178.89,0
3.411,148.13,0
3.412,120.11,0
3.413,94.842,0
3.414,87.152,0
3.415,94.11,0
3.416,112.97,0
3.417,149.96,0
3.418,155.63,0
3.419,160.76,0
3.42,146.48,0
3.421,133.66,0
3.422,121.94,0
3.423,125.42,0
3.424,128.53,0
3.425,137.32,0
3.426,113.15,0
3.427,64.447,0
3.428,29.473,0
3.429,23.248,0
3.43,28.924,0
3.431,13.36,0
3.432,-0.922,0
3.433,-5.134,0
3.434,-16.852,0
3.435,-27.472,0
3.436,-36.994,0
3.437,-34.064,0
3.438,-36.628,0
3.439,-53.473,0
3.44,-55.671,0
3.441,-69.77,0
3.442,-71.601,0
3.443,-66.657,0
3.444,-71.052,0
3.445,-67.023,0
3.446,-75.446,0
3.447,-72.15,0
3.448,-75.08,0
3.449,-75.995,0
3.45,-78.376,0
3.451,-79.108,0
3.452,-75.812,0
3.453,-73.981,0
3.454,-66.657,0
3.455,-67.573,0
3.456,-62.995,0
3.457,-53.84,0
3.458,-45.417,0
3.459,-39.74,0
3.46,-32.782,0
3.461,-33.698,0
3.462,-28.022,0
3.463,-16.486,0
3.464,-11.542,0
3.465,-21.979,0
3.466,-15.204,0
3.467,-14.106,0
3.468,-8.979,0
3.469,-1.105,0
3.47,14.093,0
3.471,20.684,0
3.472,10.614,0
3.473,5.12,0
3.474,6.768,0
3.475,2.374,0
3.476,3.656,0
3.477,4.754,0
3.478,3.656,0
3.479,2.74,0
3.48,3.656,0
3.481,2.923,0
3.482,5.12,0
3.483,5.67,0
3.484,8.782,0
3.485,12.628,0
3.486,9.332,0
3.487,8.05,0
3.488,7.684,0
3.489,10.247,0
3.49,9.881,0
3.491,13.909,0
3.492,14.459,0
3.493,8.966,0
3.494,11.163,0
3.495,9.332,0
3.496,12.445,0
3.497,14.093,0
3.498,17.388,0
3.499,13.177,0
3.5,12.628,0
3.501,9.332,0
3.502,6.219,0
3.503,2.374,0
3.504,-0.007,0
3.505,1.275,0
3.506,3.289,0
3.507,8.966,0
3.508,12.994,0
3.509,4.571,0
3.51,1.275,0
3.511,6.219,0
3.512,-0.19,0
3.513,5.487,0
3.514,10.797,0
3.515,11.346,0
3.516,1.824,0
3.517,-4.95,0
3.518,-6.049,0
3.519,-3.119,0
3.52,-4.218,0
3.521,10.98,0
3.522,4.388,0
3.523,18.487,0
3.524,20.318,0
3.525,8.782,0
3.526,4.388,0
3.527,3.106,0
3.528,4.205,0
3.529,-1.471,0
3.53,-4.401,0
3.531,-8.979,0
3.532,-3.302,0
3.533,-4.035,0
3.534,2.191,0
3.535,7.867,0
3.536,2.557,0
3.537,-0.739,0
3.538,-1.288,0
3.539,-0.739,0
3.54,-2.021,0
3.541,-1.655,0
3.542,1.092,0
3.543,-3.852,0
3.544,2.374,0
3.545,6.402,0
3.546,-0.556,0
3.547,-1.471,0
3.548,-2.204,0
3.549,-2.936,0
3.55,-1.105,0
3.551,0.726,0
3.552,-2.021,0
3.553,-0.739,0
3.554,-2.021,0
3.555,-0.922,0
3.556,4.754,0
3.557,-0.922,0
3.558,1.275,0
3.559,0.726,0
3.56,-4.95,0
3.561,-7.148,0
3.562,-5.317,0
3.563,4.205,0
3.564,2.923,0
3.565,-0.556,0
3.566,0.543,0
3.567,5.487,0
3.568,10.064,0
3.569,4.388,0
3.57,-2.387,0
3.571,-1.655,0
3.572,8.599,0
3.573,7.135,0
3.574,8.416,0
3.575,21.966,0
3.576,16.473,0
3.577,4.937,0
3.578,-5.5,0
3.579,-4.218,0
3.58,-5.317,0
3.581,-8.613,0
3.582,-5.683,0
3.583,-4.767,0
3.584,-0.739,0
3.585,-0.007,0
3.586,-6.232,0
3.587,-10.26,0
3.588,-4.95,0
3.589,-3.119,0
3.59,-1.288,0
3.591,-6.415,0
3.592,-8.246,0
3.593,-7.697,0
3.594,-7.148,0
3.595,-2.57,0
3.596,-2.021,0
3.597,-0.373,0
3.598,-0.739,0
3.599,0.543,0
3.6,-1.471,0
3.601,-3.302,0
3.602,1.458,0
3.603,3.289,0
3.604,3.839,0
3.605,7.135,0
3.606,4.022,0
3.607,2.008,0
3.608,-0.556,0
3.609,-0.19,0
3.61,-2.936,0
3.611,-3.302,0
3.612,-0.739,0
3.613,2.008,0
3.614,-0.556,0
3.615,-0.922,0
3.616,0.543,0
3.617,1.824,0
3.618,-2.204,0
3.619,-6.049,0
3.62,-7.331,0
3.621,-10.444,0
3.622,-7.331,0
3.623,-1.105,0
3.624,10.98,0
3.625,9.332,0
3.626,10.797,0
3.627,20.318,0
3.628,9.149,0
3.629,4.754,0
3.63,0.726,0
3.631,1.824,0
3.632,-1.471,0
3.633,-0.556,0
3.634,-5.134,0
3.635,-1.105,0
3.636,-4.95,0
3.637,-9.528,0
3.638,-5.134,0
3.639,-2.387,0
3.64,5.12,0
3.641,8.416,0
3.642,5.487,0
3.643,0.909,0
3.644,-1.471,0
3.645,-2.204,0
3.646,-1.655,0
3.647,-3.486,0
3.648,1.641,0
3.649,6.219,0
3.65,4.388,0
3.651,3.839,0
3.652,7.135,0
3.653,2.923,0
3.654,2.374,0
3.655,4.754,0
3.656,0.543,0
3.657,-0.007,0
3.658,-1.288,0
3.659,0.909,0
3.66,4.754,0
3.661,6.036,0
3.662,8.233,0
3.663,3.656,0
3.664,-0.739,0
3.665,-9.162,0
3.666,-0.739,0
3.667,-4.035,0
3.668,-6.965,0
3.669,-6.049,0
3.67,-5.317,0
3.671,3.106,0
3.672,6.402,0
3.673,3.106,0
3.674,8.05,0
3.675,-5.866,0
3.676,8.233,0
3.677,-0.922,0
3.678,-5.866,0
3.679,-1.471,0
3.68,-0.19,0
3.681,-1.288,0
3.682,-0.19,0
3.683,-1.105,0
3.684,-5.683,0
3.685,-6.415,0
3.686,-5.683,0
3.687,-5.134,0
3.688,-6.965,0
3.689,-6.415,0
3.69,-4.035,0
3.691,-3.669,0
3.692,-4.767,0
3.693,0.909,0
3.694,6.585,0
3.695,-1.838,0
3.696,-0.739,0
3.697,-5.683,0
3.698,0.726,0
3.699,6.402,0
3.7,4.205,0
3.701,3.656,0
3.702,10.614,0
3.703,4.205,0
3.704,0.177,0
3.705,-3.669,0
3.706,-3.119,0
3.707,-4.95,0
3.708,-4.401,0
3.709,-5.683,0
3.71,1.275,0
3.711,2.191,0
3.712,1.275,0
3.713,0.543,0
3.714,-3.302,0
3.715,-2.753,0
3.716,-0.922,0
3.717,-2.57,0
3.718,-4.95,0
3.719,1.092,0
3.72,1.824,0
3.721,2.557,0
3.722,-2.021,0
3.723,-0.19,0
3.724,-3.302,0
3.725,5.12,0
3.726,13.543,0
3.727,19.219,0
3.728,12.261,0
3.729,7.684,0
3.73,2.008,0
3.731,-0.19,0
3.732,-2.021,0
3.733,-2.57,0
3.734,-3.119,0
3.735,-2.753,0
3.736,-1.471,0
3.737,-0.373,0
3.738,1.458,0
3.739,-1.838,0
3.74,-0.739,0
3.741,-4.218,0
3.742,2.74,0
3.743,3.656,0
3.744,-0.922,0
3.745,-1.655,0
3.746,-0.922,0
3.747,-5.5,0
3.748,-4.95,0
3.749,-3.302,0
3.75,-2.936,0
3.751,-0.739,0
3.752,3.839,0
3.753,-0.556,0
3.754,2.191,0
3.755,1.824,0
3.756,1.458,0
3.757,6.036,0
3.758,9.149,0
3.759,0.726,0
3.76,-2.753,0
3.761,-1.655,0
3.762,-0.739,0
3.763,-1.655,0
3.764,0.726,0
3.765,-1.471,0
3.766,-3.302,0
3.767,-0.19,0
3.768,-2.936,0
3.769,0.36,0
3.77,1.641,0
3.771,-4.584,0
3.772,-9.162,0
3.773,-1.655,0
3.774,-0.922,0
3.775,6.036,0
3.776,14.459,0
3.777,2.008,0
3.778,3.656,0
3.779,-3.852,0
3.78,11.163,0
3.781,1.092,0
3.782,-8.063,0
3.783,-3.119,0
3.784,1.275,0
3.785,-2.753,0
3.786,-3.852,0
3.787,-0.556,0
3.788,0.36,0
3.789,-2.387,0
3.79,-1.655,0
3.791,-3.852,0
3.792,-3.302,0
3.793,-1.471,0
3.794,0.177,0
3.795,1.458,0
3.796,0.177,0
3.797,-2.57,0
3.798,2.374,0
3.799,-2.204,0
3.8,-6.598,0
3.801,-0.373,0
3.802,-1.105,0
3.803,1.092,0
3.804,4.388,0
3.805,8.782,0
3.806,3.656,0
3.807,3.106,0
3.808,3.656,0
3.809,-0.19,0
3.81,3.106,0
3.811,-2.021,0
3.812,-0.19,0
3.813,-3.302,0
3.814,0.543,0
3.815,-1.838,0
3.816,-2.204,0
3.817,-1.838,0
3.818,0.726,0
3.819,2.557,0
3.82,2.74,0
3.821,2.923,0
3.822,0.543,0
3.823,-0.922,0
3.824,0.909,0
3.825,-1.655,0
3.826,-0.922,0
3.827,2.557,0
3.828,2.923,0
3.829,-4.035,0
3.83,7.135,0
3.831,5.67,0
3.832,-1.105,0
3.833,-2.204,0
3.834,-5.5,0
3.835,-0.556,0
3.836,0.36,0
3.837,-0.373,0
3.838,3.472,0
3.839,1.641,0
3.84,1.092,0
3.841,1.641,0
3.842,1.275,0
3.843,1.641,0
3.844,1.275,0
3.845,3.106,0
3.846,-2.387,0
3.847,-4.584,0
3.848,-0.007,0
3.849,-0.556,0
3.85,-2.204,0
3.851,-2.57,0
3.852,0.543,0
3.853,-0.556,0
3.854,-0.19,0
3.855,-3.486,0
3.856,0.36,0
3.857,-0.922,0
3.858,-1.288,0
3.859,1.458,0
3.86,1.824,0
3.861,-3.669,0
3.862,-2.936,0
3.863,1.641,0
3.864,4.754,0
3.865,-3.669,0
3.866,-0.19,0
3.867,0.909,0
3.868,1.824,0
3.869,4.571,0
3.87,2.191,0
3.871,-3.119,0
3.872,-1.288,0
3.873,-0.739,0
3.874,0.909,0
3.875,-0.373,0
3.876,-0.19,0
3.877,4.022,0
3.878,12.445,0
3.879,4.022,0
3.88,7.318,0
3.881,8.233,0
3.882,-2.021,0
3.883,-0.739,0
3.884,-4.218,0
3.885,-3.119,0
3.886,1.824,0
3.887,0.909,0
3.888,3.289,0
3.889,2.557,0
3.89,0.726,0
3.891,2.557,0
3.892,-3.669,0
3.893,-2.936,0
3.894,-0.739,0
3.895,-4.035,0
3.896,-2.204,0
3.897,-2.753,0
3.898,-1.471,0
3.899,-5.683,0
3.9,-1.838,0
3.901,-0.556,0
3.902,-0.922,0
3.903,1.092,0
3.904,0.726,0
3.905,-0.373,0
3.906,-1.838,0
3.907,0.726,0
3.908,1.092,0
3.909,-0.373,0
3.91,3.839,0
3.911,-4.401,0
3.912,1.275,0
3.913,2.191,0
3.914,-6.232,0
3.915,-5.134,0
3.916,-0.19,0
3.917,0.726,0
3.918,-1.655,0
3.919,-0.922,0
3.92,8.05,0
3.921,2.008,0
3.922,-1.288,0
3.923,1.641,0
3.924,0.726,0
3.925,-1.655,0
3.926,-3.852,0
3.927,3.472,0
3.928,4.022,0
3.929,13.543,0
3.93,6.768,0
3.931,7.867,0
3.932,2.191,0
3.933,-4.767,0
3.934,-2.021,0
3.935,-2.753,0
3.936,-0.556,0
3.937,-5.134,0
3.938,-2.021,0
3.939,1.824,0
3.94,0.543,0
3.941,0.909,0
3.942,2.008,0
3.943,0.177,0
3.944,0.543,0
3.945,-0.19,0
3.946,-3.852,0
3.947,-3.486,0
3.948,-3.119,0
3.949,-2.021,0
3.95,-3.119,0
3.951,-1.288,0
3.952,-1.471,0
3.953,-3.302,0
3.954,-5.134,0
3.955,-2.936,0
3.956,1.275,0
3.957,-1.838,0
3.958,0.909,0
3.959,1.275,0
3.96,2.557,0
3.961,0.543,0
3.962,-1.288,0
3.963,-3.119,0
3.964,-2.387,0
3.965,-3.119,0
3.966,-1.838,0
3.967,-1.655,0
3.968,-0.19,0
3.969,2.74,0
3.97,3.839,0
3.971,2.74,0
3.972,1.641,0
3.973,2.374,0
3.974,2.557,0
3.975,2.74,0
3.976,1.275,0
3.977,1.824,0
3.978,5.67,0
3.979,8.599,0
3.98,14.093,0
3.981,10.247,0
3.982,9.698,0
3.983,12.811,0
3.984,4.388,0
3.985,-6.781,0
3.986,0.726,0
3.987,4.754,0
3.988,-1.288,0
3.989,-2.387,0
3.99,-7.331,0
3.991,-6.415,0
3.992,-4.035,0
3.993,-6.232,0
3.994,-8.063,0
3.995,-3.669,0
3.996,-3.119,0
3.997,-2.753,0
3.998,-4.95,0
3.999,-6.049,0
4,-1.838,0
4.001,-5.683,0
4.002,-2.387,0
4.003,-1.105,0
4.004,-2.204,0
4.005,-1.838,0
4.006,-3.669,0
4.007,-2.936,0
4.008,1.275,0
4.009,1.824,0
4.01,2.374,0
4.011,1.092,0
4.012,-2.021,0
4.013,-0.007,0
4.014,-4.218,0
4.015,-2.57,0
4.016,-1.288,0
4.017,-1.655,0
4.018,-0.556,0
4.019,1.275,0
4.02,0.177,0
4.021,2.923,0
4.022,-0.556,0
4.023,1.641,0
4.024,0.543,0
4.025,2.374,0
4.026,4.205,0
4.027,2.191,0
4.028,-0.922,0
4.029,-0.19,0
4.03,-1.288,0
4.031,4.388,0
4.032,5.12,0
4.033,10.43,0
4.034,8.599,0
4.035,5.487,0
4.036,-0.739,0
4.037,1.641,0
4.038,3.839,0
4.039,-3.669,0
4.04,-0.739,0
4.041,2.008,0
4.042,2.74,0
4.043,-1.105,0
4.044,-1.655,0
4.045,0.177,0
4.046,-3.669,0
4.047,-2.387,0
4.048,-3.669,0
4.049,-1.655,0
4.05,-0.556,0
4.051,-3.119,0
4.052,-4.584,0
4.053,-3.852,0
4.054,-0.922,0
4.055,1.641,0
4.056,2.74,0
4.057,4.754,0
4.058,0.543,0
4.059,-3.852,0
4.06,-0.007,0
4.061,-3.302,0
4.062,-2.021,0
4.063,-0.922,0
4.064,-2.021,0
4.065,-3.119,0
4.066,-0.373,0
4.067,1.458,0
4.068,4.022,0
4.069,3.289,0
4.07,7.501,0
4.071,8.05,0
4.072,11.895,0
4.073,13.177,0
4.074,15.374,0
4.075,21.6,0
4.076,30.023,0
4.077,35.699,0
4.078,36.615,0
4.079,28.192,0
4.08,20.318,0
4.081,14.642,0
4.082,19.586,0
4.083,15.008,0
4.084,12.628,0
4.085,1.092,0
4.086,-23.81,0
4.087,-34.43,0
4.088,-43.952,0
4.089,-52.741,0
4.09,-55.304,0
4.091,-52.924,0
4.092,-41.938,0
4.093,-31.867,0
4.094,-26.374,0
4.095,-28.022,0
4.096,-47.614,0
4.097,-71.784,0
4.098,-81.305,0
4.099,-108.04,0
4.1,-140.26,0
4.101,-161.87,0
4.102,-165.72,0
4.103,-183.48,0
4.104,-167.37,0
4.105,-164.44,0
4.106,-156.56,0
4.107,-120.12,0
4.108,-72.883,0
4.109,22.515,0
4.11,145.56,0
4.111,195.18,0
4.112,180.17,0
4.113,193.72,0
4.114,181.27,0
4.115,147.58,0
4.116,116.81,0
4.117,107.48,0
4.118,99.053,0
4.119,91.363,0
4.12,112.24,0
4.121,143.91,0
4.122,149.59,0
4.123,165.16,0
4.124,150.87,0
4.125,146.66,0
4.126,127.07,0
4.127,130.55,0
4.128,127.44,0
4.129,118.65,0
4.13,83.673,0
4.131,53.277,0
4.132,38.995,0
4.133,43.206,0
4.134,31.488,0
4.135,42.108,0
4.136,25.994,0
4.137,5.303,0
4.138,-18.866,0
4.139,-28.388,0
4.14,-43.219,0
4.141,-45.783,0
4.142,-43.403,0
4.143,-54.389,0
4.144,-72.516,0
4.145,-74.897,0
4.146,-68.305,0
4.147,-74.347,0
4.148,-72.516,0
4.149,-74.164,0
4.15,-75.629,0
4.151,-82.404,0
4.152,-81.305,0
4.153,-78.01,0
4.154,-78.925,0
4.155,-70.502,0
4.156,-71.601,0
4.157,-74.531,0
4.158,-68.122,0
4.159,-60.615,0
4.16,-61.53,0
4.161,-56.952,0
4.162,-52.924,0
4.163,-45.966,0
4.164,-41.388,0
4.165,-30.585,0
4.166,-29.12,0
4.167,-25.092,0
4.168,-21.613,0
4.169,-15.937,0
4.17,-15.021,0
4.171,-10.444,0
4.172,-8.063,0
4.173,-7.331,0
4.174,0.177,0
4.175,-0.739,0
4.176,0.177,0
4.177,2.557,0
4.178,7.867,0
4.179,8.416,0
4.18,7.867,0
4.181,8.416,0
4.182,7.867,0
4.183,10.247,0
4.184,10.614,0
4.185,10.247,0
4.186,13.726,0
4.187,14.093,0
4.188,15.191,0
4.189,20.867,0
4.19,23.248,0
4.191,14.825,0
4.192,11.529,0
4.193,10.614,0
4.194,4.205,0
4.195,8.233,0
4.196,4.388,0
4.197,3.839,0
4.198,6.951,0
4.199,7.501,0
4.2,5.12,0
4.201,3.839,0
4.202,8.416,0
4.203,10.247,0
4.204,11.895,0
4.205,10.614,0
4.206,7.501,0
4.207,7.135,0
4.208,7.501,0
4.209,10.064,0
4.21,11.529,0
4.211,7.867,0
4.212,7.501,0
4.213,9.698,0
4.214,4.205,0
4.215,2.008,0
4.216,2.557,0
4.217,3.106,0
4.218,3.656,0
4.219,2.374,0
4.22,2.008,0
4.221,2.374,0
4.222,1.275,0
4.223,1.641,0
4.224,1.824,0
4.225,-0.007,0
4.226,-1.838,0
4.227,1.641,0
4.228,2.923,0
4.229,6.036,0
4.23,5.67,0
4.231,3.106,0
4.232,7.135,0
4.233,7.135,0
4.234,4.754,0
4.235,11.712,0
4.236,4.754,0
4.237,16.839,0
4.238,8.599,0
4.239,-7.88,0
4.24,-5.683,0
4.241,0.36,0
4.242,2.191,0
4.243,3.839,0
4.244,-0.556,0
4.245,-1.838,0
4.246,-0.739,0
4.247,0.36,0
4.248,-2.57,0
4.249,0.177,0
4.25,-3.852,0
4.251,4.571,0
4.252,1.275,0
4.253,2.191,0
4.254,3.106,0
4.255,2.374,0
4.256,1.641,0
4.257,-1.655,0
4.258,-4.767,0
4.259,-7.514,0
4.26,-5.134,0
4.261,-6.415,0
4.262,-4.401,0
4.263,-6.965,0
4.264,-1.471,0
4.265,10.064,0
4.266,5.12,0
4.267,0.726,0
4.268,2.008,0
4.269,0.909,0
4.27,-0.19,0
4.271,2.74,0
4.272,7.318,0
4.273,4.937,0
4.274,5.67,0
4.275,-0.556,0
4.276,-2.936,0
4.277,-8.246,0
4.278,-3.669,0
4.279,-0.556,0
4.28,-4.401,0
4.281,0.177,0
4.282,-4.218,0
4.283,-2.57,0
4.284,-1.655,0
4.285,-2.021,0
4.286,2.191,0
4.287,8.416,0
4.288,10.797,0
4.289,2.374,0
4.29,3.472,0
4.291,4.388,0
4.292,8.966,0
4.293,11.346,0
4.294,2.923,0
4.295,-2.753,0
4.296,-3.669,0
4.297,-4.584,0
4.298,-2.204,0
4.299,-2.936,0
4.3,-4.767,0
4.301,-2.936,0
4.302,-6.781,0
4.303,-2.204,0
4.304,-2.753,0
4.305,-3.302,0
4.306,-2.936,0
4.307,2.191,0
4.308,0.36,0
4.309,2.191,0
4.31,2.74,0
4.311,4.022,0
4.312,-2.021,0
4.313,-2.753,0
4.314,-3.486,0
4.315,-4.035,0
4.316,-2.204,0
4.317,-2.753,0
4.318,-4.035,0
4.319,0.177,0
4.32,-2.57,0
4.321,4.937,0
4.322,3.839,0
4.323,0.909,0
4.324,1.824,0
4.325,-0.556,0
4.326,1.641,0
4.327,-0.19,0
4.328,4.205,0
4.329,-2.021,0
4.33,-1.288,0
4.331,-5.134,0
4.332,-6.965,0
4.333,-3.852,0
4.334,-0.007,0
4.335,-0.19,0
4.336,-0.556,0
4.337,6.402,0
4.338,17.572,0
4.339,13.177,0
4.34,6.402,0
4.341,2.923,0
4.342,-0.373,0
4.343,0.543,0
4.344,1.458,0
4.345,3.839,0
4.346,-3.119,0
4.347,-2.204,0
4.348,-2.936,0
4.349,-2.204,0
4.35,-2.753,0
4.351,-0.922,0
4.352,-2.57,0
4.353,-2.204,0
4.354,-1.838,0
4.355,0.909,0
4.356,4.388,0
4.357,3.106,0
4.358,4.205,0
4.359,6.036,0
4.36,5.67,0
4.361,4.205,0
4.362,0.543,0
4.363,0.909,0
4.364,-2.204,0
4.365,0.543,0
4.366,2.374,0
4.367,3.472,0
4.368,2.74,0
4.369,-0.373,0
4.37,-0.007,0
4.371,-0.373,0
4.372,-0.007,0
4.373,-0.739,0
4.374,-1.471,0
4.375,0.36,0
4.376,3.472,0
4.377,1.458,0
4.378,1.824,0
4.379,3.656,0
4.38,-0.922,0
4.381,-2.753,0
4.382,-2.204,0
4.383,-4.95,0
4.384,-4.584,0
4.385,-1.471,0
4.386,-0.922,0
4.387,0.177,0
4.388,5.853,0
4.389,3.472,0
4.39,5.67,0
4.391,-3.302,0
4.392,10.247,0
4.393,8.416,0
4.394,0.177,0
4.395,-1.288,0
4.396,-5.317,0
4.397,-1.838,0
4.398,-0.739,0
4.399,0.177,0
4.4,2.923,0
4.401,10.43,0
4.402,-0.739,0
4.403,-2.204,0
4.404,-0.922,0
4.405,7.501,0
4.406,4.205,0
4.407,11.163,0
4.408,6.585,0
4.409,4.205,0
4.41,-2.753,0
4.411,-3.669,0
4.412,-1.288,0
4.413,0.909,0
4.414,-2.387,0
4.415,-0.556,0
4.416,-3.302,0
4.417,-0.007,0
4.418,-3.119,0
4.419,-2.021,0
4.42,-2.387,0
4.421,3.106,0
4.422,3.839,0
4.423,2.008,0
4.424,-1.105,0
4.425,-0.556,0
4.426,2.74,0
4.427,-4.218,0
4.428,-3.302,0
4.429,-0.556,0
4.43,-1.288,0
4.431,0.909,0
4.432,-2.387,0
4.433,2.008,0
4.434,1.458,0
4.435,2.74,0
4.436,-0.373,0
4.437,2.008,0
4.438,-0.007,0
4.439,5.67,0
4.44,6.402,0
4.441,11.712,0
4.442,11.163,0
4.443,4.205,0
4.444,-0.373,0
4.445,-1.105,0
4.446,-1.838,0
4.447,-1.288,0
4.448,-1.838,0
4.449,-1.288,0
4.45,-2.57,0
4.451,-1.288,0
4.452,2.557,0
4.453,2.191,0
4.454,-0.922,0
4.455,-0.556,0
4.456,1.275,0
4.457,3.839,0
4.458,0.543,0
4.459,1.824,0
4.46,-2.753,0
4.461,-2.204,0
4.462,-2.753,0
4.463,-5.134,0
4.464,-6.415,0
4.465,-5.317,0
4.466,-1.838,0
4.467,-4.035,0
4.468,-2.936,0
4.469,-1.105,0
4.47,4.388,0
4.471,3.656,0
4.472,1.824,0
4.473,3.656,0
4.474,0.909,0
4.475,-0.373,0
4.476,2.74,0
4.477,5.487,0
4.478,1.275,0
4.479,-2.57,0
4.48,-5.866,0
4.481,-2.753,0
4.482,-0.739,0
4.483,0.36,0
4.484,-0.739,0
4.485,-0.922,0
4.486,-0.19,0
4.487,-0.007,0
4.488,0.543,0
4.489,4.022,0
4.49,11.529,0
4.491,8.233,0
4.492,3.289,0
4.493,7.867,0
4.494,11.895,0
4.495,1.824,0
4.496,-2.204,0
4.497,-5.683,0
4.498,-2.387,0
4.499,0.543,0
4.5,1.458,0
4.501,0.726,0
4.502,-1.471,0
4.503,-4.767,0
4.504,-4.218,0
4.505,-2.57,0
4.506,-1.288,0
4.507,-3.486,0
4.508,0.36,0
4.509,3.656,0
4.51,-0.556,0
4.511,1.092,0
4.512,-2.204,0
4.513,-0.922,0
4.514,-2.021,0
4.515,-0.19,0
4.516,0.909,0
4.517,2.923,0
4.518,1.092,0
4.519,0.36,0
4.52,-3.119,0
4.521,2.374,0
4.522,-1.471,0
4.523,0.36,0
4.524,-4.035,0
4.525,-1.288,0
4.526,-0.922,0
4.527,-4.035,0
4.528,2.191,0
4.529,1.275,0
4.53,2.008,0
4.531,7.318,0
4.532,4.022,0
4.533,-0.373,0
4.534,0.177,0
4.535,6.768,0
4.536,7.684,0
4.537,2.008,0
4.538,4.205,0
4.539,0.543,0
4.54,-2.753,0
4.541,6.768,0
4.542,5.487,0
4.543,-8.063,0
4.544,4.754,0
4.545,3.106,0
4.546,-4.401,0
4.547,-5.683,0
4.548,2.74,0
4.549,-2.936,0
4.55,-2.021,0
4.551,-4.767,0
4.552,-2.387,0
4.553,-3.119,0
4.554,-1.288,0
4.555,-3.119,0
4.556,-0.373,0
4.557,-2.753,0
4.558,0.36,0
4.559,0.726,0
4.56,-3.486,0
4.561,0.36,0
4.562,-0.922,0
4.563,-0.556,0
4.564,-0.922,0
4.565,-3.486,0
4.566,-0.922,0
4.567,2.374,0
4.568,-0.739,0
4.569,0.36,0
4.57,-1.471,0
4.571,1.824,0
4.572,1.458,0
4.573,-0.373,0
4.574,-0.007,0
4.575,-0.19,0
4.576,0.543,0
4.577,0.726,0
4.578,1.275,0
4.579,-1.655,0
4.58,-2.753,0
4.581,-0.19,0
4.582,0.543,0
4.583,-0.739,0
4.584,3.289,0
4.585,6.036,0
4.586,2.74,0
4.587,2.374,0
4.588,3.472,0
4.589,3.839,0
4.59,1.275,0
4.591,-1.288,0
4.592,3.289,0
4.593,3.839,0
4.594,3.289,0
4.595,9.515,0
4.596,0.36,0
4.597,-8.063,0
4.598,-4.767,0
4.599,-1.838,0
4.6,2.74,0
4.601,-6.415,0
4.602,-7.514,0
4.603,-1.838,0
4.604,1.092,0
4.605,-1.655,0
4.606,-0.922,0
4.607,-3.119,0
4.608,0.177,0
4.609,0.726,0
4.61,4.571,0
4.611,1.275,0
4.612,-0.922,0
4.613,-4.767,0
4.614,-1.471,0
4.615,-1.838,0
4.616,-1.471,0
4.617,-1.838,0
4.618,-0.739,0
4.619,1.275,0
4.62,2.008,0
4.621,5.487,0
4.622,-0.556,0
4.623,3.472,0
4.624,1.275,0
4.625,3.106,0
4.626,-0.007,0
4.627,-2.753,0
4.628,-8.246,0
4.629,-10.444,0
4.63,-5.866,0
4.631,-2.753,0
4.632,-1.105,0
4.633,0.177,0
4.634,0.543,0
4.635,4.388,0
4.636,5.67,0
4.637,8.782,0
4.638,4.937,0
4.639,3.656,0
4.64,0.543,0
4.641,-1.655,0
4.642,2.191,0
4.643,0.909,0
4.644,4.022,0
4.645,1.275,0
4.646,3.839,0
4.647,4.937,0
4.648,1.641,0
4.649,-3.486,0
4.65,-1.655,0
4.651,7.867,0
4.652,14.642,0
4.653,13.543,0
4.654,10.247,0
4.655,3.289,0
4.656,6.036,0
4.657,3.656,0
4.658,1.458,0
4.659,4.754,0
4.66,6.585,0
4.661,2.74,0
4.662,4.022,0
4.663,-2.021,0
4.664,-1.288,0
4.665,4.022,0
4.666,-3.486,0
4.667,-4.401,0
4.668,-5.317,0
4.669,-10.993,0
4.67,-7.148,0
4.671,-6.598,0
4.672,-6.049,0
4.673,-5.5,0
4.674,-0.007,0
4.675,-5.317,0
4.676,-3.486,0
4.677,-7.88,0
4.678,-6.232,0
4.679,-3.852,0
4.68,-5.134,0
4.681,-1.288,0
4.682,-2.57,0
4.683,-1.288,0
4.684,-2.387,0
4.685,1.092,0
4.686,0.726,0
4.687,-0.373,0
4.688,5.303,0
4.689,2.923,0
4.69,-2.387,0
4.691,2.191,0
4.692,-0.19,0
4.693,-0.739,0
4.694,7.684,0
4.695,4.205,0
4.696,7.501,0
4.697,10.43,0
4.698,4.022,0
4.699,-8.429,0
4.7,11.712,0
4.701,14.276,0
4.702,7.135,0
4.703,0.543,0
4.704,-1.471,0
4.705,-3.302,0
4.706,-1.655,0
4.707,-0.19,0
4.708,-1.471,0
4.709,-4.95,0
4.71,-1.655,0
4.711,-0.739,0
4.712,0.177,0
4.713,-2.204,0
4.714,1.641,0
4.715,-0.19,0
4.716,1.641,0
4.717,3.289,0
4.718,2.008,0
4.719,2.374,0
4.72,-1.471,0
4.721,6.036,0
4.722,-1.838,0
4.723,-0.922,0
4.724,-0.007,0
4.725,-2.387,0
4.726,-1.655,0
4.727,0.177,0
4.728,-2.936,0
4.729,0.909,0
4.73,-0.373,0
4.731,3.839,0
4.732,2.191,0
4.733,-0.19,0
4.734,-1.471,0
4.735,-0.373,0
4.736,3.106,0
4.737,-2.021,0
4.738,-1.471,0
4.739,0.36,0
4.74,-1.288,0
4.741,-3.669,0
4.742,2.374,0
4.743,2.74,0
4.744,6.768,0
4.745,6.036,0
4.746,15.008,0
4.747,18.487,0
4.748,24.163,0
4.749,27.093,0
4.75,41.009,0
4.751,38.995,0
4.752,37.164,0
4.753,25.628,0
4.754,21.234,0
4.755,19.952,0
4.756,18.853,0
4.757,10.98,0
4.758,4.022,0
4.759,-9.894,0
4.76,-23.993,0
4.761,-33.149,0
4.762,-44.684,0
4.763,-58.234,0
4.764,-63.727,0
4.765,-58.783,0
4.766,-54.389,0
4.767,-42.121,0
4.768,-40.473,0
4.769,-30.036,0
4.77,-34.064,0
4.771,-52.558,0
4.772,-76.728,0
4.773,-99.25,0
4.774,-131.84,0
4.775,-162.06,0
4.776,-165.9,0
4.777,-169.38,0
4.778,-153.27,0
4.779,-144.48,0
4.78,-147.04,0
4.781,-115.36,0
4.782,-85.151,0
4.783,-26.008,0
4.784,101.07,0
4.785,192.07,0
4.786,208.55,0
4.787,193.54,0
4.788,207.09,0
4.789,169.73,0
4.79,136.04,0
4.791,105.28,0
4.792,95.941,0
4.793,87.518,0
4.794,90.631,0
4.795,113.7,0
4.796,134.58,0
4.797,140.8,0
4.798,158.01,0
4.799,142.45,0
4.8,147.21,0
4.801,134.39,0
4.802,122.67,0
4.803,126.15,0
4.804,110.04,0
4.805,77.447,0
4.806,55.841,0
4.807,36.248,0
4.808,32.769,0
4.809,29.656,0
4.81,20.867,0
4.811,7.501,0
4.812,-19.233,0
4.813,-29.853,0
4.814,-45.966,0
4.815,-60.798,0
4.816,-63.361,0
4.817,-60.981,0
4.818,-58.783,0
4.819,-56.769,0
4.82,-69.587,0
4.821,-71.235,0
4.822,-66.84,0
4.823,-68.122,0
4.824,-64.643,0
4.825,-79.474,0
4.826,-77.46,0
4.827,-75.629,0
4.828,-80.573,0
4.829,-79.108,0
4.83,-80.39,0
4.831,-79.291,0
4.832,-71.418,0
4.833,-68.488,0
4.834,-60.065,0
4.835,-54.389,0
4.836,-47.431,0
4.837,-46.515,0
4.838,-44.135,0
4.839,-40.29,0
4.84,-31.318,0
4.841,-30.219,0
4.842,-26.923,0
4.843,-19.965,0
4.844,-15.387,0
4.845,-14.838,0
4.846,-9.162,0
4.847,2.374,0
4.848,-5.866,0
4.849,-13.373,0
4.85,7.135,0
4.851,4.205,0
4.852,1.641,0
4.853,4.022,0
4.854,6.219,0
4.855,4.205,0
4.856,9.698,0
4.857,14.642,0
4.858,10.247,0
4.859,6.219,0
4.86,9.698,0
4.861,8.599,0
4.862,11.529,0
4.863,14.276,0
4.864,10.247,0
4.865,6.402,0
4.866,9.698,0
4.867,10.247,0
4.868,14.093,0
4.869,12.811,0
4.87,15.008,0
4.871,12.261,0
4.872,9.698,0
4.873,12.994,0
4.874,13.36,0
4.875,12.994,0
4.876,7.501,0
4.877,9.698,0
4.878,9.149,0
4.879,3.472,0
4.88,5.67,0
4.881,6.219,0
4.882,6.768,0
4.883,5.12,0
4.884,7.501,0
4.885,7.135,0
4.886,4.388,0
4.887,10.064,0
4.888,6.036,0
4.889,5.303,0
4.89,0.726,0
4.891,8.966,0
4.892,7.867,0
4.893,14.825,0
4.894,10.247,0
4.895,6.219,0
4.896,2.008,0
4.897,-0.19,0
4.898,0.36,0
4.899,3.472,0
4.9,-1.655,0
4.901,8.599,0
4.902,4.205,0
4.903,-2.57,0
4.904,-1.471,0
4.905,-0.373,0
4.906,2.557,0
4.907,5.303,0
4.908,6.036,0
4.909,0.726,0
4.91,-1.105,0
4.911,-0.556,0
4.912,-1.105,0
4.913,-2.387,0
4.914,-4.584,0
4.915,-2.57,0
4.916,1.641,0
4.917,-0.007,0
4.918,-1.288,0
4.919,-1.655,0
4.92,1.092,0
4.921,1.458,0
4.922,0.36,0
4.923,0.543,0
4.924,2.374,0
4.925,-1.655,0
4.926,-1.105,0
4.927,-3.486,0
4.928,-5.683,0
4.929,-3.669,0
4.93,-4.035,0
4.931,-2.936,0
4.932,1.092,0
4.933,3.839,0
4.934,3.472,0
4.935,2.191,0
4.936,-0.556,0
4.937,2.923,0
4.938,2.557,0
4.939,5.303,0
4.94,3.472,0
4.941,1.641,0
4.942,-1.655,0
4.943,1.458,0
4.944,0.36,0
4.945,-0.007,0
4.946,-4.767,0
4.947,-3.119,0
4.948,-3.669,0
4.949,4.754,0
4.95,5.853,0
4.951,6.951,0
4.952,-0.007,0
4.953,-2.753,0
4.954,1.275,0
4.955,3.472,0
4.956,1.641,0
4.957,1.092,0
4.958,0.543,0
4.959,-0.739,0
4.96,1.458,0
4.961,-1.288,0
4.962,-3.119,0
4.963,-2.753,0
4.964,-2.021,0
4.965,-3.852,0
4.966,-3.669,0
4.967,-7.148,0
4.968,-5.866,0
4.969,-5.5,0
4.97,-4.401,0
4.971,-6.232,0
4.972,-0.739,0
4.973,1.458,0
4.974,3.289,0
4.975,1.458,0
4.976,-1.288,0
4.977,-3.669,0
4.978,-2.387,0
4.979,-1.288,0
4.98,-1.655,0
4.981,-2.753,0
4.982,-0.739,0
4.983,-0.007,0
4.984,0.726,0
4.985,-0.373,0
4.986,-3.669,0
4.987,1.458,0
4.988,0.909,0
4.989,1.458,0
4.99,3.106,0
4.991,4.388,0
4.992,5.67,0
4.993,-0.556,0
4.994,-5.134,0
4.995,-5.866,0
4.996,-5.134,0
4.997,-3.302,0
4.998,2.008,0
4.999,0.177,0
5,8.599,0
5.001,2.557,0
5.002,-12.275,0
5.003,5.853,0
5.004,3.472,0
5.005,-3.119,0
5.006,-1.105,0
5.007,0.726,0
5.008,2.374,0
5.009,0.909,0
5.01,-0.373,0
5.011,-6.415,0
5.012,-3.119,0
5.013,-2.204,0
5.014,-3.119,0
5.015,-2.387,0
5.016,-0.19,0
5.017,0.36,0
5.018,-0.19,0
5.019,-0.739,0
5.02,0.543,0
5.021,0.177,0
5.022,4.022,0
5.023,2.74,0
5.024,2.374,0
5.025,-1.471,0
5.026,3.106,0
5.027,2.557,0
5.028,0.909,0
5.029,0.543,0
5.03,0.909,0
5.031,2.008,0
5.032,2.374,0
5.033,0.543,0
5.034,2.557,0
5.035,-0.007,0
5.036,2.557,0
5.037,5.853,0
5.038,7.135,0
5.039,3.289,0
5.04,3.656,0
5.041,2.374,0
5.042,2.008,0
5.043,6.951,0
5.044,0.726,0
5.045,-0.007,0
5.046,-3.852,0
5.047,-2.021,0
5.048,-6.415,0
5.049,-6.781,0
5.05,-4.035,0
5.051,3.472,0
5.052,4.571,0
5.053,3.656,0
5.054,0.909,0
5.055,-4.767,0
5.056,-2.57,0
5.057,-0.739,0
5.058,1.092,0
5.059,-0.556,0
5.06,2.74,0
5.061,-0.373,0
5.062,-2.387,0
5.063,-4.218,0
5.064,-3.119,0
5.065,0.177,0
5.066,1.458,0
5.067,1.824,0
5.068,0.726,0
5.069,2.557,0
5.07,2.74,0
5.071,1.458,0
5.072,-0.373,0
5.073,-1.838,0
5.074,1.458,0
5.075,1.092,0
5.076,0.726,0
5.077,0.36,0
5.078,0.726,0
5.079,-0.007,0
5.08,-1.838,0
5.081,0.543,0
5.082,2.557,0
5.083,1.824,0
5.084,1.092,0
5.085,4.205,0
5.086,6.219,0
5.087,2.74,0
5.088,4.022,0
5.089,4.388,0
5.09,5.487,0
5.091,2.191,0
5.092,-0.556,0
5.093,-0.922,0
5.094,0.177,0
5.095,-1.838,0
5.096,-4.401,0
5.097,-4.035,0
5.098,-4.767,0
5.099,-2.936,0
5.1,-3.119,0
5.101,-2.387,0
5.102,1.092,0
5.103,8.599,0
5.104,2.923,0
5.105,7.867,0
5.106,1.458,0
5.107,-0.922,0
5.108,1.275,0
5.109,1.824,0
5.11,-2.57,0
5.111,-3.119,0
5.112,-2.753,0
5.113,-0.556,0
5.114,-6.049,0
5.115,-6.781,0
5.116,-3.486,0
5.117,0.909,0
5.118,0.36,0
5.119,-0.922,0
5.12,-4.035,0
5.121,-3.669,0
5.122,-0.19,0
5.123,1.092,0
5.124,3.106,0
5.125,-2.57,0
5.126,-3.302,0
5.127,0.543,0
5.128,2.374,0
5.129,-3.302,0
5.13,-2.57,0
5.131,-2.021,0
5.132,-3.852,0
5.133,-5.5,0
5.134,-2.204,0
5.135,-0.007,0
5.136,6.219,0
5.137,3.472,0
5.138,2.74,0
5.139,4.937,0
5.14,-5.317,0
5.141,-0.922,0
5.142,-2.204,0
5.143,-1.105,0
5.144,-0.007,0
5.145,-0.922,0
5.146,-0.007,0
5.147,-5.683,0
5.148,-0.373,0
5.149,-4.95,0
5.15,-0.556,0
5.151,-0.19,0
5.152,-1.838,0
5.153,5.67,0
5.154,-4.584,0
5.155,10.43,0
5.156,4.388,0
5.157,-1.105,0
5.158,-2.753,0
5.159,-1.288,0
5.16,-2.57,0
5.161,-1.471,0
5.162,-2.57,0
5.163,-3.486,0
5.164,-6.232,0
5.165,-2.204,0
5.166,-1.471,0
5.167,-6.049,0
5.168,-9.162,0
5.169,-4.035,0
5.17,3.472,0
5.171,-1.471,0
5.172,3.106,0
5.173,5.487,0
5.174,3.289,0
5.175,-0.007,0
5.176,4.388,0
5.177,1.641,0
5.178,-1.655,0
5.179,-2.936,0
5.18,3.289,0
5.181,-1.288,0
5.182,-2.021,0
5.183,0.177,0
5.184,-1.655,0
5.185,-4.767,0
5.186,-0.922,0
5.187,-0.556,0
5.188,2.557,0
5.189,2.191,0
5.19,0.36,0
5.191,-2.936,0
5.192,-3.302,0
5.193,2.374,0
5.194,1.641,0
5.195,-2.204,0
5.196,-0.373,0
5.197,1.458,0
5.198,6.585,0
5.199,3.289,0
5.2,0.177,0
5.201,-1.471,0
5.202,-1.655,0
5.203,1.641,0
5.204,-4.401,0
5.205,4.754,0
5.206,8.233,0
5.207,13.909,0
5.208,4.754,0
5.209,-6.415,0
5.21,-2.021,0
5.211,-0.739,0
5.212,-4.218,0
5.213,1.458,0
5.214,-3.486,0
5.215,-4.401,0
5.216,-0.373,0
5.217,-4.218,0
5.218,3.289,0
5.219,0.36,0
5.22,-2.387,0
5.221,-3.119,0
5.222,-3.852,0
5.223,-5.683,0
5.224,-1.288,0
5.225,0.36,0
5.226,-2.021,0
5.227,0.177,0
5.228,0.543,0
5.229,-5.134,0
5.23,-2.753,0
5.231,-0.556,0
5.232,1.275,0
5.233,4.388,0
5.234,2.74,0
5.235,1.458,0
5.236,0.177,0
5.237,-2.57,0
5.238,0.909,0
5.239,2.191,0
5.24,1.092,0
5.241,2.923,0
5.242,6.951,0
5.243,4.571,0
5.244,0.36,0
5.245,-0.19,0
5.246,-1.471,0
5.247,-3.669,0
5.248,-0.922,0
5.249,3.289,0
5.25,4.937,0
5.251,0.36,0
5.252,3.472,0
5.253,2.008,0
5.254,-3.119,0
5.255,7.135,0
5.256,-0.373,0
5.257,-1.655,0
5.258,11.895,0
5.259,10.064,0
5.26,-4.95,0
5.261,-2.936,0
5.262,-1.105,0
5.263,-2.753,0
5.264,-4.218,0
5.265,-0.19,0
5.266,3.289,0
5.267,2.191,0
5.268,-0.739,0
5.269,-1.655,0
5.27,-5.683,0
5.271,-6.415,0
5.272,-6.965,0
5.273,-1.288,0
5.274,-0.556,0
5.275,1.275,0
5.276,-1.838,0
5.277,-0.19,0
5.278,0.177,0
5.279,-1.105,0
5.28,-1.471,0
5.281,-1.105,0
5.282,4.388,0
5.283,2.191,0
5.284,2.74,0
5.285,-1.655,0
5.286,-0.007,0
5.287,-0.373,0
5.288,1.824,0
5.289,-0.19,0
5.29,-5.866,0
5.291,-0.19,0
5.292,0.543,0
5.293,-0.007,0
5.294,1.824,0
5.295,4.571,0
5.296,3.289,0
5.297,3.656,0
5.298,-0.19,0
5.299,-1.471,0
5.3,-2.753,0
5.301,-1.655,0
5.302,-4.218,0
5.303,-1.655,0
5.304,-0.922,0
5.305,2.374,0
5.306,9.332,0
5.307,2.374,0
5.308,1.458,0
5.309,3.839,0
5.31,4.571,0
5.311,14.825,0
5.312,13.36,0
5.313,6.585,0
5.314,3.106,0
5.315,6.402,0
5.316,3.472,0
5.317,2.557,0
5.318,0.177,0
5.319,7.135,0
5.32,4.388,0
5.321,0.36,0
5.322,-1.838,0
5.323,-1.288,0
5.324,1.824,0
5.325,0.177,0
5.326,-2.204,0
5.327,-6.415,0
5.328,-2.57,0
5.329,-2.936,0
5.33,-0.739,0
5.331,0.36,0
5.332,-0.739,0
5.333,-5.5,0
5.334,-6.049,0
5.335,-3.302,0
5.336,-2.021,0
5.337,-5.134,0
5.338,-4.767,0
5.339,0.909,0
5.34,-1.471,0
5.341,0.726,0
5.342,-1.105,0
5.343,-0.556,0
5.344,-3.302,0
5.345,1.275,0
5.346,-0.556,0
5.347,-2.204,0
5.348,-1.838,0
5.349,0.36,0
5.35,-0.739,0
5.351,-3.302,0
5.352,-0.739,0
5.353,-1.471,0
5.354,-0.739,0
5.355,-3.119,0
5.356,0.909,0
5.357,9.332,0
5.358,5.853,0
5.359,13.726,0
5.36,-1.471,0
5.361,-3.669,0
5.362,-1.655,0
5.363,-3.486,0
5.364,-5.134,0
5.365,-0.739,0
5.366,-2.021,0
5.367,-0.922,0
5.368,0.177,0
5.369,3.106,0
5.37,4.022,0
5.371,-1.655,0
5.372,0.543,0
5.373,3.839,0
5.374,0.726,0
5.375,-0.922,0
5.376,-5.5,0
5.377,-7.331,0
5.378,-2.204,0
5.379,-0.373,0
5.38,-9.894,0
5.381,2.374,0
5.382,-2.57,0
5.383,-1.105,0
5.384,2.923,0
5.385,4.022,0
5.386,0.726,0
5.387,1.641,0
5.388,2.557,0
5.389,-3.119,0
5.39,-0.922,0
5.391,3.656,0
5.392,1.824,0
5.393,-4.401,0
5.394,-3.669,0
5.395,-4.401,0
5.396,0.177,0
5.397,0.726,0
5.398,0.177,0
5.399,-3.119,0
5.4,-7.331,0
5.401,-1.105,0
5.402,6.402,0
5.403,3.472,0
5.404,4.388,0
5.405,6.768,0
5.406,6.402,0
5.407,8.599,0
5.408,18.853,0
5.409,23.248,0
5.41,35.516,0
5.411,33.868,0
5.412,32.403,0
5.413,33.685,0
5.414,30.206,0
5.415,29.107,0
5.416,22.149,0
5.417,17.572,0
5.418,16.839,0
5.419,11.529,0
5.42,1.275,0
5.421,-21.247,0
5.422,-30.768,0
5.423,-39.557,0
5.424,-52.924,0
5.425,-65.009,0
5.426,-62.812,0
5.427,-48.713,0
5.428,-43.219,0
5.429,-38.276,0
5.43,-36.811,0
5.431,-49.079,0
5.432,-73.981,0
5.433,-91.742,0
5.434,-114.26,0
5.435,-146.86,0
5.436,-177.07,0
5.437,-188.79,0
5.438,-199.41,0
5.439,-189.89,0
5.44,-163.15,0
5.441,-159.68,0
5.442,-117.38,0
5.443,-88.63,0
5.444,-9.894,0
5.445,136.96,0
5.446,197.01,0
5.447,215.14,0
5.448,231.62,0
5.449,186.58,0
5.45,173.03,0
5.451,135.68,0
5.452,146.84,0
5.453,116.08,0
5.454,125.42,0
5.455,150.69,0
5.456,173.76,0
5.457,195.37,0
5.458,202.32,0
5.459,196.1,0
5.46,178.89,0
5.461,163.32,0
5.462,158.56,0
5.463,145.75,0
5.464,118.28,0
5.465,86.053,0
5.466,47.052,0
5.467,31.488,0
5.468,17.205,0
5.469,4.388,0
5.47,0.543,0
5.471,-10.077,0
5.472,-19.599,0
5.473,-34.43,0
5.474,-47.797,0
5.475,-54.938,0
5.476,-52.741,0
5.477,-62.812,0
5.478,-71.967,0
5.479,-76.911,0
5.48,-78.376,0
5.481,-74.347,0
5.482,-73.249,0
5.483,-81.122,0
5.484,-80.207,0
5.485,-86.615,0
5.486,-88.996,0
5.487,-86.799,0
5.488,-90.094,0
5.489,-84.418,0
5.49,-82.221,0
5.491,-80.39,0
5.492,-75.995,0
5.493,-75.446,0
5.494,-68.854,0
5.495,-60.431,0
5.496,-54.755,0
5.497,-51.825,0
5.498,-49.079,0
5.499,-38.276,0
5.5,-33.881,0
5.501,-24.36,0
5.502,-15.937,0
5.503,-12.641,0
5.504,-15.571,0
5.505,-12.824,0
5.506,-2.021,0
5.507,-6.415,0
5.508,-8.246,0
5.509,-4.218,0
5.51,6.951,0
5.511,14.459,0
5.512,15.74,0
5.513,9.698,0
5.514,8.599,0
5.515,5.67,0
5.516,6.585,0
5.517,5.853,0
5.518,5.12,0
5.519,9.698,0
5.52,10.247,0
5.521,11.895,0
5.522,9.515,0
5.523,12.628,0
5.524,13.726,0
5.525,17.938,0
5.526,18.487,0
5.527,17.205,0
5.528,12.994,0
5.529,15.74,0
5.53,12.445,0
5.531,13.726,0
5.532,9.881,0
5.533,5.303,0
5.534,4.754,0
5.535,6.402,0
5.536,6.768,0
5.537,6.402,0
5.538,12.628,0
5.539,11.712,0
5.54,7.684,0
5.541,6.951,0
5.542,10.247,0
5.543,8.416,0
5.544,6.768,0
5.545,6.402,0
5.546,8.599,0
5.547,7.501,0
5.548,5.67,0
5.549,1.641,0
5.55,2.008,0
5.551,2.374,0
5.552,2.008,0
5.553,5.487,0
5.554,6.768,0
5.555,1.275,0
5.556,6.585,0
5.557,8.416,0
5.558,7.867,0
5.559,2.008,0
5.56,3.656,0
5.561,11.163,0
5.562,10.064,0
5.563,5.12,0
5.564,13.543,0
5.565,12.445,0
5.566,-2.753,0
5.567,-0.556,0
5.568,1.458,0
5.569,-4.035,0
5.57,-2.387,0
5.571,2.008,0
5.572,0.726,0
5.573,1.824,0
5.574,-1.471,0
5.575,3.472,0
5.576,2.557,0
5.577,0.177,0
5.578,0.909,0
5.579,0.36,0
5.58,0.909,0
5.581,-2.936,0
5.582,1.641,0
5.583,-1.471,0
5.584,0.177,0
5.585,-3.119,0
5.586,-0.922,0
5.587,-2.021,0
5.588,-0.922,0
5.589,-2.021,0
5.59,-2.204,0
5.591,2.008,0
5.592,0.177,0
5.593,2.923,0
5.594,1.641,0
5.595,-0.556,0
5.596,4.937,0
5.597,-0.373,0
5.598,-2.204,0
5.599,-4.035,0
5.6,-5.683,0
5.601,-2.387,0
5.602,0.726,0
5.603,-2.021,0
5.604,0.543,0
5.605,-2.753,0
5.606,-3.119,0
5.607,-1.288,0
5.608,4.205,0
5.609,9.515,0
5.61,2.008,0
5.611,1.458,0
5.612,10.98,0
5.613,1.458,0
5.614,12.628,0
5.615,-3.852,0
5.616,-14.838,0
5.617,-0.739,0
5.618,-2.57,0
5.619,-0.922,0
5.62,-2.387,0
5.621,-1.105,0
5.622,-0.007,0
5.623,-5.683,0
5.624,-4.767,0
5.625,-5.683,0
5.626,-6.415,0
5.627,-1.105,0
5.628,-0.556,0
5.629,-0.007,0
5.63,8.416,0
5.631,4.937,0
5.632,-2.936,0
5.633,-0.007,0
5.634,0.909,0
5.635,-1.471,0
5.636,-2.204,0
5.637,2.374,0
5.638,0.543,0
5.639,1.092,0
5.64,-2.204,0
5.641,-0.007,0
5.642,-2.753,0
5.643,0.726,0
5.644,-1.471,0
5.645,-1.105,0
5.646,-1.471,0
5.647,-6.232,0
5.648,-1.838,0
5.649,3.289,0
5.65,1.458,0
5.651,-1.655,0
5.652,1.092,0
5.653,-2.204,0
5.654,-3.486,0
5.655,-3.119,0
5.656,-0.556,0
5.657,-0.922,0
5.658,1.092,0
5.659,1.275,0
5.66,-2.204,0
5.661,-0.922,0
5.662,-1.288,0
5.663,4.937,0
5.664,2.191,0
5.665,11.346,0
5.666,10.247,0
5.667,2.374,0
5.668,-2.57,0
5.669,0.177,0
5.67,-0.556,0
5.671,-1.288,0
5.672,-3.119,0
5.673,-1.288,0
5.674,2.557,0
5.675,0.177,0
5.676,-1.105,0
5.677,-2.204,0
5.678,0.36,0
5.679,3.656,0
5.68,2.557,0
5.681,-1.655,0
5.682,-1.105,0
5.683,-3.486,0
5.684,-0.373,0
5.685,0.726,0
5.686,3.289,0
5.687,6.585,0
5.688,4.571,0
5.689,3.472,0
5.69,1.641,0
5.691,2.374,0
5.692,-1.838,0
5.693,-3.669,0
5.694,-5.317,0
5.695,-4.035,0
5.696,-6.232,0
5.697,-0.739,0
5.698,3.106,0
5.699,3.656,0
5.7,5.487,0
5.701,1.641,0
5.702,2.923,0
5.703,6.036,0
5.704,4.937,0
5.705,2.374,0
5.706,-0.19,0
5.707,-2.936,0
5.708,1.275,0
5.709,-6.049,0
5.71,5.12,0
5.711,-2.387,0
5.712,1.275,0
5.713,2.557,0
5.714,6.036,0
5.715,2.74,0
5.716,1.824,0
5.717,6.402,0
5.718,12.078,0
5.719,0.543,0
5.72,2.191,0
5.721,-5.317,0
5.722,-6.598,0
5.723,-5.5,0
5.724,-4.401,0
5.725,2.557,0
5.726,-2.021,0
5.727,5.487,0
5.728,6.402,0
5.729,1.824,0
5.73,1.092,0
5.731,0.36,0
5.732,-4.218,0
5.733,-4.767,0
5.734,0.36,0
5.735,2.191,0
5.736,4.022,0
5.737,4.571,0
5.738,7.867,0
5.739,0.909,0
5.74,-6.049,0
5.741,-1.471,0
5.742,2.557,0
5.743,6.402,0
5.744,9.698,0
5.745,5.303,0
5.746,-3.119,0
5.747,-4.218,0
5.748,3.656,0
5.749,0.726,0
5.75,3.472,0
5.751,-0.556,0
5.752,-4.401,0
5.753,-2.57,0
5.754,-2.021,0
5.755,-2.57,0
5.756,2.923,0
5.757,0.726,0
5.758,-1.105,0
5.759,-0.556,0
5.76,1.092,0
5.761,-1.288,0
5.762,-3.486,0
5.763,-6.049,0
5.764,-4.95,0
5.765,0.726,0
5.766,11.529,0
5.767,10.064,0
5.768,8.782,0
5.769,2.74,0
5.77,1.641,0
5.771,2.557,0
5.772,1.641,0
5.773,-2.387,0
5.774,-1.655,0
5.775,-4.95,0
5.776,-6.781,0
5.777,-5.134,0
5.778,-5.5,0
5.779,-2.387,0
5.78,-2.021,0
5.781,2.191,0
5.782,-2.936,0
5.783,-1.105,0
5.784,0.726,0
5.785,2.374,0
5.786,-0.007,0
5.787,-1.288,0
5.788,-3.302,0
5.789,0.177,0
5.79,-1.105,0
5.791,-2.204,0
5.792,-3.302,0
5.793,-0.007,0
5.794,-2.021,0
5.795,2.191,0
5.796,-0.556,0
5.797,1.824,0
5.798,-0.373,0
5.799,-0.007,0
5.8,-5.683,0
5.801,-1.655,0
5.802,0.543,0
5.803,-5.683,0
5.804,-1.655,0
5.805,2.191,0
5.806,2.74,0
5.807,-0.373,0
5.808,-0.922,0
5.809,-0.556,0
5.81,-0.922,0
5.811,-2.936,0
5.812,-1.105,0
5.813,2.191,0
5.814,2.74,0
5.815,3.839,0
5.816,9.515,0
5.817,10.247,0
5.818,20.318,0
5.819,10.797,0
5.82,2.374,0
5.821,3.472,0
5.822,0.543,0
5.823,-0.373,0
5.824,-2.753,0
5.825,-6.598,0
5.826,-2.021,0
5.827,-2.57,0
5.828,-3.119,0
5.829,-6.415,0
5.83,-2.204,0
5.831,-1.655,0
5.832,-6.232,0
5.833,-5.683,0
5.834,-4.035,0
5.835,-4.401,0
5.836,-1.288,0
5.837,-0.922,0
5.838,0.177,0
5.839,3.472,0
5.84,2.374,0
5.841,1.275,0
5.842,-2.753,0
5.843,4.754,0
5.844,3.656,0
5.845,-1.288,0
5.846,-0.373,0
5.847,-4.401,0
5.848,0.909,0
5.849,0.36,0
5.85,2.191,0
5.851,1.641,0
5.852,-4.95,0
5.853,3.472,0
5.854,4.571,0
5.855,5.487,0
5.856,2.74,0
5.857,5.12,0
5.858,2.923,0
5.859,3.472,0
5.86,4.022,0
5.861,2.374,0
5.862,-0.922,0
5.863,-1.288,0
5.864,1.458,0
5.865,2.74,0
5.866,-0.739,0
5.867,6.219,0
5.868,1.275,0
5.869,5.853,0
5.87,3.472,0
5.871,-6.598,0
5.872,-5.317,0
5.873,-4.218,0
5.874,-0.922,0
5.875,-1.838,0
5.876,-0.922,0
5.877,1.458,0
5.878,-3.852,0
5.879,-3.302,0
5.88,-1.471,0
5.881,3.656,0
5.882,1.824,0
5.883,1.275,0
5.884,0.726,0
5.885,0.36,0
5.886,-0.922,0
5.887,1.092,0
5.888,-0.007,0
5.889,1.092,0
5.89,3.106,0
5.891,2.923,0
5.892,-1.105,0
5.893,-4.95,0
5.894,-3.669,0
5.895,-0.556,0
5.896,-5.134,0
5.897,-2.021,0
5.898,-0.373,0
5.899,-0.739,0
5.9,2.374,0
5.901,2.008,0
5.902,6.219,0
5.903,-0.007,0
5.904,4.022,0
5.905,4.754,0
5.906,2.923,0
5.907,-0.19,0
5.908,2.557,0
5.909,-4.95,0
5.91,0.726,0
5.911,1.641,0
5.912,2.557,0
5.913,0.177,0
5.914,-5.134,0
5.915,-5.683,0
5.916,-3.852,0
5.917,-6.965,0
5.918,1.458,0
5.919,-2.021,0
5.92,8.233,0
5.921,9.515,0
5.922,3.472,0
5.923,0.177,0
5.924,-0.739,0
5.925,-3.486,0
5.926,-7.514,0
5.927,-3.669,0
5.928,3.839,0
5.929,6.768,0
5.93,7.684,0
5.931,8.416,0
5.932,6.219,0
5.933,4.388,0
5.934,2.557,0
5.935,3.106,0
5.936,-3.486,0
5.937,-9.894,0
5.938,-13.923,0
5.939,-11.725,0
5.94,-7.148,0
5.941,-4.035,0
5.942,-6.781,0
5.943,-4.401,0
5.944,-2.204,0
5.945,0.543,0
5.946,0.909,0
5.947,1.275,0
5.948,2.74,0
5.949,0.909,0
5.95,0.726,0
5.951,4.205,0
5.952,6.585,0
5.953,2.374,0
5.954,0.726,0
5.955,5.303,0
5.956,2.191,0
5.957,7.318,0
5.958,4.022,0
5.959,3.472,0
5.96,-1.655,0
5.961,0.177,0
5.962,2.008,0
5.963,5.853,0
5.964,7.135,0
5.965,2.923,0
5.966,3.472,0
5.967,0.543,0
5.968,-2.753,0
5.969,4.205,0
5.97,3.289,0
5.971,6.036,0
5.972,11.712,0
5.973,13.909,0
5.974,3.656,0
5.975,-6.781,0
5.976,-8.063,0
5.977,0.36,0
5.978,3.656,0
5.979,-5.5,0
5.98,-8.979,0
5.981,-5.683,0
5.982,1.275,0
5.983,-3.302,0
5.984,0.726,0
5.985,-6.232,0
5.986,-1.655,0
5.987,0.726,0
5.988,1.458,0
5.989,-6.049,0
5.99,-3.119,0
5.991,3.289,0
5.992,-0.739,0
5.993,-6.049,0
5.994,-5.5,0
5.995,-3.669,0
5.996,-2.021,0
5.997,-5.317,0
5.998,-12.275,0
5.999,-1.105,0
6,3.289,0
6.001,2.008,0
6.002,3.106,0
6.003,-0.19,0
6.004,2.74,0
6.005,1.824,0
6.006,-0.556,0
6.007,3.289,0
6.008,2.74,0
6.009,4.571,0
6.01,8.416,0
6.011,8.05,0
6.012,8.416,0
6.013,10.43,0
6.014,4.754,0
6.015,4.022,0
6.016,-2.936,0
6.017,-3.852,0
6.018,3.472,0
6.019,-0.556,0
6.02,10.98,0
6.021,6.036,0
6.022,13.543,0
6.023,9.515,0
6.024,3.472,0
6.025,-6.781,0
6.026,-8.063,0
6.027,-4.584,0
6.028,-7.88,0
6.029,-6.965,0
6.03,-6.049,0
6.031,-0.373,0
6.032,-1.105,0
6.033,0.726,0
6.034,-1.105,0
6.035,-2.753,0
6.036,-1.471,0
6.037,-2.753,0
6.038,1.824,0
6.039,-0.007,0
6.04,-2.753,0
6.041,-4.035,0
6.042,1.092,0
6.043,4.388,0
6.044,-0.007,0
6.045,-5.134,0
6.046,-1.838,0
6.047,1.275,0
6.048,-0.373,0
6.049,2.923,0
6.05,-1.288,0
6.051,0.36,0
6.052,3.656,0
6.053,0.543,0
6.054,1.641,0
6.055,7.318,0
6.056,11.346,0
6.057,16.656,0
6.058,17.205,0
6.059,22.882,0
6.06,25.079,0
6.061,29.656,0
6.062,34.051,0
6.063,25.628,0
6.064,19.586,0
6.065,22.882,0
6.066,13.726,0
6.067,10.247,0
6.068,9.149,0
6.069,-4.584,0
6.07,-13.74,0
6.071,-17.219,0
6.072,-32.05,0
6.073,-26.008,0
6.074,-49.811,0
6.075,-46.698,0
6.076,-49.628,0
6.077,-47.065,0
6.078,-34.98,0
6.079,-28.388,0
6.08,-34.43,0
6.081,-54.572,0
6.082,-78.742,0
6.083,-88.263,0
6.084,-120.86,0
6.085,-159.86,0
6.086,-175.42,0
6.087,-180.18,0
6.088,-184.39,0
6.089,-164.8,0
6.09,-168.28,0
6.091,-132.57,0
6.092,-89.545,0
6.093,-14.472,0
6.094,98.504,0
6.095,173.76,0
6.096,187.31,0
6.097,174.86,0
6.098,186.03,0
6.099,155.27,0
6.1,108.58,0
6.101,117,0
6.102,93.927,0
6.103,100.89,0
6.104,119.74,0
6.105,136.96,0
6.106,163.14,0
6.107,167.9,0
6.108,155.08,0
6.109,151.24,0
6.11,140.62,0
6.111,137.51,0
6.112,134.58,0
6.113,115.9,0
6.114,93.927,0
6.115,61.334,0
6.116,39.727,0
6.117,35.882,0
6.118,25.262,0
6.119,22.149,0
6.12,11.529,0
6.121,-3.302,0
6.122,-11.176,0
6.123,-33.149,0
6.124,-47.98,0
6.125,-45.417,0
6.126,-52.558,0
6.127,-54.755,0
6.128,-56.769,0
6.129,-62.262,0
6.13,-57.319,0
6.131,-61.713,0
6.132,-68.488,0
6.133,-71.967,0
6.134,-73.066,0
6.135,-73.981,0
6.136,-78.559,0
6.137,-79.291,0
6.138,-86.249,0
6.139,-88.996,0
6.14,-88.263,0
6.141,-79.841,0
6.142,-71.967,0
6.143,-67.023,0
6.144,-56.769,0
6.145,-58.051,0
6.146,-52.009,0
6.147,-48.713,0
6.148,-37.543,0
6.149,-33.149,0
6.15,-29.12,0
6.151,-25.641,0
6.152,-17.768,0
6.153,-16.852,0
6.154,-14.106,0
6.155,-6.598,0
6.156,-1.655,0
6.157,-0.739,0
6.158,3.289,0
6.159,-2.021,0
6.16,2.557,0
6.161,-0.556,0
6.162,-1.105,0
6.163,4.388,0
6.164,9.698,0
6.165,7.867,0
6.166,6.036,0
6.167,7.684,0
6.168,13.177,0
6.169,17.022,0
6.17,16.473,0
6.171,10.797,0
6.172,13.909,0
6.173,22.332,0
6.174,21.234,0
6.175,26.91,0
6.176,23.98,0
6.177,10.064,0
6.178,8.05,0
6.179,2.557,0
6.18,4.205,0
6.181,-0.19,0
6.182,3.839,0
6.183,4.937,0
6.184,6.036,0
6.185,5.12,0
6.186,6.036,0
6.187,6.768,0
6.188,10.614,0
6.189,12.445,0
6.19,14.276,0
6.191,14.825,0
6.192,11.529,0
6.193,5.487,0
6.194,7.867,0
6.195,5.67,0
6.196,-1.838,0
6.197,1.092,0
6.198,5.67,0
6.199,6.402,0
6.2,4.205,0
6.201,8.782,0
6.202,9.332,0
6.203,3.106,0
6.204,3.839,0
6.205,3.106,0
6.206,4.937,0
6.207,5.487,0
6.208,3.839,0
6.209,5.12,0
6.21,-0.922,0
6.211,-4.95,0
6.212,-2.753,0
6.213,-3.302,0
6.214,2.374,0
6.215,3.106,0
6.216,-1.471,0
6.217,2.923,0
6.218,2.374,0
6.219,2.74,0
6.22,2.374,0
6.221,-0.373,0
6.222,-0.922,0
6.223,-6.598,0
6.224,5.853,0
6.225,-3.302,0
6.226,-1.655,0
6.227,14.825,0
6.228,-5.134,0
6.229,-7.697,0
6.23,-0.556,0
6.231,1.641,0
6.232,7.684,0
6.233,5.853,0
6.234,7.501,0
6.235,6.036,0
6.236,-0.739,0
6.237,-4.218,0
6.238,-3.119,0
6.239,-0.19,0
6.24,-1.105,0
6.241,-3.486,0
6.242,-4.218,0
6.243,0.36,0
6.244,0.909,0
6.245,9.332,0
6.246,3.289,0
6.247,-0.007,0
6.248,-0.922,0
6.249,-0.007,0
6.25,-4.035,0
6.251,-4.767,0
6.252,-9.345,0
6.253,-3.669,0
6.254,4.754,0
6.255,3.656,0
6.256,0.726,0
6.257,-2.021,0
6.258,-6.049,0
6.259,0.909,0
6.26,-5.5,0
6.261,-6.232,0
6.262,-6.965,0
6.263,-2.387,0
6.264,-1.838,0
6.265,-1.288,0
6.266,5.303,0
6.267,4.388,0
6.268,5.12,0
6.269,-3.302,0
6.27,-0.007,0
6.271,-0.922,0
6.272,-0.007,0
6.273,4.205,0
6.274,6.585,0
6.275,5.853,0
6.276,1.275,0
6.277,-3.119,0
6.278,3.106,0
6.279,10.614,0
6.28,1.458,0
6.281,-2.021,0
6.282,5.853,0
6.283,4.937,0
6.284,-5.317,0
6.285,-1.288,0
6.286,-2.387,0
6.287,-5.683,0
6.288,-2.753,0
6.289,-0.007,0
6.29,0.726,0
6.291,-3.119,0
6.292,-2.57,0
6.293,6.951,0
6.294,5.67,0
6.295,-5.5,0
6.296,-4.035,0
6.297,-5.317,0
6.298,-1.838,0
6.299,3.839,0
6.3,2.923,0
6.301,-5.5,0
6.302,2.374,0
6.303,7.318,0
6.304,4.571,0
6.305,-1.105,0
6.306,-1.838,0
6.307,-5.134,0
6.308,-4.584,0
6.309,-5.134,0
6.31,-0.556,0
6.311,-1.105,0
6.312,-6.232,0
6.313,-2.936,0
6.314,1.458,0
6.315,0.909,0
6.316,-0.373,0
6.317,0.909,0
6.318,-1.105,0
6.319,-4.584,0
6.32,-4.95,0
6.321,-3.852,0
6.322,-6.415,0
6.323,-2.387,0
6.324,2.008,0
6.325,9.515,0
6.326,17.388,0
6.327,8.233,0
6.328,24.346,0
6.329,22.149,0
6.33,-4.035,0
6.331,-7.514,0
6.332,2.008,0
6.333,-6.781,0
6.334,-4.218,0
6.335,-6.598,0
6.336,-0.007,0
6.337,-2.021,0
6.338,-0.19,0
6.339,8.05,0
6.34,6.585,0
6.341,-0.19,0
6.342,-1.288,0
6.343,-0.19,0
6.344,-3.119,0
6.345,1.458,0
6.346,2.191,0
6.347,-0.007,0
6.348,1.824,0
6.349,-1.288,0
6.35,-0.739,0
6.351,-0.373,0
6.352,-0.007,0
6.353,4.571,0
6.354,6.402,0
6.355,2.557,0
6.356,3.839,0
6.357,0.726,0
6.358,-3.852,0
6.359,-0.739,0
6.36,-1.288,0
6.361,1.092,0
6.362,5.303,0
6.363,-2.021,0
6.364,-4.95,0
6.365,-9.528,0
6.366,-13.556,0
6.367,-11.359,0
6.368,-10.81,0
6.369,-20.331,0
6.37,-5.317,0
6.371,8.782,0
6.372,10.614,0
6.373,12.261,0
6.374,7.867,0
6.375,8.599,0
6.376,4.571,0
6.377,10.614,0
6.378,-6.415,0
6.379,0.726,0
6.38,-5.866,0
6.381,-15.937,0
6.382,-17.768,0
6.383,-16.12,0
6.384,-14.655,0
6.385,-7.88,0
6.386,0.543,0
6.387,10.797,0
6.388,14.825,0
6.389,18.304,0
6.39,12.628,0
6.391,9.698,0
6.392,6.951,0
6.393,4.571,0
6.394,6.768,0
6.395,0.543,0
6.396,-3.486,0
6.397,-10.444,0
6.398,-4.035,0
6.399,-9.711,0
6.4,-5.866,0
6.401,-14.838,0
6.402,-11.359,0
6.403,5.67,0
6.404,8.05,0
6.405,1.458,0
6.406,7.501,0
6.407,12.994,0
6.408,4.754,0
6.409,0.36,0
6.41,-3.669,0
6.411,-4.767,0
6.412,-5.866,0
6.413,-6.781,0
6.414,-2.204,0
6.415,-2.936,0
6.416,-6.781,0
6.417,-2.204,0
6.418,4.754,0
6.419,5.67,0
6.42,-0.007,0
6.421,-3.852,0
6.422,-2.021,0
6.423,3.656,0
6.424,4.388,0
6.425,3.839,0
6.426,3.472,0
6.427,-2.204,0
6.428,-4.401,0
6.429,-1.105,0
6.43,-4.218,0
6.431,2.008,0
6.432,-0.373,0
6.433,3.472,0
6.434,8.05,0
6.435,11.163,0
6.436,6.036,0
6.437,4.205,0
6.438,-1.471,0
6.439,2.374,0
6.44,6.951,0
6.441,8.782,0
6.442,9.332,0
6.443,1.824,0
6.444,-6.049,0
6.445,-8.979,0
6.446,-4.401,0
6.447,-5.134,0
6.448,-7.331,0
6.449,-11.908,0
6.45,-4.95,0
6.451,-0.373,0
6.452,-2.753,0
6.453,-3.486,0
6.454,-1.655,0
6.455,1.458,0
6.456,5.303,0
6.457,4.022,0
6.458,1.824,0
6.459,1.458,0
6.46,-3.486,0
6.461,-5.317,0
6.462,-4.767,0
6.463,-0.922,0
6.464,-2.204,0
6.465,-3.486,0
6.466,-0.739,0
6.467,-1.105,0
6.468,-0.007,0
6.469,4.571,0
6.47,6.402,0
6.471,4.571,0
6.472,0.726,0
6.473,3.106,0
6.474,-2.021,0
6.475,-6.598,0
6.476,-3.486,0
6.477,-3.119,0
6.478,-0.373,0
6.479,7.135,0
6.48,15.008,0
6.481,17.938,0
6.482,18.853,0
6.483,8.05,0
6.484,0.543,0
6.485,-0.739,0
6.486,2.74,0
6.487,-0.556,0
6.488,-3.486,0
6.489,-0.739,0
6.49,1.641,0
6.491,-6.781,0
6.492,1.092,0
6.493,-3.852,0
6.494,-1.105,0
6.495,1.275,0
6.496,0.543,0
6.497,-6.965,0
6.498,-6.049,0
6.499,-5.134,0
6.5,0.543,0
6.501,-1.655,0
6.502,1.641,0
6.503,-4.035,0
6.504,-1.838,0
6.505,-9.345,0
6.506,-4.401,0
6.507,-1.655,0
6.508,10.797,0
6.509,8.966,0
6.51,0.726,0
6.511,-3.669,0
6.512,-2.387,0
6.513,-1.288,0
6.514,6.585,0
6.515,1.641,0
6.516,2.557,0
6.517,4.937,0
6.518,-2.021,0
6.519,6.402,0
6.52,7.501,0
6.521,0.543,0
6.522,1.458,0
6.523,0.726,0
6.524,2.923,0
6.525,-3.302,0
6.526,-0.922,0
6.527,1.275,0
6.528,-1.655,0
6.529,-1.105,0
6.53,4.571,0
6.531,0.726,0
6.532,8.233,0
6.533,-6.965,0
6.534,-9.162,0
6.535,-3.119,0
6.536,-4.95,0
6.537,-3.302,0
6.538,-4.767,0
6.539,-3.486,0
6.54,-0.007,0
6.541,10.247,0
6.542,6.219,0
6.543,7.318,0
6.544,4.022,0
6.545,1.092,0
6.546,0.177,0
6.547,-3.852,0
6.548,-1.655,0
6.549,-1.105,0
6.55,-0.556,0
6.551,-0.007,0
6.552,-3.302,0
6.553,-3.669,0
6.554,0.909,0
6.555,0.36,0
6.556,-0.19,0
6.557,-2.57,0
6.558,-2.936,0
6.559,-0.922,0
6.56,2.557,0
6.561,2.923,0
6.562,0.177,0
6.563,1.275,0
6.564,-4.218,0
6.565,4.205,0
6.566,3.106,0
6.567,-1.838,0
6.568,4.571,0
6.569,0.543,0
6.57,1.275,0
6.571,-0.556,0
6.572,2.557,0
6.573,0.909,0
6.574,-3.669,0
6.575,-1.838,0
6.576,0.909,0
6.577,4.205,0
6.578,-2.753,0
6.579,-3.119,0
6.58,-4.035,0
6.581,9.881,0
6.582,-0.19,0
6.583,-2.021,0
6.584,2.923,0
6.585,4.388,0
6.586,-5.134,0
6.587,-1.655,0
6.588,-0.556,0
6.589,0.36,0
6.59,1.275,0
6.591,6.951,0
6.592,1.641,0
6.593,-0.19,0
6.594,4.205,0
6.595,5.853,0
6.596,-1.655,0
6.597,-2.753,0
6.598,0.177,0
6.599,2.923,0
6.6,8.599,0
6.601,9.332,0
6.602,4.754,0
6.603,-4.767,0
6.604,-3.486,0
6.605,-0.007,0
6.606,10.247,0
6.607,0.726,0
6.608,4.205,0
6.609,-1.471,0
6.61,-2.387,0
6.611,4.022,0
6.612,4.754,0
6.613,2.557,0
6.614,5.853,0
6.615,-3.669,0
6.616,-7.697,0
6.617,-6.598,0
6.618,-3.302,0
6.619,-8.246,0
6.62,-1.838,0
6.621,-1.105,0
6.622,-3.302,0
6.623,-7.88,0
6.624,-3.486,0
6.625,-1.838,0
6.626,-0.556,0
6.627,-6.598,0
6.628,-7.331,0
6.629,-6.598,0
6.63,-6.781,0
6.631,-2.204,0
6.632,7.318,0
6.633,8.599,0
6.634,-2.57,0
6.635,13.909,0
6.636,7.318,0
6.637,1.275,0
6.638,-4.218,0
6.639,-9.162,0
6.64,1.275,0
6.641,-0.007,0
6.642,-3.486,0
6.643,2.191,0
6.644,9.149,0
6.645,4.571,0
6.646,5.303,0
6.647,-3.119,0
6.648,-2.021,0
6.649,0.909,0
6.65,3.656,0
6.651,-0.373,0
6.652,-2.57,0
6.653,-4.401,0
6.654,-2.57,0
6.655,-2.021,0
6.656,1.275,0
6.657,-0.922,0
6.658,-0.556,0
6.659,-4.767,0
6.66,-4.218,0
6.661,-6.598,0
6.662,-3.486,0
6.663,-3.852,0
6.664,1.824,0
6.665,2.557,0
6.666,3.289,0
6.667,5.12,0
6.668,3.289,0
6.669,6.036,0
6.67,6.402,0
6.671,2.191,0
6.672,1.641,0
6.673,0.36,0
6.674,2.557,0
6.675,0.543,0
6.676,2.374,0
6.677,-1.655,0
6.678,-4.95,0
6.679,-4.584,0
6.68,-4.218,0
6.681,-3.119,0
6.682,-0.556,0
6.683,4.937,0
6.684,1.092,0
6.685,-5.134,0
6.686,7.318,0
6.687,12.811,0
6.688,1.275,0
6.689,2.74,0
6.69,4.022,0
6.691,-2.021,0
6.692,-5.317,0
6.693,-2.387,0
6.694,-1.471,0
6.695,0.909,0
6.696,1.641,0
6.697,10.614,0
6.698,21.783,0
6.699,11.346,0
6.7,20.867,0
6.701,21.966,0
6.702,16.29,0
6.703,21.234,0
6.704,31.488,0
6.705,32.769,0
6.706,19.219,0
6.707,13.726,0
6.708,15.374,0
6.709,13.909,0
6.71,9.881,0
6.711,-3.669,0
6.712,-16.486,0
6.713,-18.134,0
6.714,-22.529,0
6.715,-32.05,0
6.716,-43.219,0
6.717,-47.614,0
6.718,-27.106,0
6.719,-24.177,0
6.72,-16.303,0
6.721,-13.923,0
6.722,-16.12,0
6.723,-34.247,0
6.724,-60.981,0
6.725,-71.601,0
6.726,-113.9,0
6.727,-142.65,0
6.728,-158.21,0
6.729,-172.49,0
6.73,-176.7,0
6.731,-188.42,0
6.732,-173.04,0
6.733,-140.81,0
6.734,-75.812,0
6.735,26.91,0
6.736,122.49,0
6.737,159.84,0
6.738,171.01,0
6.739,160.76,0
6.74,151.42,0
6.741,109.12,0
6.742,86.053,0
6.743,65.179,0
6.744,58.953,0
6.745,53.277,0
6.746,58.404,0
6.747,72.686,0
6.748,85.504,0
6.749,105.1,0
6.75,101.62,0
6.751,111.14,0
6.752,119.93,0
6.753,133.29,0
6.754,140.44,0
6.755,138.24,0
6.756,112.05,0
6.757,87.152,0
6.758,64.63,0
6.759,55.841,0
6.76,53.277,0
6.761,50.897,0
6.762,35.516,0
6.763,21.417,0
6.764,8.599,0
6.765,-9.711,0
6.766,-12.092,0
6.767,-23.078,0
6.768,-25.092,0
6.769,-30.585,0
6.77,-42.121,0
6.771,-49.628,0
6.772,-53.656,0
6.773,-47.614,0
6.774,-53.29,0
6.775,-58.234,0
6.776,-64.643,0
6.777,-63.91,0
6.778,-60.065,0
6.779,-61.896,0
6.78,-66.291,0
6.781,-66.84,0
6.782,-70.136,0
6.783,-63.91,0
6.784,-62.629,0
6.785,-57.135,0
6.786,-57.868,0
6.787,-47.614,0
6.788,-46.149,0
6.789,-47.431,0
6.79,-53.473,0
6.791,-52.375,0
6.792,-47.431,0
6.793,-41.022,0
6.794,-30.219,0
6.795,-19.782,0
6.796,-18.5,0
6.797,-7.331,0
6.798,-2.936,0
6.799,-4.218,0
6.8,-0.739,0
6.801,-4.035,0
6.802,-3.119,0
6.803,3.289,0
6.804,0.909,0
6.805,6.219,0
6.806,-1.288,0
6.807,-2.204,0
6.808,0.543,0
6.809,2.923,0
6.81,0.726,0
6.811,5.303,0
6.812,3.472,0
6.813,10.797,0
6.814,15.74,0
6.815,14.825,0
6.816,14.093,0
6.817,11.895,0
6.818,12.445,0
6.819,15.557,0
6.82,13.909,0
6.821,12.628,0
6.822,14.825,0
6.823,10.98,0
6.824,12.261,0
6.825,12.628,0
6.826,10.614,0
6.827,10.247,0
6.828,9.881,0
6.829,5.303,0
6.83,5.853,0
6.831,2.74,0
6.832,6.585,0
6.833,3.289,0
6.834,3.472,0
6.835,5.67,0
6.836,11.895,0
6.837,7.318,0
6.838,6.585,0
6.839,15.008,0
6.84,2.557,0
6.841,0.909,0
6.842,8.416,0
6.843,7.135,0
6.844,6.036,0
6.845,4.937,0
6.846,-0.007,0
6.847,0.909,0
6.848,4.937,0
6.849,2.74,0
6.85,0.909,0
6.851,1.458,0
6.852,4.205,0
6.853,1.824,0
6.854,2.191,0
6.855,-0.556,0
6.856,-2.387,0
6.857,3.106,0
6.858,3.839,0
6.859,14.093,0
6.86,3.656,0
6.861,2.374,0
6.862,-1.105,0
6.863,-2.204,0
6.864,-3.119,0
6.865,-4.035,0
6.866,3.472,0
6.867,0.543,0
6.868,5.12,0
6.869,4.388,0
6.87,2.191,0
6.871,-1.105,0
6.872,-0.556,0
6.873,4.571,0
6.874,-2.936,0
6.875,-3.852,0
6.876,-1.105,0
6.877,-1.838,0
6.878,3.472,0
6.879,5.303,0
6.88,-2.936,0
6.881,-6.232,0
6.882,-3.302,0
6.883,-4.218,0
6.884,-4.95,0
6.885,-6.781,0
6.886,1.641,0
6.887,11.895,0
6.888,5.12,0
6.889,8.599,0
6.89,7.501,0
6.891,0.543,0
6.892,6.951,0
6.893,-0.556,0
6.894,-5.5,0
6.895,-6.415,0
6.896,2.74,0
6.897,3.839,0
6.898,-1.838,0
6.899,-0.922,0
6.9,-5.5,0
6.901,-3.119,0
6.902,-5.317,0
6.903,-3.486,0
6.904,0.909,0
6.905,-6.415,0
6.906,-1.471,0
6.907,12.445,0
6.908,14.459,0
6.909,8.966,0
6.91,4.022,0
6.911,2.557,0
6.912,1.275,0
6.913,2.374,0
6.914,3.472,0
6.915,0.543,0
6.916,-5.866,0
6.917,-1.838,0
6.918,-4.035,0
6.919,-2.204,0
6.92,2.191,0
6.921,-0.556,0
6.922,1.824,0
6.923,-1.288,0
6.924,3.289,0
6.925,-3.669,0
6.926,-2.753,0
6.927,-3.486,0
6.928,-1.288,0
6.929,-0.739,0
6.93,1.092,0
6.931,1.641,0
6.932,-1.655,0
6.933,-2.936,0
6.934,-0.19,0
6.935,-1.288,0
6.936,-0.922,0
6.937,2.374,0
6.938,8.599,0
6.939,4.022,0
6.94,8.05,0
6.941,7.318,0
6.942,-2.936,0
6.943,-4.401,0
6.944,-0.373,0
6.945,-3.852,0
6.946,-4.95,0
6.947,-5.866,0
6.948,-3.119,0
6.949,-0.739,0
6.95,-2.936,0
6.951,-1.105,0
6.952,-5.5,0
6.953,-2.753,0
6.954,-6.049,0
6.955,-4.767,0
6.956,-2.753,0
6.957,-0.922,0
6.958,-3.486,0
6.959,-8.063,0
6.96,-4.767,0
6.961,-4.218,0
6.962,-1.471,0
6.963,-2.753,0
6.964,-0.556,0
6.965,2.191,0
6.966,4.022,0
6.967,3.656,0
6.968,-0.373,0
6.969,-0.922,0
6.97,-0.556,0
6.971,-2.753,0
6.972,-0.007,0
6.973,-0.373,0
6.974,2.923,0
6.975,1.824,0
6.976,2.191,0
6.977,0.36,0
6.978,0.543,0
6.979,1.275,0
6.98,-1.655,0
6.981,-0.556,0
6.982,1.275,0
6.983,-0.739,0
6.984,-0.922,0
6.985,3.106,0
6.986,1.458,0
6.987,1.275,0
6.988,2.557,0
6.989,8.599,0
6.99,4.571,0
6.991,5.303,0
6.992,7.135,0
6.993,-2.387,0
6.994,-3.669,0
6.995,-2.57,0
6.996,-3.669,0
6.997,-0.739,0
6.998,-3.486,0
6.999,-1.105,0
7,-3.302,0
7.001,-2.753,0
7.002,-2.204,0
7.003,4.022,0
7.004,-0.007,0
7.005,-0.739,0
7.006,1.092,0
7.007,1.641,0
7.008,-3.486,0
7.009,4.022,0
7.01,4.937,0
7.011,0.36,0
7.012,-2.021,0
7.013,3.289,0
7.014,2.74,0
7.015,0.909,0
7.016,2.557,0
7.017,0.177,0
7.018,4.388,0
7.019,3.839,0
7.02,-2.753,0
7.021,-9.162,0
7.022,-3.486,0
7.023,0.36,0
7.024,0.909,0
7.025,-3.486,0
7.026,-5.134,0
7.027,-6.415,0
7.028,-3.302,0
7.029,-2.936,0
7.03,-1.838,0
7.031,-3.669,0
7.032,-2.204,0
7.033,-2.387,0
7.034,1.641,0
7.035,-1.105,0
7.036,3.472,0
7.037,4.022,0
7.038,7.135,0
7.039,6.585,0
7.04,14.093,0
7.041,10.797,0
7.042,11.712,0
7.043,1.458,0
7.044,0.177,0
7.045,-0.922,0
7.046,0.177,0
7.047,-0.739,0
7.048,-7.148,0
7.049,-1.471,0
7.05,-2.204,0
7.051,-0.373,0
7.052,0.177,0
7.053,-1.471,0
7.054,-3.852,0
7.055,-0.739,0
7.056,-0.373,0
7.057,3.106,0
7.058,-2.021,0
7.059,-0.19,0
7.06,1.641,0
7.061,-0.007,0
7.062,-1.288,0
7.063,-4.401,0
7.064,-3.302,0
7.065,1.641,0
7.066,-2.936,0
7.067,0.177,0
7.068,1.824,0
7.069,-0.556,0
7.07,-0.922,0
7.071,-2.021,0
7.072,-0.19,0
7.073,-1.288,0
7.074,-1.105,0
7.075,1.458,0
7.076,-0.373,0
7.077,-1.838,0
7.078,-1.105,0
7.079,0.726,0
7.08,0.543,0
7.081,-1.838,0
7.082,-2.57,0
7.083,-3.302,0
7.084,0.726,0
7.085,0.177,0
7.086,-0.19,0
7.087,-1.471,0
7.088,2.374,0
7.089,4.205,0
7.09,4.571,0
7.091,11.529,0
7.092,4.571,0
7.093,1.824,0
7.094,7.501,0
7.095,9.698,0
7.096,6.402,0
7.097,3.289,0
7.098,-2.936,0
7.099,-3.669,0
7.1,-2.936,0
7.101,0.36,0
7.102,-2.753,0
7.103,-1.105,0
7.104,-2.387,0
7.105,4.571,0
7.106,1.641,0
7.107,-4.767,0
7.108,-5.5,0
7.109,-1.655,0
7.11,0.177,0
7.111,0.726,0
7.112,-0.922,0
7.113,-2.204,0
7.114,-4.401,0
7.115,-4.767,0
7.116,-6.598,0
7.117,-7.697,0
7.118,-3.119,0
7.119,3.106,0
7.12,3.839,0
7.121,7.684,0
7.122,1.458,0
7.123,-0.922,0
7.124,2.923,0
7.125,1.092,0
7.126,4.205,0
7.127,2.557,0
7.128,3.839,0
7.129,0.726,0
7.13,0.36,0
7.131,-0.739,0
7.132,-3.302,0
7.133,-1.838,0
7.134,-1.105,0
7.135,2.923,0
7.136,0.177,0
7.137,-1.105,0
7.138,0.177,0
7.139,1.275,0
7.14,4.205,0
7.141,2.374,0
7.142,7.867,0
7.143,4.022,0
7.144,3.472,0
7.145,6.585,0
7.146,-1.838,0
7.147,-7.88,0
7.148,-2.204,0
7.149,-5.134,0
7.15,1.275,0
7.151,5.303,0
7.152,3.106,0
7.153,-1.471,0
7.154,-3.302,0
7.155,-3.852,0
7.156,-2.57,0
7.157,-2.204,0
7.158,2.374,0
7.159,2.923,0
7.16,0.177,0
7.161,1.458,0
7.162,0.177,0
7.163,-0.922,0
7.164,-2.753,0
7.165,-3.852,0
7.166,-3.119,0
7.167,1.092,0
7.168,2.923,0
7.169,0.177,0
7.17,1.458,0
7.171,0.177,0
7.172,-0.19,0
7.173,-2.021,0
7.174,-0.19,0
7.175,1.824,0
7.176,1.092,0
7.177,0.36,0
7.178,1.824,0
7.179,2.008,0
7.18,0.726,0
7.181,-2.021,0
7.182,-6.232,0
7.183,-5.683,0
7.184,-5.317,0
7.185,-0.19,0
7.186,3.106,0
7.187,2.557,0
7.188,2.008,0
7.189,-1.288,0
7.19,-0.922,0
7.191,0.543,0
7.192,-0.556,0
7.193,5.12,0
7.194,17.572,0
7.195,8.416,0
7.196,3.472,0
7.197,-4.035,0
7.198,-2.753,0
7.199,-6.232,0
7.2,-2.936,0
7.201,-7.88,0
7.202,-5.134,0
7.203,-5.866,0
7.204,-2.021,0
7.205,-0.19,0
7.206,-3.302,0
7.207,-2.753,0
7.208,3.839,0
7.209,8.416,0
7.21,-0.739,0
7.211,0.36,0
7.212,-0.739,0
7.213,4.205,0
7.214,1.458,0
7.215,3.839,0
7.216,3.106,0
7.217,3.656,0
7.218,6.768,0
7.219,-0.556,0
7.22,-1.471,0
7.221,-2.387,0
7.222,1.641,0
7.223,0.909,0
7.224,1.458,0
7.225,4.571,0
7.226,7.318,0
7.227,6.036,0
7.228,3.839,0
7.229,5.853,0
7.23,0.909,0
7.231,5.487,0
7.232,2.374,0
7.233,1.824,0
7.234,-1.471,0
7.235,4.571,0
7.236,5.303,0
7.237,-3.119,0
7.238,-2.021,0
7.239,-2.936,0
7.24,1.641,0
7.241,-2.387,0
7.242,-4.584,0
7.243,-5.317,0
7.244,4.937,0
7.245,0.543,0
7.246,-0.739,0
7.247,0.36,0
7.248,-9.894,0
7.249,-19.416,0
7.25,-3.302,0
7.251,-5.5,0
7.252,0.543,0
7.253,2.374,0
7.254,4.022,0
7.255,-3.486,0
7.256,-10.26,0
7.257,-1.838,0
7.258,-5.134,0
7.259,-6.049,0
7.26,-3.302,0
7.261,-2.57,0
7.262,1.275,0
7.263,-2.021,0
7.264,-1.471,0
7.265,-0.922,0
7.266,-2.204,0
7.267,-2.57,0
7.268,-0.556,0
7.269,-2.387,0
7.27,-5.683,0
7.271,-4.584,0
7.272,1.092,0
7.273,5.12,0
7.274,8.966,0
7.275,8.416,0
7.276,6.585,0
7.277,-0.739,0
7.278,2.191,0
7.279,-0.556,0
7.28,0.177,0
7.281,-0.556,0
7.282,-5.134,0
7.283,-2.021,0
7.284,0.726,0
7.285,5.303,0
7.286,-0.373,0
7.287,-2.57,0
7.288,2.008,0
7.289,-1.105,0
7.29,6.219,0
7.291,7.135,0
7.292,0.726,0
7.293,4.937,0
7.294,4.205,0
7.295,11.163,0
7.296,2.74,0
7.297,3.839,0
7.298,-7.331,0
7.299,-5.866,0
7.3,-4.584,0
7.301,-8.063,0
7.302,-6.965,0
7.303,-0.007,0
7.304,0.909,0
7.305,-3.119,0
7.306,-2.387,0
7.307,-0.556,0
7.308,5.12,0
7.309,4.388,0
7.31,6.219,0
7.311,1.824,0
7.312,3.472,0
7.313,3.839,0
7.314,8.966,0
7.315,4.388,0
7.316,-0.007,0
7.317,8.416,0
7.318,9.515,0
7.319,8.416,0
7.32,21.6,0
7.321,30.755,0
7.322,29.107,0
7.323,30.572,0
7.324,26.544,0
7.325,23.065,0
7.326,15.191,0
7.327,10.247,0
7.328,11.163,0
7.329,2.008,0
7.33,-4.035,0
7.331,-18.866,0
7.332,-24.909,0
7.333,-34.064,0
7.334,-42.304,0
7.335,-43.769,0
7.336,-50.544,0
7.337,-54.023,0
7.338,-50.727,0
7.339,-39.557,0
7.34,-23.078,0
7.341,-25.275,0
7.342,-51.459,0
7.343,-69.22,0
7.344,-99.067,0
7.345,-128.36,0
7.346,-179.63,0
7.347,-200.51,0
7.348,-194.28,0
7.349,-177.07,0
7.35,-171.94,0
7.351,-148.14,0
7.352,-117.93,0
7.353,-58.783,0
7.354,68.292,0
7.355,159.29,0
7.356,208.92,0
7.357,223.93,0
7.358,210.38,0
7.359,173.03,0
7.36,139.34,0
7.361,108.58,0
7.362,61.883,0
7.363,70.306,0
7.364,62.615,0
7.365,83.49,0
7.366,102.35,0
7.367,119.56,0
7.368,124.69,0
7.369,129.45,0
7.37,133.66,0
7.371,145.38,0
7.372,141.9,0
7.373,145.01,0
7.374,136.22,0
7.375,112.05,0
7.376,89.532,0
7.377,62.799,0
7.378,45.037,0
7.379,35.516,0
7.38,26.727,0
7.381,24.163,0
7.382,26.544,0
7.383,2.191,0
7.384,-20.331,0
7.385,-35.163,0
7.386,-43.036,0
7.387,-55.121,0
7.388,-52.924,0
7.389,-62.995,0
7.39,-72.15,0
7.391,-77.094,0
7.392,-72.699,0
7.393,-71.418,0
7.394,-77.46,0
7.395,-60.981,0
7.396,-68.854,0
7.397,-57.685,0
7.398,-62.079,0
7.399,-71.601,0
7.4,-75.08,0
7.401,-78.376,0
7.402,-79.291,0
7.403,-70.868,0
7.404,-65.192,0
7.405,-62.262,0
7.406,-63.178,0
7.407,-50.727,0
7.408,-41.572,0
7.409,-46.515,0
7.41,-39.008,0
7.411,-34.98,0
7.412,-28.937,0
7.413,-25.641,0
7.414,-20.698,0
7.415,-14.289,0
7.416,-11.908,0
7.417,-8.063,0
7.418,-8.613,0
7.419,0.909,0
7.42,-0.373,0
7.421,-6.415,0
7.422,-5.317,0
7.423,3.839,0
7.424,-2.204,0
7.425,8.05,0
7.426,9.332,0
7.427,5.853,0
7.428,6.951,0
7.429,13.909,0
7.43,5.487,0
7.431,13.36,0
7.432,8.416,0
7.433,12.994,0
7.434,7.318,0
7.435,12.628,0
7.436,3.656,0
7.437,9.698,0
7.438,12.994,0
7.439,10.064,0
7.44,10.98,0
7.441,15.008,0
7.442,17.205,0
7.443,15.374,0
7.444,5.853,0
7.445,7.135,0
7.446,6.402,0
7.447,9.881,0
7.448,15.557,0
7.449,8.599,0
7.45,15.008,0
7.451,17.388,0
7.452,7.318,0
7.453,-4.95,0
7.454,10.064,0
7.455,12.078,0
7.456,10.247,0
7.457,2.008,0
7.458,6.402,0
7.459,10.43,0
7.46,9.332,0
7.461,-0.922,0
7.462,3.106,0
7.463,6.585,0
7.464,7.684,0
7.465,2.74,0
7.466,-1.838,0
7.467,-4.218,0
7.468,2.74,0
7.469,7.318,0
7.47,-0.19,0
7.471,-3.119,0
7.472,1.458,0
7.473,7.135,0
7.474,4.937,0
7.475,5.487,0
7.476,2.374,0
7.477,-1.471,0
7.478,5.12,0
7.479,-1.288,0
7.48,-5.317,0
7.481,-3.119,0
7.482,3.106,0
7.483,2.374,0
7.484,-1.471,0
7.485,4.754,0
7.486,2.374,0
7.487,6.219,0
7.488,1.641,0
7.489,4.754,0
7.49,0.909,0
7.491,3.289,0
7.492,4.571,0
7.493,-1.655,0
7.494,-6.232,0
7.495,-2.204,0
7.496,-0.007,0
7.497,0.543,0
7.498,1.092,0
7.499,4.205,0
7.5,12.628,0
7.501,13.726,0
7.502,5.853,0
7.503,-7.331,0
7.504,-1.838,0
7.505,-6.781,0
7.506,-11.176,0
7.507,-4.401,0
7.508,-5.5,0
7.509,-2.204,0
7.51,2.74,0
7.511,5.487,0
7.512,7.867,0
7.513,4.022,0
7.514,3.472,0
7.515,-4.767,0
7.516,-5.866,0
7.517,-6.781,0
7.518,-4.035,0
7.519,-3.302,0
7.52,3.656,0
7.521,12.078,0
7.522,10.98,0
7.523,8.05,0
7.524,-0.373,0
7.525,-1.471,0
7.526,-2.387,0
7.527,0.36,0
7.528,-2.021,0
7.529,-4.218,0
7.53,-8.796,0
7.531,-5.683,0
7.532,-4.035,0
7.533,-6.415,0
7.534,-4.218,0
7.535,2.008,0
7.536,2.923,0
7.537,2.191,0
7.538,2.923,0
7.539,3.472,0
7.54,4.022,0
7.541,2.374,0
7.542,-4.218,0
7.543,-10.627,0
7.544,-6.598,0
7.545,3.472,0
7.546,-3.302,0
7.547,-6.781,0
7.548,-0.19,0
7.549,0.909,0
7.55,5.853,0
7.551,-2.57,0
7.552,12.261,0
7.553,10.247,0
7.554,4.754,0
7.555,-3.486,0
7.556,6.951,0
7.557,0.177,0
7.558,-13.373,0
7.559,-0.556,0
7.56,4.388,0
7.561,-6.049,0
7.562,8.966,0
7.563,6.951,0
7.564,-2.204,0
7.565,-10.444,0
7.566,3.106,0
7.567,4.937,0
7.568,-3.302,0
7.569,-1.838,0
7.57,-0.556,0
7.571,-8.979,0
7.572,1.275,0
7.573,-0.007,0
7.574,-6.049,0
7.575,-11.725,0
7.576,-0.556,0
7.577,6.951,0
7.578,2.923,0
7.579,4.022,0
7.58,7.318,0
7.581,8.233,0
7.582,1.824,0
7.583,-0.556,0
7.584,-2.753,0
7.585,-3.302,0
7.586,-0.19,0
7.587,1.458,0
7.588,-1.838,0
7.589,5.12,0
7.59,-4.035,0
7.591,-0.556,0
7.592,5.12,0
7.593,-4.035,0
7.594,2.008,0
7.595,3.106,0
7.596,10.064,0
7.597,7.318,0
7.598,-0.19,0
7.599,0.543,0
7.6,-2.387,0
7.601,4.022,0
7.602,6.402,0
7.603,10.247,0
7.604,9.698,0
7.605,2.74,0
7.606,3.656,0
7.607,-8.796,0
7.608,15.008,0
7.609,-1.105,0
7.61,-9.894,0
7.611,8.782,0
7.612,-3.302,0
7.613,-1.105,0
7.614,-11.176,0
7.615,-2.021,0
7.616,-3.669,0
7.617,-8.063,0
7.618,-1.288,0
7.619,2.191,0
7.62,-3.486,0
7.621,-2.57,0
7.622,0.177,0
7.623,0.909,0
7.624,0.177,0
7.625,-0.373,0
7.626,4.022,0
7.627,4.571,0
7.628,4.937,0
7.629,-2.021,0
7.63,-8.979,0
7.631,-4.401,0
7.632,8.05,0
7.633,2.557,0
7.634,0.909,0
7.635,-3.486,0
7.636,-10.26,0
7.637,-4.218,0
7.638,10.614,0
7.639,4.571,0
7.64,10.064,0
7.641,8.416,0
7.642,4.022,0
7.643,10.797,0
7.644,-2.753,0
7.645,2.74,0
7.646,1.092,0
7.647,-0.373,0
7.648,-7.148,0
7.649,-8.246,0
7.65,-2.387,0
7.651,-3.486,0
7.652,-0.556,0
7.653,-6.965,0
7.654,5.487,0
7.655,3.656,0
7.656,-1.288,0
7.657,-5.683,0
7.658,6.585,0
7.659,4.937,0
7.66,9.332,0
7.661,10.614,0
7.662,11.712,0
7.663,1.458,0
7.664,-10.81,0
7.665,-2.57,0
7.666,1.824,0
7.667,-4.95,0
7.668,-10.993,0
7.669,-14.289,0
7.67,-1.105,0
7.671,4.388,0
7.672,-0.556,0
7.673,-14.106,0
7.674,-26.923,0
7.675,-2.021,0
7.676,1.458,0
7.677,17.572,0
7.678,2.74,0
7.679,5.303,0
7.68,-1.838,0
7.681,4.754,0
7.682,6.768,0
7.683,4.937,0
7.684,-13.373,0
7.685,8.599,0
7.686,17.388,0
7.687,-1.288,0
7.688,1.092,0
7.689,-1.105,0
7.69,4.937,0
7.691,-4.218,0
7.692,-2.57,0
7.693,-1.105,0
7.694,-7.88,0
7.695,8.233,0
7.696,6.036,0
7.697,-0.007,0
7.698,5.487,0
7.699,7.135,0
7.7,2.74,0
7.701,-15.571,0
7.702,-11.542,0
7.703,6.951,0
7.704,-0.922,0
7.705,11.163,0
7.706,8.966,0
7.707,2.923,0
7.708,-6.232,0
7.709,-11.176,0
7.71,-15.571,0
7.711,-8.796,0
7.712,-2.753,0
7.713,5.12,0
7.714,12.078,0
7.715,14.825,0
7.716,4.022,0
7.717,5.487,0
7.718,-1.288,0
7.719,-7.331,0
7.72,-6.232,0
7.721,-1.288,0
7.722,3.289,0
7.723,5.67,0
7.724,-1.288,0
7.725,-4.035,0
7.726,-1.655,0
7.727,-6.965,0
7.728,-0.739,0
7.729,-3.119,0
7.73,5.303,0
7.731,-2.57,0
7.732,-1.655,0
7.733,-6.232,0
7.734,4.571,0
7.735,-2.936,0
7.736,-6.965,0
7.737,-5.866,0
7.738,-0.19,0
7.739,0.726,0
7.74,1.641,0
7.741,4.022,0
7.742,3.289,0
7.743,-5.683,0
7.744,2.74,0
7.745,-0.556,0
7.746,2.374,0
7.747,-0.373,0
7.748,7.135,0
7.749,6.219,0
7.75,5.303,0
7.751,4.571,0
7.752,6.402,0
7.753,-0.556,0
7.754,9.698,0
7.755,2.923,0
7.756,6.402,0
7.757,7.501,0
7.758,0.543,0
7.759,-5.866,0
7.76,-3.486,0
7.761,-1.288,0
7.762,-5.866,0
7.763,-4.035,0
7.764,1.092,0
7.765,7.318,0
7.766,3.289,0
7.767,-0.556,0
7.768,-1.105,0
7.769,-1.655,0
7.77,-3.302,0
7.771,-2.021,0
7.772,-3.302,0
7.773,-1.288,0
7.774,1.275,0
7.775,5.303,0
7.776,-2.204,0
7.777,-3.302,0
7.778,-2.387,0
7.779,0.36,0
7.78,-2.021,0
7.781,-1.288,0
7.782,-0.739,0
7.783,-1.288,0
7.784,1.458,0
7.785,2.74,0
7.786,5.853,0
7.787,2.008,0
7.788,1.641,0
7.789,1.275,0
7.79,2.374,0
7.791,4.205,0
7.792,1.641,0
7.793,-2.936,0
7.794,0.36,0
7.795,4.754,0
7.796,5.303,0
7.797,-1.288,0
7.798,-4.035,0
7.799,-0.007,0
7.8,-3.852,0
7.801,-7.148,0
7.802,-2.753,0
7.803,-1.655,0
7.804,2.191,0
7.805,7.684,0
7.806,2.374,0
7.807,12.628,0
7.808,14.093,0
7.809,-3.669,0
7.81,-1.288,0
7.811,-3.486,0
7.812,-1.471,0
7.813,-3.302,0
7.814,-1.655,0
7.815,-0.19,0
7.816,-1.471,0
7.817,2.008,0
7.818,3.106,0
7.819,-6.049,0
7.82,-4.95,0
7.821,-1.655,0
7.822,-4.584,0
7.823,1.824,0
7.824,-0.556,0
7.825,0.177,0
7.826,0.726,0
7.827,5.12,0
7.828,10.247,0
7.829,9.698,0
7.83,5.303,0
7.831,6.951,0
7.832,3.656,0
7.833,6.768,0
7.834,2.923,0
7.835,-0.373,0
7.836,-4.584,0
7.837,-2.936,0
7.838,-7.514,0
7.839,-6.965,0
7.84,-4.218,0
7.841,-4.584,0
7.842,-2.387,0
7.843,-8.613,0
7.844,-2.204,0
7.845,-2.936,0
7.846,-5.134,0
7.847,-8.429,0
7.848,-2.753,0
7.849,-2.021,0
7.85,-1.471,0
7.851,0.36,0
7.852,-2.387,0
7.853,-5.683,0
7.854,-5.317,0
7.855,-4.035,0
7.856,2.191,0
7.857,-2.387,0
7.858,1.641,0
7.859,-0.556,0
7.86,8.416,0
7.861,16.839,0
7.862,2.008,0
7.863,8.05,0
7.864,9.881,0
7.865,1.641,0
7.866,-5.866,0
7.867,-1.838,0
7.868,-0.739,0
7.869,-6.415,0
7.87,0.543,0
7.871,8.966,0
7.872,3.289,0
7.873,-1.655,0
7.874,2.923,0
7.875,0.543,0
7.876,-3.302,0
7.877,-5.134,0
7.878,-2.021,0
7.879,-3.669,0
7.88,-6.965,0
7.881,-0.007,0
7.882,0.909,0
7.883,1.824,0
7.884,-0.556,0
7.885,0.177,0
7.886,2.008,0
7.887,1.458,0
7.888,0.909,0
7.889,6.402,0
7.89,1.092,0
7.891,-2.204,0
7.892,0.909,0
7.893,3.656,0
7.894,3.289,0
7.895,5.487,0
7.896,5.853,0
7.897,3.289,0
7.898,3.656,0
7.899,-0.922,0
7.9,-4.218,0
7.901,-2.387,0
7.902,-0.739,0
7.903,-1.105,0
7.904,-4.218,0
7.905,-3.119,0
7.906,-0.373,0
7.907,3.106,0
7.908,2.74,0
7.909,-3.486,0
7.91,10.43,0
7.911,12.445,0
7.912,6.951,0
7.913,-1.288,0
7.914,9.149,0
7.915,13.177,0
7.916,19.219,0
7.917,22.515,0
7.918,23.431,0
7.919,31.854,0
7.92,37.53,0
7.921,32.586,0
7.922,28.009,0
7.923,23.98,0
7.924,20.135,0
7.925,13.909,0
7.926,11.529,0
7.927,13.726,0
7.928,3.472,0
7.929,-16.12,0
7.93,-29.487,0
7.931,-36.628,0
7.932,-56.586,0
7.933,-69.953,0
7.934,-67.573,0
7.935,-60.981,0
7.936,-54.938,0
7.937,-49.445,0
7.938,-34.43,0
7.939,-32.416,0
7.94,-59.882,0
7.941,-87.348,0
7.942,-119.57,0
7.943,-149.79,0
7.944,-193.18,0
7.945,-210.4,0
7.946,-194.83,0
7.947,-180.55,0
7.948,-158.94,0
7.949,-147.22,0
7.95,-115,0
7.951,-67.389,0
7.952,28.009,0
7.953,151.06,0
7.954,200.68,0
7.955,215.69,0
7.956,221,0
7.957,207.45,0
7.958,195,0
7.959,183.83,0
7.96,153.07,0
7.961,143.73,0
7.962,118.46,0
7.963,126.15,0
7.964,133.11,0
7.965,139.34,0
7.966,145.01,0
7.967,139.89,0
7.968,135.13,0
7.969,130.91,0
7.97,127.07,0
7.971,123.59,0
7.972,114.07,0
7.973,105.28,0
7.974,81.109,0
7.975,45.404,0
7.976,31.121,0
7.977,26.91,0
7.978,7.318,0
7.979,-3.302,0
7.98,-12.824,0
7.981,-21.613,0
7.982,-29.487,0
7.983,-36.628,0
7.984,-52.009,0
7.985,-49.994,0
7.986,-44.501,0
7.987,-56.037,0
7.988,-69.587,0
7.989,-71.418,0
7.99,-69.77,0
7.991,-68.305,0
7.992,-67.023,0
7.993,-73.066,0
7.994,-74.164,0
7.995,-75.08,0
7.996,-75.995,0
7.997,-81.672,0
7.998,-90.094,0
7.999,-88.996,0
8,-79.841,0
8.001,-76.362,0
8.002,-73.066,0
8.003,-68.122,0
8.004,-59.699,0
8.005,-54.023,0
8.006,-49.079,0
8.007,-45.6,0
8.008,-41.022,0
8.009,-28.571,0
8.01,-30.402,0
8.011,-18.866,0
8.012,-14.472,0
8.013,-18.5,0
8.014,-15.021,0
8.015,-9.345,0
8.016,-4.401,0
8.017,-5.317,0
8.018,-1.288,0
8.019,-2.021,0
8.02,-2.57,0
8.021,-2.021,0
8.022,0.726,0
8.023,3.106,0
8.024,2.74,0
8.025,5.487,0
8.026,6.585,0
8.027,9.149,0
8.028,9.881,0
8.029,10.064,0
8.03,9.332,0
8.031,9.515,0
8.032,8.416,0
8.033,10.98,0
8.034,8.416,0
8.035,12.994,0
8.036,13.543,0
8.037,12.994,0
8.038,15.74,0
8.039,10.247,0
8.04,6.402,0
8.041,10.98,0
8.042,11.529,0
8.043,14.276,0
8.044,14.642,0
8.045,13.36,0
8.046,11.346,0
8.047,9.515,0
8.048,10.614,0
8.049,8.599,0
8.05,12.811,0
8.051,9.698,0
8.052,6.951,0
8.053,12.445,0
8.054,13.177,0
8.055,9.881,0
8.056,9.332,0
8.057,8.782,0
8.058,5.67,0
8.059,5.303,0
8.06,3.106,0
8.061,5.853,0
8.062,3.289,0
8.063,3.656,0
8.064,6.402,0
8.065,12.078,0
8.066,12.811,0
8.067,7.501,0
8.068,2.923,0
8.069,2.374,0
8.07,6.219,0
8.071,1.641,0
8.072,2.191,0
8.073,2.74,0
8.074,4.022,0
8.075,4.388,0
8.076,4.754,0
8.077,-0.922,0
8.078,1.458,0
8.079,-0.739,0
8.08,-1.288,0
8.081,0.543,0
8.082,-1.105,0
8.083,0.177,0
8.084,-1.105,0
8.085,0.909,0
8.086,-4.035,0
8.087,4.937,0
8.088,3.839,0
8.089,2.74,0
8.09,-0.19,0
8.091,2.557,0
8.092,1.824,0
8.093,4.022,0
8.094,-0.556,0
8.095,3.839,0
8.096,2.191,0
8.097,-2.387,0
8.098,-1.838,0
8.099,-5.683,0
8.1,-3.302,0
8.101,-2.021,0
8.102,1.824,0
8.103,4.205,0
8.104,2.923,0
8.105,2.557,0
8.106,3.656,0
8.107,9.149,0
8.108,3.839,0
8.109,-1.655,0
8.11,0.177,0
8.111,9.698,0
8.112,5.67,0
8.113,9.149,0
8.114,3.472,0
8.115,0.543,0
8.116,-2.204,0
8.117,-1.471,0
8.118,-0.739,0
8.119,2.557,0
8.12,-0.556,0
8.121,-2.204,0
8.122,5.303,0
8.123,-2.57,0
8.124,-3.486,0
8.125,-4.401,0
8.126,-2.021,0
8.127,-8.979,0
8.128,-8.063,0
8.129,-7.331,0
8.13,-8.063,0
8.131,-4.767,0
8.132,-6.598,0
8.133,-6.049,0
8.134,1.458,0
8.135,0.36,0
8.136,-0.556,0
8.137,0.36,0
8.138,4.388,0
8.139,6.585,0
8.14,6.036,0
8.141,6.585,0
8.142,1.458,0
8.143,-1.838,0
8.144,-4.95,0
8.145,-6.598,0
8.146,-8.979,0
8.147,-5.866,0
8.148,-6.965,0
8.149,-7.331,0
8.15,-4.035,0
8.151,-5.134,0
8.152,-4.767,0
8.153,-8.063,0
8.154,-1.838,0
8.155,-2.753,0
8.156,2.923,0
8.157,0.726,0
8.158,6.951,0
8.159,1.275,0
8.16,-0.19,0
8.161,-2.387,0
8.162,0.909,0
8.163,1.458,0
8.164,9.881,0
8.165,6.402,0
8.166,5.303,0
8.167,0.36,0
8.168,-4.218,0
8.169,-1.838,0
8.17,-2.57,0
8.171,6.402,0
8.172,0.36,0
8.173,-2.936,0
8.174,-3.852,0
8.175,0.726,0
8.176,1.458,0
8.177,0.726,0
8.178,5.303,0
8.179,5.853,0
8.18,8.599,0
8.181,5.303,0
8.182,4.937,0
8.183,3.839,0
8.184,2.008,0
8.185,-1.288,0
8.186,-3.302,0
8.187,-4.401,0
8.188,0.36,0
8.189,3.472,0
8.19,-4.95,0
8.191,-1.471,0
8.192,-2.57,0
8.193,0.36,0
8.194,1.275,0
8.195,0.543,0
8.196,1.275,0
8.197,3.106,0
8.198,6.219,0
8.199,3.472,0
8.2,3.839,0
8.201,3.472,0
8.202,-0.373,0
8.203,-0.739,0
8.204,0.543,0
8.205,6.036,0
8.206,0.726,0
8.207,4.022,0
8.208,4.571,0
8.209,1.824,0
8.21,-0.556,0
8.211,-1.655,0
8.212,-3.852,0
8.213,2.374,0
8.214,1.458,0
8.215,0.726,0
8.216,2.923,0
8.217,4.754,0
8.218,1.641,0
8.219,-3.486,0
8.22,-2.936,0
8.221,1.458,0
8.222,7.684,0
8.223,3.656,0
8.224,2.923,0
8.225,2.374,0
8.226,-2.021,0
8.227,6.402,0
8.228,7.501,0
8.229,1.824,0
8.23,2.74,0
8.231,-0.007,0
8.232,-0.739,0
8.233,3.106,0
8.234,-4.401,0
8.235,-1.471,0
8.236,-2.387,0
8.237,-3.119,0
8.238,-3.852,0
8.239,-4.401,0
8.24,-0.007,0
8.241,3.839,0
8.242,3.472,0
8.243,5.67,0
8.244,1.824,0
8.245,5.12,0
8.246,-1.838,0
8.247,-2.753,0
8.248,-7.331,0
8.249,0.177,0
8.25,1.092,0
8.251,-1.655,0
8.252,2.374,0
8.253,0.177,0
8.254,-0.373,0
8.255,0.177,0
8.256,4.022,0
8.257,2.74,0
8.258,-4.218,0
8.259,0.726,0
8.26,-2.021,0
8.261,-2.753,0
8.262,-2.387,0
8.263,-3.119,0
8.264,3.106,0
8.265,-0.922,0
8.266,-3.119,0
8.267,-9.345,0
8.268,3.106,0
8.269,8.599,0
8.27,3.656,0
8.271,-0.739,0
8.272,-2.021,0
8.273,1.458,0
8.274,-4.218,0
8.275,-3.302,0
8.276,-0.556,0
8.277,1.824,0
8.278,-2.021,0
8.279,-6.598,0
8.28,-3.486,0
8.281,-5.134,0
8.282,-5.5,0
8.283,-5.866,0
8.284,-0.373,0
8.285,-2.57,0
8.286,-2.021,0
8.287,-2.57,0
8.288,0.177,0
8.289,-2.204,0
