0,-5.462,0
0.001,-6.195,0
0.002,2.777,0
0.003,18.891,0
0.004,21.088,0
0.005,15.045,0
0.006,5.89,0
0.007,7.538,0
0.008,6.073,0
0.009,7.355,0
0.01,3.876,0
0.011,-1.8,0
0.012,1.129,0
0.013,-3.448,0
0.014,-5.829,0
0.015,-3.631,0
0.016,-4.181,0
0.017,-4.73,0
0.018,-6.378,0
0.019,-6.744,0
0.02,-5.462,0
0.021,-7.477,0
0.022,-1.8,0
0.023,2.228,0
0.024,2.96,0
0.025,2.411,0
0.026,5.524,0
0.027,2.777,0
0.028,4.059,0
0.029,-0.152,0
0.03,1.496,0
0.031,-1.8,0
0.032,2.411,0
0.033,-2.716,0
0.034,-4.547,0
0.035,-1.434,0
0.036,2.411,0
0.037,2.045,0
0.038,-0.152,0
0.039,-2.899,0
0.04,-0.335,0
0.041,3.693,0
0.042,1.313,0
0.043,4.425,0
0.044,1.679,0
0.045,-0.152,0
0.046,-3.448,0
0.047,-8.026,0
0.048,-8.575,0
0.049,-3.448,0
0.05,2.777,0
0.051,2.594,0
0.052,-1.434,0
0.053,6.989,0
0.054,10.285,0
0.055,21.454,0
0.056,13.947,0
0.057,-1.068,0
0.058,0.946,0
0.059,2.777,0
0.06,4.425,0
0.061,0.031,0
0.062,1.313,0
0.063,2.411,0
0.064,-0.885,0
0.065,-5.829,0
0.066,-6.744,0
0.067,-7.477,0
0.068,-5.279,0
0.069,-3.448,0
0.07,-3.998,0
0.071,-2.35,0
0.072,-3.631,0
0.073,0.58,0
0.074,4.425,0
0.075,2.045,0
0.076,4.242,0
0.077,3.144,0
0.078,4.242,0
0.079,7.538,0
0.08,6.439,0
0.081,0.763,0
0.082,-4.913,0
0.083,-7.11,0
0.084,-10.406,0
0.085,-4.73,0
0.086,-5.462,0
0.087,-4.913,0
0.088,2.045,0
0.089,15.961,0
0.09,13.947,0
0.091,8.454,0
0.092,6.806,0
0.093,5.341,0
0.094,1.313,0
0.095,-2.167,0
0.096,-1.068,0
0.097,-3.998,0
0.098,-4.913,0
0.099,-8.941,0
0.1,-11.139,0
0.101,-3.631,0
0.102,-3.265,0
0.103,-0.335,0
0.104,13.581,0
0.105,7.538,0
0.106,27.68,0
0.107,14.313,0
0.108,7.172,0
0.109,0.58,0
0.11,-1.434,0
0.111,0.397,0
0.112,-1.251,0
0.113,-5.646,0
0.114,-6.927,0
0.115,-12.97,0
0.116,-11.871,0
0.117,-8.941,0
0.118,-6.195,0
0.119,-5.462,0
0.12,-9.308,0
0.121,-6.012,0
0.122,0.946,0
0.123,-3.631,0
0.124,2.045,0
0.125,4.242,0
0.126,2.411,0
0.127,0.58,0
0.128,4.425,0
0.129,3.144,0
0.13,6.256,0
0.131,0.031,0
0.132,-2.716,0
0.133,-8.392,0
0.134,-4.547,0
0.135,-6.378,0
0.136,-1.983,0
0.137,1.862,0
0.138,5.158,0
0.139,7.355,0
0.14,4.608,0
0.141,5.707,0
0.142,6.806,0
0.143,6.073,0
0.144,4.792,0
0.145,0.763,0
0.146,9.186,0
0.147,8.087,0
0.148,-4.364,0
0.149,-9.308,0
0.15,-7.843,0
0.151,-9.125,0
0.152,-8.026,0
0.153,-3.265,0
0.154,0.031,0
0.155,15.229,0
0.156,8.637,0
0.157,14.679,0
0.158,20.172,0
0.159,8.637,0
0.16,-1.8,0
0.161,-0.519,0
0.162,-3.998,0
0.163,-5.096,0
0.164,-8.026,0
0.165,-7.11,0
0.166,-7.843,0
0.167,-3.998,0
0.168,-5.829,0
0.169,-1.434,0
0.17,2.411,0
0.171,1.129,0
0.172,0.763,0
0.173,6.256,0
0.174,4.059,0
0.175,0.763,0
0.176,0.214,0
0.177,2.96,0
0.178,-2.533,0
0.179,-6.378,0
0.18,-4.547,0
0.181,-6.378,0
0.182,-5.829,0
0.183,-3.448,0
0.184,-3.082,0
0.185,1.496,0
0.186,-1.617,0
0.187,2.228,0
0.188,0.946,0
0.189,2.228,0
0.19,6.806,0
0.191,6.256,0
0.192,6.806,0
0.193,6.439,0
0.194,5.158,0
0.195,-0.335,0
0.196,1.862,0
0.197,5.158,0
0.198,0.763,0
0.199,2.411,0
0.2,1.129,0
0.201,2.411,0
0.202,-2.167,0
0.203,-5.279,0
0.204,0.397,0
0.205,2.045,0
0.206,9.552,0
0.207,26.581,0
0.208,19.44,0
0.209,12.848,0
0.21,6.806,0
0.211,8.637,0
0.212,6.989,0
0.213,-0.519,0
0.214,-1.8,0
0.215,-10.223,0
0.216,-9.125,0
0.217,-10.04,0
0.218,-9.125,0
0.219,-9.857,0
0.22,-6.012,0
0.221,-1.434,0
0.222,4.242,0
0.223,3.51,0
0.224,2.96,0
0.225,3.51,0
0.226,5.158,0
0.227,6.439,0
0.228,6.073,0
0.229,1.496,0
0.23,2.045,0
0.231,-6.378,0
0.232,-9.857,0
0.233,-13.153,0
0.234,-10.223,0
0.235,-7.477,0
0.236,-5.096,0
0.237,-8.941,0
0.238,1.313,0
0.239,2.777,0
0.24,1.496,0
0.241,2.594,0
0.242,3.693,0
0.243,4.608,0
0.244,0.031,0
0.245,-2.35,0
0.246,4.608,0
0.247,9.186,0
0.248,5.158,0
0.249,-0.152,0
0.25,-3.448,0
0.251,-7.843,0
0.252,-7.293,0
0.253,-6.012,0
0.254,-2.899,0
0.255,-1.068,0
0.256,-2.167,0
0.257,3.51,0
0.258,2.777,0
0.259,14.313,0
0.26,12.665,0
0.261,2.228,0
0.262,0.946,0
0.263,-2.533,0
0.264,-3.631,0
0.265,-8.575,0
0.266,-7.66,0
0.267,-8.392,0
0.268,-10.589,0
0.269,-4.364,0
0.27,-3.631,0
0.271,-2.899,0
0.272,0.397,0
0.273,2.228,0
0.274,3.876,0
0.275,7.172,0
0.276,8.454,0
0.277,10.468,0
0.278,8.637,0
0.279,3.144,0
0.28,-0.702,0
0.281,1.129,0
0.282,-5.829,0
0.283,-10.406,0
0.284,0.397,0
0.285,4.792,0
0.286,0.763,0
0.287,-2.716,0
0.288,-1.617,0
0.289,-2.533,0
0.29,-1.617,0
0.291,-3.998,0
0.292,-1.8,0
0.293,1.496,0
0.294,2.045,0
0.295,0.397,0
0.296,-0.885,0
0.297,-3.998,0
0.298,-5.096,0
0.299,-3.265,0
0.3,-5.096,0
0.301,-1.8,0
0.302,1.313,0
0.303,3.327,0
0.304,5.158,0
0.305,9.186,0
0.306,15.045,0
0.307,14.679,0
0.308,18.891,0
0.309,27.313,0
0.31,43.427,0
0.311,45.624,0
0.312,35.553,0
0.313,22.736,0
0.314,14.496,0
0.315,6.989,0
0.316,0.214,0
0.317,1.313,0
0.318,-1.983,0
0.319,-15.167,0
0.32,-24.322,0
0.321,-32.562,0
0.322,-34.027,0
0.323,-38.055,0
0.324,-44.098,0
0.325,-36.224,0
0.326,-29.266,0
0.327,-15.35,0
0.328,-21.393,0
0.329,-23.224,0
0.33,-31.463,0
0.331,-53.985,0
0.332,-83.282,0
0.333,-110.75,0
0.334,-135.65,0
0.335,-158.17,0
0.336,-161.1,0
0.337,-168.98,0
0.338,-161.83,0
0.339,-137.48,0
0.34,-114.96,0
0.341,-88.226,0
0.342,-34.576,0
0.343,80.963,0
0.344,163.73,0
0.345,208.77,0
0.346,195.22,0
0.347,182.77,0
0.348,171.6,0
0.349,140.84,0
0.35,112.82,0
0.351,87.555,0
0.352,79.865,0
0.353,86.823,0
0.354,93.048,0
0.355,110.26,0
0.356,105.13,0
0.357,102.2,0
0.358,87.921,0
0.359,92.133,0
0.36,88.288,0
0.361,98.908,0
0.362,102.02,0
0.363,81.33,0
0.364,57.16,0
0.365,27.863,0
0.366,16.144,0
0.367,19.623,0
0.368,16.51,0
0.369,7.721,0
0.37,5.158,0
0.371,-1.983,0
0.372,-8.575,0
0.373,-10.589,0
0.374,-12.42,0
0.375,-17.364,0
0.376,-21.759,0
0.377,-25.787,0
0.378,-34.21,0
0.379,-51.239,0
0.38,-58.38,0
0.381,-56.183,0
0.382,-62.225,0
0.383,-67.718,0
0.384,-66.07,0
0.385,-61.676,0
0.386,-57.647,0
0.387,-63.69,0
0.388,-62.591,0
0.389,-61.676,0
0.39,-58.929,0
0.391,-56.549,0
0.392,-45.013,0
0.393,-53.253,0
0.394,-42.816,0
0.395,-41.534,0
0.396,-38.055,0
0.397,-39.154,0
0.398,-34.21,0
0.399,-29.632,0
0.4,-28.9,0
0.401,-31.097,0
0.402,-26.52,0
0.403,-20.843,0
0.404,-16.998,0
0.405,-6.744,0
0.406,6.806,0
0.407,8.637,0
0.408,5.524,0
0.409,3.876,0
0.41,20.355,0
0.411,0.397,0
0.412,29.877,0
0.413,18.158,0
0.414,0.397,0
0.415,3.51,0
0.416,-5.279,0
0.417,2.594,0
0.418,14.679,0
0.419,8.087,0
0.42,2.045,0
0.421,3.876,0
0.422,12.116,0
0.423,19.623,0
0.424,15.595,0
0.425,7.172,0
0.426,8.271,0
0.427,13.214,0
0.428,12.299,0
0.429,3.144,0
0.43,2.045,0
0.431,-1.251,0
0.432,-4.181,0
0.433,-3.265,0
0.434,5.89,0
0.435,14.313,0
0.436,8.637,0
0.437,7.721,0
0.438,8.637,0
0.439,11.017,0
0.44,14.862,0
0.441,5.89,0
0.442,6.989,0
0.443,8.087,0
0.444,3.144,0
0.445,15.229,0
0.446,13.581,0
0.447,9.186,0
0.448,7.904,0
0.449,-3.265,0
0.45,-7.66,0
0.451,-6.378,0
0.452,-2.899,0
0.453,-1.8,0
0.454,-0.885,0
0.455,3.693,0
0.456,1.313,0
0.457,12.848,0
0.458,7.904,0
0.459,7.721,0
0.46,9.186,0
0.461,2.411,0
0.462,8.454,0
0.463,11.75,0
0.464,14.679,0
0.465,6.256,0
0.466,11.933,0
0.467,9.003,0
0.468,0.58,0
0.469,-7.293,0
0.47,-4.364,0
0.471,-7.11,0
0.472,-9.491,0
0.473,-7.293,0
0.474,-7.843,0
0.475,-6.012,0
0.476,2.411,0
0.477,15.961,0
0.478,10.468,0
0.479,8.82,0
0.48,-1.617,0
0.481,-5.646,0
0.482,-9.125,0
0.483,-8.026,0
0.484,-8.941,0
0.485,-9.857,0
0.486,-7.477,0
0.487,0.946,0
0.488,2.045,0
0.489,-4.913,0
0.49,-5.829,0
0.491,-6.561,0
0.492,3.51,0
0.493,7.538,0
0.494,4.059,0
0.495,0.763,0
0.496,1.679,0
0.497,-1.068,0
0.498,-1.8,0
0.499,-10.223,0
0.5,-9.125,0
0.501,-8.209,0
0.502,-9.125,0
0.503,-6.744,0
0.504,-1.434,0
0.505,3.144,0
0.506,4.975,0
0.507,2.228,0
0.508,0.946,0
0.509,7.904,0
0.51,6.256,0
0.511,11.2,0
0.512,10.285,0
0.513,7.904,0
0.514,7.172,0
0.515,3.876,0
0.516,-4.364,0
0.517,3.51,0
0.518,-5.646,0
0.519,-19.195,0
0.52,-10.04,0
0.521,-11.688,0
0.522,-7.293,0
0.523,-0.519,0
0.524,5.524,0
0.525,6.623,0
0.526,3.693,0
0.527,0.946,0
0.528,-1.434,0
0.529,-0.702,0
0.53,-2.533,0
0.531,-1.983,0
0.532,-10.406,0
0.533,-11.505,0
0.534,-10.406,0
0.535,-13.336,0
0.536,-14.251,0
0.537,-8.575,0
0.538,-3.265,0
0.539,-5.096,0
0.54,-6.927,0
0.541,-0.702,0
0.542,11.75,0
0.543,24.567,0
0.544,19.623,0
0.545,6.073,0
0.546,4.242,0
0.547,-0.702,0
0.548,-8.209,0
0.549,-4.181,0
0.55,1.862,0
0.551,-3.814,0
0.552,-2.899,0
0.553,-3.814,0
0.554,-3.082,0
0.555,0.763,0
0.556,4.059,0
0.557,2.228,0
0.558,6.073,0
0.559,5.707,0
0.56,6.989,0
0.561,10.651,0
0.562,4.425,0
0.563,9.003,0
0.564,6.623,0
0.565,4.425,0
0.566,3.876,0
0.567,9.552,0
0.568,13.397,0
0.569,5.89,0
0.57,0.946,0
0.571,3.693,0
0.572,-1.983,0
0.573,-4.181,0
0.574,-6.012,0
0.575,3.51,0
0.576,2.228,0
0.577,8.271,0
0.578,7.172,0
0.579,2.228,0
0.58,-2.35,0
0.581,-6.378,0
0.582,-10.223,0
0.583,-8.392,0
0.584,-6.561,0
0.585,-2.716,0
0.586,0.58,0
0.587,-2.533,0
0.588,-1.434,0
0.589,4.242,0
0.59,3.51,0
0.591,4.242,0
0.592,13.214,0
0.593,16.693,0
0.594,11.017,0
0.595,10.102,0
0.596,-1.983,0
0.597,-3.631,0
0.598,-8.026,0
0.599,-9.308,0
0.6,-8.209,0
0.601,-7.11,0
0.602,-8.026,0
0.603,-7.11,0
0.604,0.397,0
0.605,7.355,0
0.606,10.102,0
0.607,19.257,0
0.608,10.834,0
0.609,7.538,0
0.61,8.454,0
0.611,3.876,0
0.612,4.059,0
0.613,1.679,0
0.614,11.75,0
0.615,7.721,0
0.616,8.82,0
0.617,-3.631,0
0.618,-11.871,0
0.619,-10.406,0
0.62,-9.125,0
0.621,-10.223,0
0.622,-9.125,0
0.623,-2.167,0
0.624,-1.251,0
0.625,4.425,0
0.626,3.693,0
0.627,3.144,0
0.628,0.031,0
0.629,-0.519,0
0.63,-1.8,0
0.631,-7.843,0
0.632,-10.223,0
0.633,-15.533,0
0.634,-13.702,0
0.635,-9.308,0
0.636,-1.983,0
0.637,-1.068,0
0.638,12.848,0
0.639,-1.251,0
0.64,4.242,0
0.641,5.89,0
0.642,7.355,0
0.643,6.073,0
0.644,7.172,0
0.645,8.271,0
0.646,5.341,0
0.647,2.594,0
0.648,-8.209,0
0.649,-12.604,0
0.65,-16.632,0
0.651,-13.153,0
0.652,-12.054,0
0.653,-7.11,0
0.654,-2.533,0
0.655,-0.152,0
0.656,3.693,0
0.657,1.862,0
0.658,7.538,0
0.659,12.848,0
0.66,17.426,0
0.661,7.904,0
0.662,1.129,0
0.663,4.059,0
0.664,2.96,0
0.665,4.059,0
0.666,-2.899,0
0.667,11.017,0
0.668,13.031,0
0.669,3.876,0
0.67,5.524,0
0.671,1.129,0
0.672,2.411,0
0.673,-3.631,0
0.674,-2.533,0
0.675,8.637,0
0.676,7.172,0
0.677,5.89,0
0.678,4.792,0
0.679,-3.082,0
0.68,-10.04,0
0.681,-7.293,0
0.682,-12.97,0
0.683,-9.125,0
0.684,-4.547,0
0.685,-2.716,0
0.686,3.51,0
0.687,1.129,0
0.688,0.397,0
0.689,-1.434,0
0.69,2.96,0
0.691,8.087,0
0.692,7.538,0
0.693,13.214,0
0.694,6.256,0
0.695,-0.152,0
0.696,3.876,0
0.697,0.031,0
0.698,-4.547,0
0.699,-6.378,0
0.7,-3.631,0
0.701,-0.335,0
0.702,-3.448,0
0.703,-3.082,0
0.704,-6.561,0
0.705,-6.195,0
0.706,0.031,0
0.707,-0.885,0
0.708,4.792,0
0.709,8.637,0
0.71,5.341,0
0.711,5.89,0
0.712,3.144,0
0.713,-4.364,0
0.714,-0.335,0
0.715,-6.012,0
0.716,-1.068,0
0.717,-9.491,0
0.718,-3.814,0
0.719,11.383,0
0.72,-3.998,0
0.721,-6.012,0
0.722,-0.519,0
0.723,4.425,0
0.724,8.82,0
0.725,7.538,0
0.726,13.581,0
0.727,12.482,0
0.728,7.538,0
0.729,2.96,0
0.73,-6.195,0
0.731,-12.237,0
0.732,-17.914,0
0.733,-16.998,0
0.734,-14.251,0
0.735,-13.519,0
0.736,-11.322,0
0.737,-2.35,0
0.738,-1.251,0
0.739,2.045,0
0.74,4.975,0
0.741,4.059,0
0.742,4.792,0
0.743,8.637,0
0.744,6.806,0
0.745,-1.434,0
0.746,1.862,0
0.747,-3.082,0
0.748,-11.505,0
0.749,-14.801,0
0.75,-11.871,0
0.751,-9.125,0
0.752,-3.448,0
0.753,-4.181,0
0.754,-3.631,0
0.755,2.045,0
0.756,7.355,0
0.757,11.933,0
0.758,8.82,0
0.759,16.144,0
0.76,11.2,0
0.761,6.623,0
0.762,4.242,0
0.763,-1.068,0
0.764,-2.899,0
0.765,-8.392,0
0.766,-14.068,0
0.767,-7.11,0
0.768,6.806,0
0.769,16.876,0
0.77,18.708,0
0.771,10.468,0
0.772,0.031,0
0.773,-1.251,0
0.774,-2.35,0
0.775,7.904,0
0.776,6.623,0
0.777,7.721,0
0.778,6.623,0
0.779,1.679,0
0.78,-6.744,0
0.781,-5.646,0
0.782,-10.589,0
0.783,-16.998,0
0.784,-12.97,0
0.785,-9.125,0
0.786,-9.674,0
0.787,-1.434,0
0.788,-0.335,0
0.789,4.608,0
0.79,16.693,0
0.791,15.045,0
0.792,10.651,0
0.793,6.623,0
0.794,5.524,0
0.795,-0.152,0
0.796,-3.082,0
0.797,-0.335,0
0.798,-7.843,0
0.799,-14.801,0
0.8,-15.716,0
0.801,-6.561,0
0.802,-3.082,0
0.803,-1.983,0
0.804,-2.899,0
0.805,-0.152,0
0.806,7.355,0
0.807,14.313,0
0.808,11.566,0
0.809,12.299,0
0.81,10.102,0
0.811,8.271,0
0.812,3.876,0
0.813,-2.35,0
0.814,-9.857,0
0.815,-10.772,0
0.816,-12.054,0
0.817,-18.463,0
0.818,-6.012,0
0.819,-4.181,0
0.82,17.426,0
0.821,8.637,0
0.822,6.073,0
0.823,3.693,0
0.824,10.285,0
0.825,12.299,0
0.826,14.13,0
0.827,15.778,0
0.828,17.243,0
0.829,13.214,0
0.83,-5.279,0
0.831,-13.153,0
0.832,-20.294,0
0.833,-22.491,0
0.834,-12.42,0
0.835,-10.589,0
0.836,-5.646,0
0.837,-4.181,0
0.838,-0.152,0
0.839,-1.251,0
0.84,2.045,0
0.841,2.96,0
0.842,7.538,0
0.843,13.214,0
0.844,7.904,0
0.845,11.2,0
0.846,6.806,0
0.847,2.96,0
0.848,-4.547,0
0.849,-19.378,0
0.85,-17.364,0
0.851,-11.871,0
0.852,-10.223,0
0.853,-2.716,0
0.854,-1.434,0
0.855,-4.913,0
0.856,-1.617,0
0.857,7.538,0
0.858,8.637,0
0.859,11.933,0
0.86,14.862,0
0.861,17.609,0
0.862,8.454,0
0.863,4.975,0
0.864,-2.899,0
0.865,-12.054,0
0.866,-10.956,0
0.867,-15.716,0
0.868,-12.42,0
0.869,-9.491,0
0.87,4.425,0
0.871,6.439,0
0.872,11.933,0
0.873,16.876,0
0.874,27.313,0
0.875,26.032,0
0.876,7.538,0
0.877,4.975,0
0.878,7.355,0
0.879,0.763,0
0.88,-9.308,0
0.881,-14.801,0
0.882,-19.745,0
0.883,-21.209,0
0.884,-11.688,0
0.885,-10.589,0
0.886,-2.716,0
0.887,-1.8,0
0.888,-0.885,0
0.889,-3.265,0
0.89,-2.533,0
0.891,-1.983,0
0.892,2.411,0
0.893,10.834,0
0.894,9.735,0
0.895,-2.716,0
0.896,-10.956,0
0.897,-0.519,0
0.898,-4.547,0
0.899,-5.646,0
0.9,-11.322,0
0.901,-12.237,0
0.902,-9.491,0
0.903,-0.335,0
0.904,8.087,0
0.905,6.989,0
0.906,6.073,0
0.907,8.82,0
0.908,8.087,0
0.909,18.158,0
0.91,22.187,0
0.911,16.144,0
0.912,5.89,0
0.913,-3.631,0
0.914,-4.73,0
0.915,-12.604,0
0.916,-21.759,0
0.917,-20.66,0
0.918,-14.251,0
0.919,-8.575,0
0.92,6.623,0
0.921,8.82,0
0.922,22.919,0
0.923,28.412,0
0.924,13.397,0
0.925,15.412,0
0.926,13.581,0
0.927,8.637,0
0.928,7.172,0
0.929,0.397,0
0.93,-3.082,0
0.931,-6.378,0
0.932,-15.533,0
0.933,-26.703,0
0.934,-25.238,0
0.935,-18.463,0
0.936,-12.42,0
0.937,-6.744,0
0.938,-3.814,0
0.939,0.763,0
0.94,3.144,0
0.941,8.454,0
0.942,18.708,0
0.943,23.102,0
0.944,19.074,0
0.945,7.904,0
0.946,9.369,0
0.947,-2.899,0
0.948,-14.435,0
0.949,-15.899,0
0.95,-19.928,0
0.951,-11.505,0
0.952,-10.406,0
0.953,-5.462,0
0.954,-4.547,0
0.955,4.608,0
0.956,10.651,0
0.957,16.327,0
0.958,17.243,0
0.959,16.327,0
0.96,17.06,0
0.961,16.327,0
0.962,6.073,0
0.963,10.468,0
0.964,9.186,0
0.965,-4.364,0
0.966,-13.519,0
0.967,-18.463,0
0.968,-14.068,0
0.969,-9.125,0
0.97,0.397,0
0.971,18.891,0
0.972,11.017,0
0.973,23.102,0
0.974,20.905,0
0.975,14.862,0
0.976,13.031,0
0.977,11.383,0
0.978,6.989,0
0.979,2.96,0
0.98,-3.082,0
0.981,-4.181,0
0.982,-15.35,0
0.983,-13.885,0
0.984,-17.914,0
0.985,-11.871,0
0.986,-10.772,0
0.987,-7.843,0
0.988,-1.434,0
0.989,-5.462,0
0.99,1.496,0
0.991,4.242,0
0.992,13.397,0
0.993,4.975,0
0.994,12.848,0
0.995,9.918,0
0.996,3.51,0
0.997,1.129,0
0.998,-10.406,0
0.999,-18.646,0
1,-14.251,0
1.001,-7.477,0
1.002,-8.575,0
1.003,-2.899,0
1.004,-1.983,0
1.005,-4.73,0
1.006,2.777,0
1.007,13.947,0
1.008,18.341,0
1.009,25.116,0
1.01,13.947,0
1.011,6.439,0
1.012,2.411,0
1.013,3.51,0
1.014,-4.364,0
1.015,-13.519,0
1.016,-19.562,0
1.017,-20.66,0
1.018,-13.702,0
1.019,-1.617,0
1.02,8.454,0
1.021,6.806,0
1.022,8.271,0
1.023,17.792,0
1.024,16.693,0
1.025,13.397,0
1.026,20.355,0
1.027,34.271,0
1.028,20.172,0
1.029,-3.631,0
1.03,-0.519,0
1.031,-15.35,0
1.032,-17.914,0
1.033,-25.055,0
1.034,-22.857,0
1.035,-16.815,0
1.036,-14.984,0
1.037,0.031,0
1.038,-1.983,0
1.039,7.172,0
1.04,5.524,0
1.041,13.031,0
1.042,17.06,0
1.043,8.637,0
1.044,9.735,0
1.045,4.792,0
1.046,7.538,0
1.047,3.51,0
1.048,-0.335,0
1.049,-6.561,0
1.05,-17.364,0
1.051,-18.829,0
1.052,-14.801,0
1.053,1.313,0
1.054,7.904,0
1.055,9.918,0
1.056,11.75,0
1.057,23.285,0
1.058,27.68,0
1.059,37.201,0
1.06,45.624,0
1.061,37.75,0
1.062,30.792,0
1.063,24.384,0
1.064,15.229,0
1.065,6.806,0
1.066,-5.646,0
1.067,-10.589,0
1.068,-9.125,0
1.069,-15.899,0
1.07,-24.322,0
1.071,-34.027,0
1.072,-35.125,0
1.073,-34.21,0
1.074,-40.619,0
1.075,-34.942,0
1.076,-23.407,0
1.077,-15.167,0
1.078,-28.717,0
1.079,-1.251,0
1.08,-20.843,0
1.081,-67.352,0
1.082,-86.212,0
1.083,-114.96,0
1.084,-141.14,0
1.085,-174.47,0
1.086,-170.26,0
1.087,-166.41,0
1.088,-155.79,0
1.089,-139.68,0
1.09,-130.89,0
1.091,-90.606,0
1.092,-38.604,0
1.093,38.483,0
1.094,151.46,0
1.095,196.5,0
1.096,210.05,0
1.097,172.7,0
1.098,161.53,0
1.099,130.77,0
1.1,102.75,0
1.101,60.456,0
1.102,52.765,0
1.103,45.807,0
1.104,52.033,0
1.105,80.78,0
1.106,96.344,0
1.107,110.63,0
1.108,114.84,0
1.109,126.56,0
1.11,130.04,0
1.111,126.92,0
1.112,123.99,0
1.113,131.87,0
1.114,105.13,0
1.115,80.231,0
1.116,50.934,0
1.117,31.342,0
1.118,27.863,0
1.119,24.75,0
1.12,27.68,0
1.121,25.116,0
1.122,11.383,0
1.123,-5.462,0
1.124,-16.449,0
1.125,-18.463,0
1.126,-23.956,0
1.127,-25.604,0
1.128,-39.154,0
1.129,-44.647,0
1.13,-56.183,0
1.131,-75.775,0
1.132,-73.211,0
1.133,-70.831,0
1.134,-77.423,0
1.135,-71.38,0
1.136,-62.225,0
1.137,-63.873,0
1.138,-53.436,0
1.139,-49.408,0
1.14,-65.521,0
1.141,-63.324,0
1.142,-57.281,0
1.143,-55.45,0
1.144,-53.802,0
1.145,-52.337,0
1.146,-53.619,0
1.147,-57.098,0
1.148,-58.197,0
1.149,-55.267,0
1.15,-43.182,0
1.151,-34.942,0
1.152,-27.435,0
1.153,-20.66,0
1.154,-14.618,0
1.155,-13.519,0
1.156,-4.364,0
1.157,-3.265,0
1.158,-2.167,0
1.159,9.003,0
1.16,10.468,0
1.161,11.75,0
1.162,12.848,0
1.163,16.144,0
1.164,9.186,0
1.165,0.763,0
1.166,-4.913,0
1.167,-7.843,0
1.168,4.242,0
1.169,9.186,0
1.17,13.581,0
1.171,17.609,0
1.172,18.708,0
1.173,20.905,0
1.174,24.201,0
1.175,27.13,0
1.176,28.046,0
1.177,30.426,0
1.178,20.355,0
1.179,27.13,0
1.18,23.651,0
1.181,8.82,0
1.182,-1.251,0
1.183,-6.744,0
1.184,-5.096,0
1.185,-3.631,0
1.186,3.144,0
1.187,9.186,0
1.188,12.482,0
1.189,5.524,0
1.19,4.608,0
1.191,5.341,0
1.192,10.651,0
1.193,7.355,0
1.194,11.75,0
1.195,4.425,0
1.196,-0.519,0
1.197,-1.434,0
1.198,-3.814,0
1.199,-13.885,0
1.2,-12.604,0
1.201,-9.125,0
1.202,-5.829,0
1.203,-8.758,0
1.204,-2.35,0
1.205,0.031,0
1.206,5.341,0
1.207,2.045,0
1.208,6.439,0
1.209,12.665,0
1.21,16.693,0
1.211,11.383,0
1.212,14.679,0
1.213,12.848,0
1.214,4.425,0
1.215,-9.125,0
1.216,-14.618,0
1.217,-9.674,0
1.218,-5.279,0
1.219,6.989,0
1.22,2.045,0
1.221,6.439,0
1.222,7.721,0
1.223,13.764,0
1.224,6.256,0
1.225,14.13,0
1.226,27.313,0
1.227,29.145,0
1.228,34.088,0
1.229,23.651,0
1.23,5.89,0
1.231,-1.251,0
1.232,0.946,0
1.233,-1.068,0
1.234,0.763,0
1.235,2.411,0
1.236,3.876,0
1.237,5.158,0
1.238,11.2,0
1.239,12.299,0
1.24,11.383,0
1.241,12.299,0
1.242,17.975,0
1.243,20.172,0
1.244,22.003,0
1.245,13.764,0
1.246,10.468,0
1.247,7.538,0
1.248,8.454,0
1.249,2.777,0
1.25,0.58,0
1.251,3.876,0
1.252,5.707,0
1.253,4.059,0
1.254,-1.434,0
1.255,0.763,0
1.256,2.594,0
1.257,-6.927,0
1.258,-5.646,0
1.259,-6.744,0
1.26,-21.576,0
1.261,-27.618,0
1.262,-29.449,0
1.263,-31.097,0
1.264,-41.534,0
1.265,-48.309,0
1.266,-51.788,0
1.267,-48.492,0
1.268,-45.563,0
1.269,-42.816,0
1.27,-40.436,0
1.271,-36.59,0
1.272,-30.365,0
1.273,-24.688,0
1.274,-22.491,0
1.275,-20.843,0
1.276,-16.266,0
1.277,-6.744,0
1.278,-10.772,0
1.279,-14.251,0
1.28,-3.998,0
1.281,-5.279,0
1.282,-23.773,0
1.283,-26.336,0
1.284,-23.956,0
1.285,-21.759,0
1.286,-15.716,0
1.287,-10.223,0
1.288,-1.983,0
1.289,-3.448,0
1.29,3.327,0
1.291,4.425,0
1.292,7.721,0
1.293,8.637,0
1.294,11.383,0
1.295,9.003,0
1.296,5.158,0
1.297,3.327,0
1.298,3.876,0
1.299,3.327,0
1.3,0.031,0
1.301,4.242,0
1.302,8.087,0
1.303,13.581,0
1.304,15.778,0
1.305,20.355,0
1.306,23.468,0
1.307,21.82,0
1.308,26.398,0
1.309,29.511,0
1.31,30.06,0
1.311,25.482,0
1.312,23.651,0
1.313,20.905,0
1.314,25.482,0
1.315,19.806,0
1.316,15.961,0
1.317,17.792,0
1.318,24.75,0
1.319,33.173,0
1.32,45.624,0
1.321,53.864,0
1.322,55.329,0
1.323,64.85,0
1.324,70.893,0
1.325,78.766,0
1.326,90.485,0
1.327,93.415,0
1.328,105.5,0
1.329,103.85,0
1.33,102.39,0
1.331,81.879,0
1.332,55.146,0
1.333,37.384,0
1.334,21.271,0
1.335,12.482,0
1.336,-0.885,0
1.337,-3.265,0
1.338,-18.646,0
1.339,-20.66,0
1.34,-22.491,0
1.341,-37.506,0
1.342,-47.577,0
1.343,-56.732,0
1.344,-71.747,0
1.345,-77.789,0
1.346,-79.62,0
1.347,-81.268,0
1.348,-82.733,0
1.349,-84.015,0
1.35,-85.113,0
1.351,-86.212,0
1.352,-83.282,0
1.353,-82.367,0
1.354,-78.338,0
1.355,-71.38,0
1.356,-70.465,0
1.357,-61.31,0
1.358,-47.76,0
1.359,-45.929,0
1.36,-44.281,0
1.361,-36.773,0
1.362,-27.252,0
1.363,-28.351,0
1.364,-38.604,0
1.365,-37.323,0
1.366,-33.844,0
1.367,-30.548,0
1.368,-23.59,0
1.369,-17.181,0
1.37,-19.562,0
1.371,-8.026,0
1.372,-3.082,0
1.373,1.313,0
1.374,8.087,0
1.375,24.201,0
1.376,17.609,0
1.377,17.975,0
1.378,19.989,0
1.379,10.834,0
1.38,12.482,0
1.381,4.975,0
1.382,11.75,0
1.383,20.172,0
1.384,16.876,0
1.385,15.961,0
1.386,16.876,0
1.387,16.144,0
1.388,23.102,0
1.389,24.018,0
1.39,29.694,0
1.391,30.426,0
1.392,33.722,0
1.393,39.398,0
1.394,32.44,0
1.395,29.694,0
1.396,30.426,0
1.397,22.003,0
1.398,23.102,0
1.399,20.172,0
1.4,15.595,0
1.401,17.975,0
1.402,21.82,0
1.403,25.116,0
1.404,29.511,0
1.405,27.863,0
1.406,35.37,0
1.407,34.271,0
1.408,35.187,0
1.409,28.778,0
1.41,24.75,0
1.411,24.018,0
1.412,15.045,0
1.413,9.003,0
1.414,-1.251,0
1.415,-5.279,0
1.416,-13.702,0
1.417,-19.378,0
1.418,-16.449,0
1.419,-21.026,0
1.42,-13.519,0
1.421,-14.435,0
1.422,-15.35,0
1.423,-11.322,0
1.424,-9.125,0
1.425,-12.42,0
1.426,-11.871,0
1.427,-16.998,0
1.428,-16.449,0
1.429,-22.674,0
1.43,-13.519,0
1.431,-32.013,0
1.432,-34.576,0
1.433,-46.661,0
1.434,-57.647,0
1.435,-59.662,0
1.436,-54.168,0
1.437,-55.816,0
1.438,-51.422,0
1.439,-41.9,0
1.44,-35.858,0
1.441,-32.562,0
1.442,-23.407,0
1.443,-17.364,0
1.444,-16.266,0
1.445,-13.336,0
1.446,-6.927,0
1.447,-1.251,0
1.448,-0.519,0
1.449,1.313,0
1.45,3.144,0
1.451,2.594,0
1.452,3.876,0
1.453,5.158,0
1.454,11.383,0
1.455,21.637,0
1.456,33.905,0
1.457,35.553,0
1.458,45.99,0
1.459,50.019,0
1.46,46.54,0
1.461,43.244,0
1.462,34.088,0
1.463,40.131,0
1.464,39.032,0
1.465,34.088,0
1.466,27.68,0
1.467,30.06,0
1.468,37.018,0
1.469,36.103,0
1.47,35.37,0
1.471,39.215,0
1.472,46.723,0
1.473,51.667,0
1.474,47.089,0
1.475,44.708,0
1.476,43.976,0
1.477,39.398,0
1.478,35.004,0
1.479,28.961,0
1.48,29.511,0
1.481,30.792,0
1.482,23.834,0
1.483,12.665,0
1.484,20.172,0
1.485,2.411,0
1.486,0.031,0
1.487,6.623,0
1.488,4.608,0
1.489,10.102,0
1.49,15.045,0
1.491,16.51,0
1.492,23.285,0
1.493,22.187,0
1.494,23.285,0
1.495,14.13,0
1.496,5.707,0
1.497,0.031,0
1.498,-0.885,0
1.499,-5.462,0
1.5,-7.843,0
1.501,-8.575,0
1.502,-9.125,0
1.503,-6.012,0
1.504,-4.364,0
1.505,-3.082,0
1.506,-4.364,0
1.507,-1.617,0
1.508,4.059,0
1.509,1.679,0
1.51,2.411,0
1.511,5.707,0
1.512,0.031,0
1.513,-3.814,0
1.514,-4.364,0
1.515,-4.913,0
1.516,0.214,0
1.517,-10.04,0
1.518,-14.435,0
1.519,-15.716,0
1.52,-12.237,0
1.521,-13.336,0
1.522,-12.42,0
1.523,-11.505,0
1.524,-9.125,0
1.525,-2.167,0
1.526,-1.251,0
1.527,-6.927,0
1.528,-4.73,0
1.529,-1.434,0
1.53,-4.73,0
1.531,-11.688,0
1.532,-8.941,0
1.533,-12.97,0
1.534,-2.899,0
1.535,1.129,0
1.536,-10.04,0
1.537,-11.505,0
1.538,-10.223,0
1.539,-1.8,0
1.54,-0.702,0
1.541,0.214,0
1.542,4.792,0
1.543,4.059,0
1.544,1.862,0
1.545,-8.392,0
1.546,-12.787,0
1.547,-16.815,0
1.548,-17.914,0
1.549,-14.618,0
1.55,-19.562,0
1.551,-18.646,0
1.552,-22.674,0
1.553,-14.251,0
1.554,-8.575,0
1.555,-1.617,0
1.556,4.792,0
1.557,4.059,0
1.558,1.862,0
1.559,0.031,0
1.56,-4.364,0
1.561,0.763,0
1.562,1.313,0
1.563,-5.646,0
1.564,-6.561,0
1.565,-10.589,0
1.566,-12.787,0
1.567,-10.956,0
1.568,-6.561,0
1.569,0.763,0
1.57,7.721,0
1.571,1.313,0
1.572,-1.068,0
1.573,5.89,0
1.574,12.299,0
1.575,6.623,0
1.576,5.89,0
1.577,13.397,0
1.578,8.454,0
1.579,9.369,0
1.58,6.989,0
1.581,-9.125,0
1.582,-6.927,0
1.583,-0.702,0
1.584,1.679,0
1.585,3.876,0
1.586,5.707,0
1.587,5.158,0
1.588,-1.068,0
1.589,11.383,0
1.59,13.214,0
1.591,4.975,0
1.592,12.482,0
1.593,11.2,0
1.594,10.102,0
1.595,-0.152,0
1.596,-9.674,0
1.597,-13.153,0
1.598,-14.251,0
1.599,-17.181,0
1.6,-21.759,0
1.601,-17.73,0
1.602,-16.998,0
1.603,-12.42,0
1.604,-9.308,0
1.605,-12.054,0
1.606,-8.758,0
1.607,-1.8,0
1.608,5.158,0
1.609,6.073,0
1.61,6.806,0
1.611,1.496,0
1.612,-8.758,0
1.613,-10.223,0
1.614,-11.505,0
1.615,-17.547,0
1.616,-20.843,0
1.617,-19.928,0
1.618,-20.843,0
1.619,-13.336,0
1.62,-6.378,0
1.621,7.538,0
1.622,13.581,0
1.623,8.087,0
1.624,9.735,0
1.625,8.271,0
1.626,12.299,0
1.627,15.778,0
1.628,10.102,0
1.629,-5.096,0
1.63,-7.293,0
1.631,-1.251,0
1.632,-3.998,0
1.633,-13.153,0
1.634,1.862,0
1.635,-0.152,0
1.636,9.003,0
1.637,-9.308,0
1.638,-11.688,0
1.639,3.693,0
1.64,5.707,0
1.641,11.2,0
1.642,12.848,0
1.643,14.313,0
1.644,13.031,0
1.645,6.989,0
1.646,5.89,0
1.647,4.975,0
1.648,-7.11,0
1.649,-5.462,0
1.65,-6.927,0
1.651,-5.646,0
1.652,-6.744,0
1.653,-5.646,0
1.654,-6.561,0
1.655,-9.308,0
1.656,-5.279,0
1.657,-4.547,0
1.658,2.96,0
1.659,3.876,0
1.66,4.792,0
1.661,8.82,0
1.662,6.623,0
1.663,2.045,0
1.664,-2.35,0
1.665,-10.772,0
1.666,-11.871,0
1.667,-8.575,0
1.668,-1.617,0
1.669,-0.702,0
1.67,-4.73,0
1.671,-2.533,0
1.672,-4.364,0
1.673,1.313,0
1.674,2.045,0
1.675,0.214,0
1.676,-2.899,0
1.677,5.524,0
1.678,24.018,0
1.679,16.144,0
1.68,4.059,0
1.681,-11.322,0
1.682,-9.308,0
1.683,-13.519,0
1.684,-8.026,0
1.685,6.989,0
1.686,-3.082,0
1.687,13.397,0
1.688,19.989,0
1.689,1.862,0
1.69,4.242,0
1.691,6.439,0
1.692,4.425,0
1.693,2.594,0
1.694,4.242,0
1.695,-0.152,0
1.696,1.129,0
1.697,2.228,0
1.698,-8.026,0
1.699,-9.308,0
1.7,-15.35,0
1.701,-14.251,0
1.702,-11.322,0
1.703,-2.899,0
1.704,4.975,0
1.705,14.13,0
1.706,10.651,0
1.707,9.552,0
1.708,12.482,0
1.709,11.566,0
1.71,9.186,0
1.711,9.918,0
1.712,5.341,0
1.713,4.792,0
1.714,-1.434,0
1.715,-12.237,0
1.716,-13.702,0
1.717,-17.73,0
1.718,-11.688,0
1.719,-6.012,0
1.72,-5.096,0
1.721,-0.519,0
1.722,3.51,0
1.723,8.82,0
1.724,10.651,0
1.725,15.045,0
1.726,22.37,0
1.727,11.2,0
1.728,9.735,0
1.729,13.764,0
1.73,7.721,0
1.731,-0.152,0
1.732,-3.082,0
1.733,-7.66,0
1.734,-12.787,0
1.735,-8.758,0
1.736,2.777,0
1.737,14.313,0
1.738,18.708,0
1.739,30.976,0
1.74,26.032,0
1.741,21.637,0
1.742,20.355,0
1.743,38.849,0
1.744,46.723,0
1.745,34.638,0
1.746,19.257,0
1.747,17.243,0
1.748,8.087,0
1.749,-0.152,0
1.75,-4.547,0
1.751,-11.322,0
1.752,-17.364,0
1.753,-20.66,0
1.754,-29.815,0
1.755,-30.914,0
1.756,-32.013,0
1.757,-36.957,0
1.758,-36.041,0
1.759,-38.421,0
1.76,-33.111,0
1.761,-28.534,0
1.762,-19.012,0
1.763,-12.237,0
1.764,-30.731,0
1.765,-54.901,0
1.766,-77.423,0
1.767,-104.16,0
1.768,-143.52,0
1.769,-148.65,0
1.77,-143.89,0
1.771,-139.68,0
1.772,-135.83,0
1.773,-132.35,0
1.774,-116.24,0
1.775,-71.747,0
1.776,23.651,0
1.777,119.23,0
1.778,156.59,0
1.779,190.28,0
1.78,180.02,0
1.781,152.01,0
1.782,160.43,0
1.783,137.36,0
1.784,88.471,0
1.785,73.639,0
1.786,79.865,0
1.787,108.61,0
1.788,145.23,0
1.789,207.31,0
1.79,232.57,0
1.791,271.03,0
1.792,334.2,0
1.793,376.5,0
1.794,399.57,0
1.795,420.44,0
1.796,426.67,0
1.797,420.99,0
1.798,405.43,0
1.799,362.4,0
1.8,298.86,0
1.801,256.56,0
1.802,218.11,0
1.803,169.22,0
1.804,111.91,0
1.805,73.456,0
1.806,24.567,0
1.807,-7.11,0
1.808,-47.394,0
1.809,-94.635,0
1.81,-126.31,0
1.811,-143.52,0
1.812,-169.71,0
1.813,-212.74,0
1.814,-241.49,0
1.815,-257.05,0
1.816,-290.38,0
1.817,-311.98,0
1.818,-339.45,0
1.819,-350.07,0
1.82,-359.59,0
1.821,-368.38,0
1.822,-360.5,0
1.823,-362.88,0
1.824,-360.69,0
1.825,-354.64,0
1.826,-341.83,0
1.827,-333.59,0
1.828,-323.15,0
1.829,-313.63,0
1.83,-295.13,0
1.831,-270.96,0
1.832,-254.85,0
1.833,-234.16,0
1.834,-215.48,0
1.835,-198.64,0
1.836,-174.65,0
1.837,-154.69,0
1.838,-119.72,0
1.839,-105.44,0
1.84,-66.437,0
1.841,-50.873,0
1.842,-46.112,0
1.843,-33.294,0
1.844,-21.576,0
1.845,-10.956,0
1.846,-7.843,0
1.847,0.946,0
1.848,8.82,0
1.849,20.905,0
1.85,31.891,0
1.851,50.019,0
1.852,62.104,0
1.853,68.695,0
1.854,74.738,0
1.855,76.569,0
1.856,88.104,0
1.857,92.499,0
1.858,102.02,0
1.859,98.542,0
1.86,101.84,0
1.861,100.92,0
1.862,96.344,0
1.863,97.077,0
1.864,91.767,0
1.865,85.541,0
1.866,78.034,0
1.867,80.963,0
1.868,72.541,0
1.869,84.992,0
1.87,80.048,0
1.871,78.583,0
1.872,77.301,0
1.873,76.203,0
1.874,75.104,0
1.875,70.16,0
1.876,69.245,0
1.877,69.977,0
1.878,69.245,0
1.879,63.019,0
1.88,55.512,0
1.881,46.356,0
1.882,40.314,0
1.883,39.215,0
1.884,36.286,0
1.885,33.539,0
1.886,34.271,0
1.887,28.961,0
1.888,32.807,0
1.889,43.061,0
1.89,41.596,0
1.891,40.314,0
1.892,46.356,0
1.893,40.68,0
1.894,25.482,0
1.895,18.891,0
1.896,8.82,0
1.897,6.989,0
1.898,-1.251,0
1.899,6.256,0
1.9,2.228,0
1.901,-1.251,0
1.902,2.045,0
1.903,9.003,0
1.904,8.087,0
1.905,8.82,0
1.906,11.017,0
1.907,14.313,0
1.908,16.144,0
1.909,12.299,0
1.91,11.933,0
1.911,8.82,0
1.912,4.975,0
1.913,2.594,0
1.914,2.96,0
1.915,-0.885,0
1.916,-4.181,0
1.917,-7.293,0
1.918,-2.716,0
1.919,-5.829,0
1.92,0.397,0
1.921,12.848,0
1.922,7.355,0
1.923,12.299,0
1.924,7.904,0
1.925,17.426,0
1.926,9.003,0
1.927,-1.251,0
1.928,8.271,0
1.929,9.369,0
1.93,10.468,0
1.931,3.51,0
1.932,15.595,0
1.933,4.059,0
1.934,-0.335,0
1.935,0.946,0
1.936,6.989,0
1.937,3.693,0
1.938,7.721,0
1.939,6.806,0
1.94,5.89,0
1.941,16.693,0
1.942,18.158,0
1.943,16.876,0
1.944,13.397,0
1.945,28.229,0
1.946,18.158,0
1.947,-1.983,0
1.948,0.58,0
1.949,-1.8,0
1.95,-8.392,0
1.951,-10.406,0
1.952,-4.913,0
1.953,-3.265,0
1.954,-1.8,0
1.955,-0.519,0
1.956,0.58,0
1.957,1.679,0
1.958,0.763,0
1.959,5.341,0
1.96,-0.335,0
1.961,-4.181,0
1.962,-8.758,0
1.963,-5.646,0
1.964,-2.899,0
1.965,-10.406,0
1.966,-2.533,0
1.967,-1.617,0
1.968,-4.364,0
1.969,-1.983,0
1.97,-2.716,0
1.971,-2.167,0
1.972,0.946,0
1.973,2.594,0
1.974,-0.702,0
1.975,6.256,0
1.976,17.426,0
1.977,21.82,0
1.978,17.792,0
1.979,14.313,0
1.98,19.989,0
1.981,29.145,0
1.982,30.243,0
1.983,19.989,0
1.984,15.961,0
1.985,19.44,0
1.986,27.313,0
1.987,20.355,0
1.988,26.764,0
1.989,29.694,0
1.99,28.961,0
1.991,40.497,0
1.992,62.104,0
1.993,59.174,0
1.994,45.807,0
1.995,23.834,0
1.996,26.764,0
1.997,29.328,0
1.998,17.243,0
1.999,6.256,0
2,-3.814,0
2.001,-12.97,0
2.002,-21.209,0
2.003,-25.604,0
2.004,-26.886,0
2.005,-23.407,0
2.006,-26.703,0
2.007,-29.632,0
2.008,-28.717,0
2.009,-32.745,0
2.01,-39.703,0
2.011,-44.281,0
2.012,-48.309,0
2.013,-47.577,0
2.014,-52.154,0
2.015,-52.704,0
2.016,-57.831,0
2.017,-62.408,0
2.018,-59.295,0
2.019,-58.746,0
2.02,-51.239,0
2.021,-40.985,0
2.022,-34.21,0
2.023,-35.309,0
2.024,-34.21,0
2.025,-25.055,0
2.026,-26.153,0
2.027,-25.055,0
2.028,-25.97,0
2.029,-21.393,0
2.03,-23.773,0
2.031,-13.702,0
2.032,-12.42,0
2.033,-13.519,0
2.034,-14.618,0
2.035,-1.434,0
2.036,4.059,0
2.037,-4.181,0
2.038,3.327,0
2.039,-0.702,0
2.04,10.651,0
2.041,9.552,0
2.042,12.848,0
2.043,15.778,0
2.044,11.2,0
2.045,5.524,0
2.046,17.06,0
2.047,22.003,0
2.048,8.454,0
2.049,10.285,0
2.05,-4.73,0
2.051,1.313,0
2.052,3.144,0
2.053,4.792,0
2.054,3.327,0
2.055,12.848,0
2.056,9.369,0
2.057,3.693,0
2.058,4.608,0
2.059,5.524,0
2.06,-0.152,0
2.061,-2.35,0
2.062,7.904,0
2.063,21.454,0
2.064,-2.35,0
2.065,13.764,0
2.066,10.834,0
2.067,2.96,0
2.068,5.341,0
2.069,7.538,0
2.07,-2.533,0
2.071,-0.702,0
2.072,4.242,0
2.073,8.637,0
2.074,9.918,0
2.075,11.017,0
2.076,7.721,0
2.077,6.806,0
2.078,2.228,0
2.079,-3.448,0
2.08,1.862,0
2.081,3.693,0
2.082,-0.702,0
2.083,-5.829,0
2.084,-7.66,0
2.085,-12.054,0
2.086,-9.308,0
2.087,-6.927,0
2.088,-6.561,0
2.089,-3.814,0
2.09,-0.335,0
2.091,9.186,0
2.092,10.468,0
2.093,16.693,0
2.094,15.778,0
2.095,18.158,0
2.096,11.2,0
2.097,6.623,0
2.098,-4.181,0
2.099,-8.575,0
2.1,-12.604,0
2.101,-11.505,0
2.102,-10.406,0
2.103,-13.336,0
2.104,-10.589,0
2.105,-4.913,0
2.106,2.045,0
2.107,1.129,0
2.108,6.806,0
2.109,9.003,0
2.11,5.707,0
2.111,5.158,0
2.112,11.383,0
2.113,12.116,0
2.114,2.045,0
2.115,3.327,0
2.116,-2.716,0
2.117,-3.814,0
2.118,-10.772,0
2.119,-2.35,0
2.12,0.946,0
2.121,-1.983,0
2.122,-4.73,0
2.123,7.721,0
2.124,9.552,0
2.125,7.904,0
2.126,12.299,0
2.127,16.327,0
2.128,5.158,0
2.129,-2.35,0
2.13,-3.631,0
2.131,-7.11,0
2.132,-6.012,0
2.133,-10.956,0
2.134,-2.533,0
2.135,0.763,0
2.136,-2.167,0
2.137,-1.251,0
2.138,6.256,0
2.139,5.341,0
2.14,11.75,0
2.141,15.778,0
2.142,9.918,0
2.143,7.721,0
2.144,17.975,0
2.145,22.37,0
2.146,21.088,0
2.147,12.665,0
2.148,0.214,0
2.149,-4.73,0
2.15,-3.265,0
2.151,-1.983,0
2.152,-5.462,0
2.153,-4.364,0
2.154,10.834,0
2.155,8.637,0
2.156,-1.434,0
2.157,0.397,0
2.158,2.045,0
2.159,3.51,0
2.16,13.031,0
2.161,9.552,0
2.162,12.848,0
2.163,3.693,0
2.164,-4.73,0
2.165,-8.026,0
2.166,-5.096,0
2.167,-7.843,0
2.168,-5.462,0
2.169,-9.308,0
2.17,-12.604,0
2.171,-13.153,0
2.172,-8.026,0
2.173,-0.519,0
2.174,-3.448,0
2.175,-2.533,0
2.176,3.144,0
2.177,14.679,0
2.178,19.623,0
2.179,-2.899,0
2.18,-12.42,0
2.181,-3.631,0
2.182,-6.195,0
2.183,-13.336,0
2.184,-15.533,0
2.185,-17.547,0
2.186,-4.73,0
2.187,-6.378,0
2.188,-7.843,0
2.189,-3.814,0
2.19,4.608,0
2.191,5.707,0
2.192,4.792,0
2.193,5.524,0
2.194,-0.885,0
2.195,11.566,0
2.196,2.411,0
2.197,10.651,0
2.198,0.214,0
2.199,-9.308,0
2.2,-15.35,0
2.201,-9.674,0
2.202,-6.744,0
2.203,-5.829,0
2.204,3.327,0
2.205,14.496,0
2.206,13.031,0
2.207,11.75,0
2.208,20.172,0
2.209,23.468,0
2.21,18.524,0
2.211,12.116,0
2.212,8.087,0
2.213,5.89,0
2.214,4.059,0
2.215,-2.899,0
2.216,-5.646,0
2.217,-9.674,0
2.218,-5.829,0
2.219,-5.279,0
2.22,-0.885,0
2.221,0.763,0
2.222,8.271,0
2.223,9.369,0
2.224,10.285,0
2.225,7.538,0
2.226,6.806,0
2.227,10.651,0
2.228,12.482,0
2.229,11.933,0
2.23,8.087,0
2.231,2.594,0
2.232,1.862,0
2.233,0.031,0
2.234,5.707,0
2.235,7.904,0
2.236,18.158,0
2.237,13.764,0
2.238,6.989,0
2.239,10.468,0
2.24,13.764,0
2.241,18.708,0
2.242,19.623,0
2.243,13.947,0
2.244,16.51,0
2.245,4.975,0
2.246,9.918,0
2.247,11.383,0
2.248,12.665,0
2.249,9.186,0
2.25,10.285,0
2.251,1.129,0
2.252,-10.04,0
2.253,12.482,0
2.254,22.003,0
2.255,7.172,0
2.256,4.608,0
2.257,6.989,0
2.258,4.792,0
2.259,2.777,0
2.26,-2.716,0
2.261,-4.364,0
2.262,-5.829,0
2.263,0.946,0
2.264,-0.152,0
2.265,-3.448,0
2.266,-10.406,0
2.267,-9.491,0
2.268,-3.814,0
2.269,0.031,0
2.27,-1.8,0
2.271,-4.913,0
2.272,3.51,0
2.273,4.608,0
2.274,5.707,0
2.275,4.792,0
2.276,2.045,0
2.277,1.313,0
2.278,-3.998,0
2.279,-5.829,0
2.28,-6.378,0
2.281,-10.223,0
2.282,-7.843,0
2.283,-12.97,0
2.284,-19.195,0
2.285,-11.688,0
2.286,-8.758,0
2.287,-7.843,0
2.288,-5.462,0
2.289,-1.617,0
2.29,2.96,0
2.291,2.411,0
2.292,-1.434,0
2.293,-2.716,0
2.294,-0.519,0
2.295,2.594,0
2.296,-0.152,0
2.297,-2.716,0
2.298,-2.35,0
2.299,2.228,0
2.3,12.482,0
2.301,2.045,0
2.302,-15.716,0
2.303,-13.336,0
2.304,-11.139,0
2.305,-5.096,0
2.306,-3.265,0
2.307,1.679,0
2.308,12.116,0
2.309,10.834,0
2.31,19.257,0
2.311,6.806,0
2.312,15.045,0
2.313,13.581,0
2.314,6.806,0
2.315,5.707,0
2.316,9.003,0
2.317,11.933,0
2.318,14.679,0
2.319,12.299,0
2.32,20.722,0
2.321,15.045,0
2.322,15.961,0
2.323,13.214,0
2.324,13.947,0
2.325,16.144,0
2.326,17.975,0
2.327,16.144,0
2.328,14.496,0
2.329,12.116,0
2.33,19.074,0
2.331,18.158,0
2.332,19.074,0
2.333,6.623,0
2.334,1.129,0
2.335,6.073,0
2.336,13.581,0
2.337,6.806,0
2.338,0.763,0
2.339,-7.11,0
2.34,-2.167,0
2.341,6.256,0
2.342,0.58,0
2.343,-2.35,0
2.344,0.397,0
2.345,-7.11,0
2.346,-6.927,0
2.347,-9.857,0
2.348,-7.11,0
2.349,-19.562,0
2.35,-14.068,0
2.351,-22.308,0
2.352,-38.788,0
2.353,-14.435,0
2.354,-17.547,0
2.355,-26.336,0
2.356,-12.97,0
2.357,-5.829,0
2.358,9.552,0
2.359,-4.547,0
2.36,-13.702,0
2.361,-12.054,0
2.362,-7.66,0
2.363,-11.688,0
2.364,-10.589,0
2.365,-18.463,0
2.366,-19.378,0
2.367,-14.801,0
2.368,-18.829,0
2.369,-24.139,0
2.37,-22.308,0
2.371,-21.759,0
2.372,-19.012,0
2.373,-11.505,0
2.374,-14.801,0
2.375,-25.97,0
2.376,-27.435,0
2.377,-28.717,0
2.378,-17.547,0
2.379,-21.942,0
2.38,-31.463,0
2.381,-34.942,0
2.382,-36.041,0
2.383,-33.111,0
2.384,-37.689,0
2.385,-38.421,0
2.386,-33.111,0
2.387,-29.815,0
2.388,-26.703,0
2.389,-20.477,0
2.39,-18.097,0
2.391,-17.364,0
2.392,-15.533,0
2.393,-7.293,0
2.394,-12.97,0
2.395,-15.899,0
2.396,-14.984,0
2.397,-15.716,0
2.398,-14.984,0
2.399,-21.942,0
2.4,-9.857,0
2.401,-8.209,0
2.402,-3.814,0
2.403,-2.533,0
2.404,15.961,0
2.405,18.524,0
2.406,1.679,0
2.407,8.271,0
2.408,14.313,0
2.409,12.482,0
2.41,7.538,0
2.411,9.003,0
2.412,13.031,0
2.413,16.51,0
2.414,1.679,0
2.415,7.721,0
2.416,13.214,0
2.417,11.566,0
2.418,13.031,0
2.419,11.75,0
2.42,8.271,0
2.421,18.524,0
2.422,25.299,0
2.423,31.342,0
2.424,37.018,0
2.425,43.976,0
2.426,48.554,0
2.427,54.23,0
2.428,53.498,0
2.429,48.92,0
2.43,43.244,0
2.431,34.821,0
2.432,31.525,0
2.433,26.581,0
2.434,25.666,0
2.435,13.214,0
2.436,-3.265,0
2.437,-9.857,0
2.438,-3.814,0
2.439,-5.646,0
2.44,-13.885,0
2.441,-27.435,0
2.442,-21.942,0
2.443,-16.998,0
2.444,-15.533,0
2.445,-3.265,0
2.446,21.637,0
2.447,-3.265,0
2.448,-35.492,0
2.449,-58.014,0
2.45,-66.803,0
2.451,-90.973,0
2.452,-113.5,0
2.453,-134.19,0
2.454,-147.55,0
2.455,-154.69,0
2.456,-165.68,0
2.457,-155.61,0
2.458,-128.14,0
2.459,-69,0
2.46,58.075,0
2.461,149.08,0
2.462,165.56,0
2.463,180.57,0
2.464,139.74,0
2.465,127.29,0
2.466,93.598,0
2.467,62.836,0
2.468,53.498,0
2.469,61.92,0
2.47,38.849,0
2.471,45.807,0
2.472,64.667,0
2.473,81.879,0
2.474,87.006,0
2.475,91.767,0
2.476,104.58,0
2.477,100.74,0
2.478,104.22,0
2.479,101.11,0
2.48,104.03,0
2.481,96.161,0
2.482,79.315,0
2.483,50.568,0
2.484,30.976,0
2.485,34.455,0
2.486,31.342,0
2.487,34.271,0
2.488,20.905,0
2.489,8.82,0
2.49,6.623,0
2.491,-3.448,0
2.492,-12.604,0
2.493,-17.547,0
2.494,-13.153,0
2.495,-28.167,0
2.496,-46.295,0
2.497,-53.436,0
2.498,-46.844,0
2.499,-48.675,0
2.5,-54.718,0
2.501,-49.225,0
2.502,-57.464,0
2.503,-77.057,0
2.504,-58.38,0
2.505,-70.465,0
2.506,-72.662,0
2.507,-74.676,0
2.508,-72.845,0
2.509,-67.901,0
2.51,-66.437,0
2.511,-65.155,0
2.512,-59.112,0
2.513,-58.014,0
2.514,-55.084,0
2.515,-50.506,0
2.516,-39.703,0
2.517,-35.309,0
2.518,-31.28,0
2.519,-27.801,0
2.52,-17.547,0
2.521,-24.322,0
2.522,-15.899,0
2.523,-8.026,0
2.524,-1.068,0
2.525,5.341,0
2.526,7.721,0
2.527,5.524,0
2.528,2.228,0
2.529,1.679,0
2.53,1.129,0
2.531,3.51,0
2.532,10.468,0
2.533,17.426,0
2.534,12.848,0
2.535,10.468,0
2.536,11.2,0
2.537,14.496,0
2.538,21.454,0
2.539,26.032,0
2.54,22.003,0
2.541,19.806,0
2.542,13.581,0
2.543,15.961,0
2.544,19.806,0
2.545,27.313,0
2.546,22.37,0
2.547,15.961,0
2.548,11.933,0
2.549,12.665,0
2.55,12.116,0
2.551,7.538,0
2.552,17.06,0
2.553,7.538,0
2.554,18.708,0
2.555,26.215,0
2.556,24.933,0
2.557,13.764,0
2.558,15.229,0
2.559,13.947,0
2.56,12.848,0
2.561,4.975,0
2.562,4.059,0
2.563,6.806,0
2.564,-2.35,0
2.565,13.764,0
2.566,2.777,0
2.567,-7.293,0
2.568,1.862,0
2.569,-3.082,0
2.57,1.313,0
2.571,5.341,0
2.572,-0.702,0
2.573,-1.8,0
2.574,-0.885,0
2.575,1.862,0
2.576,2.594,0
2.577,-5.829,0
2.578,-0.152,0
2.579,-3.082,0
2.58,1.496,0
2.581,-6.012,0
2.582,-8.941,0
2.583,-9.857,0
2.584,-4.181,0
2.585,-0.335,0
2.586,-7.843,0
2.587,-4.913,0
2.588,-7.66,0
2.589,3.144,0
2.59,4.608,0
2.591,8.637,0
2.592,2.594,0
2.593,-0.702,0
2.594,-1.617,0
2.595,-0.702,0
2.596,-4.73,0
2.597,-2.533,0
2.598,-4.364,0
2.599,5.158,0
2.6,11.933,0
2.601,4.059,0
2.602,-7.11,0
2.603,-5.646,0
2.604,12.116,0
2.605,4.975,0
2.606,-6.012,0
2.607,-3.998,0
2.608,12.482,0
2.609,10.285,0
2.61,8.271,0
2.611,6.439,0
2.612,4.792,0
2.613,0.397,0
2.614,-14.618,0
2.615,-16.632,0
2.616,-18.463,0
2.617,-26.703,0
2.618,-25.238,0
2.619,-15.716,0
2.62,-16.815,0
2.621,-13.519,0
2.622,1.679,0
2.623,3.876,0
2.624,1.862,0
2.625,3.693,0
2.626,-1.251,0
2.627,-2.716,0
2.628,-9.491,0
2.629,-12.97,0
2.63,-16.266,0
2.631,-15.35,0
2.632,-1.434,0
2.633,-7.477,0
2.634,-9.308,0
2.635,-1.068,0
2.636,-8.575,0
2.637,-1.8,0
2.638,-5.279,0
2.639,-4.181,0
2.64,-11.139,0
2.641,-15.716,0
2.642,-8.209,0
2.643,2.96,0
2.644,-13.519,0
2.645,-24.505,0
2.646,-42.633,0
2.647,-35.492,0
2.648,-28.9,0
2.649,-10.772,0
2.65,1.313,0
2.651,21.271,0
2.652,26.032,0
2.653,12.665,0
2.654,24.75,0
2.655,9.369,0
2.656,-8.758,0
2.657,-11.139,0
2.658,8.82,0
2.659,0.946,0
2.66,-21.026,0
2.661,-18.097,0
2.662,-20.66,0
2.663,-27.801,0
2.664,-34.393,0
2.665,-32.379,0
2.666,-37.872,0
2.667,-36.224,0
2.668,-28.717,0
2.669,-32.745,0
2.67,-21.576,0
2.671,-20.111,0
2.672,-16.083,0
2.673,-10.04,0
2.674,-2.167,0
2.675,4.792,0
2.676,7.538,0
2.677,13.214,0
2.678,12.482,0
2.679,14.313,0
2.68,4.792,0
2.681,11.566,0
2.682,15.045,0
2.683,20.722,0
2.684,11.566,0
2.685,17.609,0
2.686,34.638,0
2.687,46.723,0
2.688,40.131,0
2.689,38.117,0
2.69,39.948,0
2.691,41.596,0
2.692,37.201,0
2.693,35.919,0
2.694,32.44,0
2.695,31.342,0
2.696,24.384,0
2.697,21.637,0
2.698,25.666,0
2.699,21.82,0
2.7,15.595,0
2.701,9.918,0
2.702,10.651,0
2.703,7.721,0
2.704,17.975,0
2.705,40.497,0
2.706,30.976,0
2.707,33.905,0
2.708,41.779,0
2.709,29.694,0
2.71,9.735,0
2.711,17.609,0
2.712,10.468,0
2.713,-0.519,0
2.714,-2.533,0
2.715,-0.702,0
2.716,-5.646,0
2.717,-10.04,0
2.718,-6.012,0
2.719,-7.11,0
2.72,-6.012,0
2.721,5.158,0
2.722,6.623,0
2.723,-0.152,0
2.724,0.946,0
2.725,2.045,0
2.726,6.989,0
2.727,6.073,0
2.728,3.693,0
2.729,-1.617,0
2.73,1.679,0
2.731,-7.843,0
2.732,-9.125,0
2.733,-15.167,0
2.734,-14.068,0
2.735,-9.125,0
2.736,-0.702,0
2.737,-1.8,0
2.738,1.129,0
2.739,2.045,0
2.74,-0.335,0
2.741,0.397,0
2.742,-1.434,0
2.743,4.242,0
2.744,11.2,0
2.745,12.116,0
2.746,1.313,0
2.747,-3.082,0
2.748,-4.364,0
2.749,-5.462,0
2.75,-2.167,0
2.751,-3.082,0
2.752,-0.335,0
2.753,-6.012,0
2.754,-6.927,0
2.755,-4.73,0
2.756,5.524,0
2.757,15.961,0
2.758,11.933,0
2.759,17.975,0
2.76,14.679,0
2.761,17.609,0
2.762,5.524,0
2.763,20.539,0
2.764,14.496,0
2.765,-1.983,0
2.766,-8.575,0
2.767,-6.561,0
2.768,-4.73,0
2.769,-3.082,0
2.77,1.313,0
2.771,0.031,0
2.772,1.129,0
2.773,-2.167,0
2.774,6.989,0
2.775,3.51,0
2.776,2.411,0
2.777,-2.533,0
2.778,2.045,0
2.779,7.721,0
2.78,8.454,0
2.781,7.904,0
2.782,4.792,0
2.783,5.341,0
2.784,4.975,0
2.785,-1.983,0
2.786,-1.068,0
2.787,1.679,0
2.788,10.834,0
2.789,11.933,0
2.79,1.679,0
2.791,-2.35,0
2.792,-8.392,0
2.793,-14.068,0
2.794,-11.139,0
2.795,-17.547,0
2.796,-19.928,0
2.797,-19.195,0
2.798,-25.421,0
2.799,-31.097,0
2.8,-24.139,0
2.801,-30.548,0
2.802,-34.576,0
2.803,-32.379,0
2.804,-35.675,0
2.805,-29.632,0
2.806,-25.238,0
2.807,-19.012,0
2.808,-9.857,0
2.809,-1.434,0
2.81,-0.335,0
2.811,-5.279,0
2.812,-0.702,0
2.813,-4.73,0
2.814,-16.266,0
2.815,-24.505,0
2.816,-23.041,0
2.817,-21.759,0
2.818,-18.28,0
2.819,-14.984,0
2.82,-14.068,0
2.821,-16.815,0
2.822,-12.787,0
2.823,-7.477,0
2.824,-2.899,0
2.825,2.777,0
2.826,3.51,0
2.827,0.214,0
2.828,-0.335,0
2.829,8.087,0
2.83,11.566,0
2.831,8.271,0
2.832,3.327,0
2.833,4.242,0
2.834,9.918,0
2.835,15.229,0
2.836,25.482,0
2.837,32.99,0
2.838,26.215,0
2.839,32.257,0
2.84,33.356,0
2.841,44.525,0
2.842,54.962,0
2.843,50.934,0
2.844,56.977,0
2.845,53.681,0
2.846,56.61,0
2.847,59.357,0
2.848,56.977,0
2.849,51.667,0
2.85,54.962,0
2.851,50.568,0
2.852,42.145,0
2.853,28.595,0
2.854,30.426,0
2.855,22.187,0
2.856,17.975,0
2.857,7.538,0
2.858,17.06,0
2.859,-1.434,0
2.86,1.129,0
2.861,3.51,0
2.862,14.496,0
2.863,8.454,0
2.864,-11.688,0
2.865,-9.125,0
2.866,-21.209,0
2.867,-27.801,0
2.868,-29.815,0
2.869,-31.646,0
2.87,-46.661,0
2.871,-40.619,0
2.872,-46.112,0
2.873,-47.76,0
2.874,-46.295,0
2.875,-47.577,0
2.876,-53.619,0
2.877,-54.718,0
2.878,-61.676,0
2.879,-62.591,0
2.88,-58.563,0
2.881,-54.718,0
2.882,-54.168,0
2.883,-56,0
2.884,-49.774,0
2.885,-47.394,0
2.886,-43.548,0
2.887,-45.379,0
2.888,-39.703,0
2.889,-40.436,0
2.89,-34.21,0
2.891,-30.182,0
2.892,-27.984,0
2.893,-27.435,0
2.894,-25.604,0
2.895,-23.956,0
2.896,-16.449,0
2.897,-15.35,0
2.898,-12.42,0
2.899,-7.843,0
2.9,-11.871,0
2.901,-11.139,0
2.902,-4.913,0
2.903,-5.646,0
2.904,-0.335,0
2.905,0.214,0
2.906,0.763,0
2.907,6.256,0
2.908,6.806,0
2.909,14.313,0
2.91,11.017,0
2.911,22.187,0
2.912,20.722,0
2.913,11.2,0
2.914,14.679,0
2.915,9.003,0
2.916,13.947,0
2.917,11.2,0
2.918,11.933,0
2.919,12.665,0
2.92,10.834,0
2.921,7.721,0
2.922,11.566,0
2.923,16.144,0
2.924,13.031,0
2.925,16.876,0
2.926,13.581,0
2.927,13.947,0
2.928,16.693,0
2.929,15.595,0
2.93,11.566,0
2.931,11.933,0
2.932,8.82,0
2.933,9.186,0
2.934,14.13,0
2.935,12.299,0
2.936,16.693,0
2.937,16.144,0
2.938,17.426,0
2.939,20.539,0
2.94,21.637,0
2.941,23.468,0
2.942,20.905,0
2.943,16.327,0
2.944,14.496,0
2.945,18.891,0
2.946,18.341,0
2.947,15.045,0
2.948,14.679,0
2.949,15.778,0
2.95,12.299,0
2.951,15.412,0
2.952,9.186,0
2.953,2.777,0
2.954,6.806,0
2.955,10.651,0
2.956,1.679,0
2.957,0.58,0
2.958,4.792,0
2.959,8.087,0
2.96,23.285,0
2.961,12.299,0
2.962,26.398,0
2.963,17.243,0
2.964,18.891,0
2.965,20.355,0
2.966,13.581,0
2.967,5.158,0
2.968,-5.096,0
2.969,-6.378,0
2.97,-2.899,0
2.971,2.777,0
2.972,-4.181,0
2.973,-6.927,0
2.974,-1.251,0
2.975,0.946,0
2.976,1.496,0
2.977,4.608,0
2.978,-1.617,0
2.979,-3.998,0
2.98,-6.195,0
2.981,-5.646,0
2.982,-6.195,0
2.983,-11.322,0
2.984,-6.744,0
2.985,-8.575,0
2.986,-6.927,0
2.987,-5.646,0
2.988,-6.927,0
2.989,-8.026,0
2.99,-3.082,0
2.991,1.496,0
2.992,-2.899,0
2.993,-6.744,0
2.994,-2.167,0
2.995,2.228,0
2.996,-1.617,0
2.997,-0.335,0
2.998,2.777,0
2.999,-2.716,0
3,-4.913,0
3.001,-3.082,0
3.002,2.594,0
3.003,-5.829,0
3.004,-2.533,0
3.005,0.397,0
3.006,1.313,0
3.007,3.693,0
3.008,4.425,0
3.009,6.256,0
3.01,5.707,0
3.011,15.229,0
3.012,8.454,0
3.013,19.623,0
3.014,9.186,0
3.015,-5.829,0
3.016,0.214,0
3.017,2.045,0
3.018,-2.899,0
3.019,-7.293,0
3.02,-3.265,0
3.021,0.214,0
3.022,1.313,0
3.023,4.242,0
3.024,14.496,0
3.025,-0.519,0
3.026,1.496,0
3.027,3.327,0
3.028,-1.617,0
3.029,5.89,0
3.03,4.608,0
3.031,5.707,0
3.032,4.608,0
3.033,7.538,0
3.034,10.285,0
3.035,6.256,0
3.036,6.989,0
3.037,-3.265,0
3.038,-4.73,0
3.039,-6.012,0
3.04,-4.913,0
3.041,2.96,0
3.042,2.045,0
3.043,-0.702,0
3.044,-1.434,0
3.045,-2.167,0
3.046,-6.744,0
3.047,-7.293,0
3.048,-8.941,0
3.049,-12.237,0
3.05,-15.35,0
3.051,-9.857,0
3.052,-9.125,0
3.053,-7.293,0
3.054,0.946,0
3.055,2.045,0
3.056,-4.913,0
3.057,-5.829,0
3.058,-9.857,0
3.059,-1.434,0
3.06,-3.265,0
3.061,-2.167,0
3.062,9.003,0
3.063,-1.434,0
3.064,13.581,0
3.065,11.566,0
3.066,2.411,0
3.067,0.763,0
3.068,-3.631,0
3.069,5.89,0
3.07,9.369,0
3.071,6.073,0
3.072,3.144,0
3.073,4.059,0
3.074,0.031,0
3.075,0.763,0
3.076,-1.068,0
3.077,5.89,0
3.078,8.637,0
3.079,16.144,0
3.08,19.074,0
3.081,19.989,0
3.082,20.722,0
3.083,19.989,0
3.084,15.412,0
3.085,13.581,0
3.086,14.13,0
3.087,13.764,0
3.088,6.806,0
3.089,-8.392,0
3.09,-10.589,0
3.091,-20.66,0
3.092,-26.153,0
3.093,-31.097,0
3.094,-38.604,0
3.095,-42.633,0
3.096,-26.52,0
3.097,-41.9,0
3.098,-23.773,0
3.099,-11.688,0
3.1,-9.491,0
3.101,-27.618,0
3.102,-44.464,0
3.103,-68.817,0
3.104,-98.114,0
3.105,-125.58,0
3.106,-136.2,0
3.107,-126.68,0
3.108,-129.61,0
3.109,-137.48,0
3.11,-139.86,0
3.111,-129.97,0
3.112,-96.832,0
3.113,-25.238,0
3.114,108.25,0
3.115,126.37,0
3.116,176,0
3.117,160.98,0
3.118,120.15,0
3.119,107.7,0
3.12,96.527,0
3.121,45.258,0
3.122,35.919,0
3.123,27.497,0
3.124,35.187,0
3.125,56.061,0
3.126,74.921,0
3.127,80.597,0
3.128,85.724,0
3.129,90.485,0
3.13,94.696,0
3.131,106.42,0
3.132,109.89,0
3.133,119.42,0
3.134,116.49,0
3.135,92.316,0
3.136,69.794,0
3.137,43.061,0
3.138,39.582,0
3.139,49.103,0
3.14,46.173,0
3.141,38.3,0
3.142,31.159,0
3.143,11.2,0
3.144,3.327,0
3.145,-13.519,0
3.146,-24.505,0
3.147,-18.463,0
3.148,-23.956,0
3.149,-38.971,0
3.15,-49.042,0
3.151,-54.535,0
3.152,-52.887,0
3.153,-51.422,0
3.154,-52.704,0
3.155,-53.802,0
3.156,-57.098,0
3.157,-54.168,0
3.158,-56.915,0
3.159,-64.422,0
3.16,-67.352,0
3.161,-62.774,0
3.162,-61.859,0
3.163,-61.126,0
3.164,-64.972,0
3.165,-54.718,0
3.166,-44.281,0
3.167,-37.506,0
3.168,-36.407,0
3.169,-19.378,0
3.17,-16.998,0
3.171,-23.59,0
3.172,-21.576,0
3.173,-8.758,0
3.174,-7.11,0
3.175,0.397,0
3.176,12.665,0
3.177,14.313,0
3.178,15.778,0
3.179,19.806,0
3.18,23.285,0
3.181,28.961,0
3.182,29.877,0
3.183,30.792,0
3.184,30.06,0
3.185,26.215,0
3.186,29.511,0
3.187,30.06,0
3.188,27.313,0
3.189,27.68,0
3.19,28.961,0
3.191,26.215,0
3.192,21.271,0
3.193,31.525,0
3.194,32.99,0
3.195,28.961,0
3.196,30.06,0
3.197,17.609,0
3.198,12.665,0
3.199,5.158,0
3.2,-1.617,0
3.201,-2.716,0
3.202,2.96,0
3.203,7.904,0
3.204,6.989,0
3.205,19.44,0
3.206,13.947,0
3.207,-1.068,0
3.208,0.946,0
3.209,-4.547,0
3.21,-9.491,0
3.211,-16.998,0
3.212,-23.773,0
3.213,-28.9,0
3.214,-29.999,0
3.215,-15.167,0
3.216,-25.238,0
3.217,-23.407,0
3.218,-31.646,0
3.219,-33.111,0
3.22,-45.379,0
3.221,-30.365,0
3.222,-36.407,0
3.223,-38.238,0
3.224,-39.886,0
3.225,-44.281,0
3.226,-40.252,0
3.227,-39.154,0
3.228,-38.055,0
3.229,-40.985,0
3.23,-41.9,0
3.231,-41.168,0
3.232,-40.436,0
3.233,-39.886,0
3.234,-38.055,0
3.235,-34.21,0
3.236,-38.788,0
3.237,-31.83,0
3.238,-27.252,0
3.239,-21.576,0
3.24,-17.73,0
3.241,-17.181,0
3.242,-11.505,0
3.243,-9.308,0
3.244,-11.139,0
3.245,-8.026,0
3.246,-6.378,0
3.247,-1.8,0
3.248,2.594,0
3.249,-0.152,0
3.25,4.425,0
3.251,2.594,0
3.252,6.439,0
3.253,11.017,0
3.254,15.412,0
3.255,15.961,0
3.256,23.468,0
3.257,29.145,0
3.258,32.074,0
3.259,27.497,0
3.26,25.116,0
3.261,25.849,0
3.262,27.68,0
3.263,25.849,0
3.264,23.834,0
3.265,19.989,0
3.266,27.497,0
3.267,30.792,0
3.268,35.736,0
3.269,21.82,0
3.27,15.778,0
3.271,24.933,0
3.272,19.989,0
3.273,18.524,0
3.274,19.806,0
3.275,13.764,0
3.276,5.89,0
3.277,-1.068,0
3.278,-3.814,0
3.279,-4.547,0
3.28,-6.744,0
3.281,-10.04,0
3.282,-8.209,0
3.283,-9.857,0
3.284,-9.491,0
3.285,-10.772,0
3.286,-6.195,0
3.287,-6.744,0
3.288,-0.519,0
3.289,-6.195,0
3.29,-0.885,0
3.291,-5.462,0
3.292,-6.012,0
3.293,-7.66,0
3.294,-2.167,0
3.295,0.031,0
3.296,0.58,0
3.297,3.693,0
3.298,-0.152,0
3.299,-0.519,0
3.3,-1.8,0
3.301,-3.814,0
3.302,1.862,0
3.303,2.594,0
3.304,3.327,0
3.305,0.031,0
3.306,-4.364,0
3.307,-1.617,0
3.308,1.679,0
3.309,3.876,0
3.31,6.623,0
3.311,4.792,0
3.312,0.031,0
3.313,6.989,0
3.314,7.904,0
3.315,-0.335,0
3.316,-1.068,0
3.317,4.242,0
3.318,10.468,0
3.319,9.735,0
3.32,21.271,0
3.321,22.919,0
3.322,18.524,0
3.323,14.496,0
3.324,8.454,0
3.325,7.355,0
3.326,0.397,0
3.327,8.82,0
3.328,5.524,0
3.329,8.454,0
3.33,5.707,0
3.331,3.327,0
3.332,4.059,0
3.333,0.763,0
3.334,2.594,0
3.335,6.439,0
3.336,5.158,0
3.337,8.271,0
3.338,9.369,0
3.339,6.806,0
3.34,4.975,0
3.341,4.242,0
3.342,8.454,0
3.343,2.777,0
3.344,3.51,0
3.345,6.806,0
3.346,3.693,0
3.347,6.439,0
3.348,3.144,0
3.349,0.946,0
3.35,1.313,0
3.351,0.946,0
3.352,2.777,0
3.353,2.594,0
3.354,1.862,0
3.355,1.129,0
3.356,4.242,0
3.357,1.496,0
3.358,-1.068,0
3.359,-0.702,0
3.36,3.876,0
3.361,5.707,0
3.362,5.158,0
3.363,4.608,0
3.364,0.031,0
3.365,0.58,0
3.366,-1.068,0
3.367,-3.814,0
3.368,3.693,0
3.369,9.369,0
3.37,8.454,0
3.371,18.708,0
3.372,11.933,0
3.373,-1.617,0
3.374,3.876,0
3.375,5.524,0
3.376,-8.026,0
3.377,-2.533,0
3.378,2.411,0
3.379,0.946,0
3.38,-3.082,0
3.381,-6.561,0
3.382,-7.66,0
3.383,-6.744,0
3.384,-7.66,0
3.385,-5.279,0
3.386,-7.477,0
3.387,-1.251,0
3.388,4.425,0
3.389,3.693,0
3.39,3.144,0
3.391,1.313,0
3.392,2.96,0
3.393,0.58,0
3.394,2.777,0
3.395,7.355,0
3.396,4.242,0
3.397,3.693,0
3.398,-0.885,0
3.399,-2.716,0
3.4,0.031,0
3.401,3.327,0
3.402,5.524,0
3.403,5.89,0
3.404,1.679,0
3.405,4.425,0
3.406,4.059,0
3.407,3.693,0
3.408,6.439,0
3.409,5.341,0
3.41,10.834,0
3.411,8.637,0
3.412,10.468,0
3.413,2.228,0
3.414,-1.068,0
3.415,-1.983,0
3.416,0.763,0
3.417,-0.335,0
3.418,0.397,0
3.419,11.933,0
3.42,16.876,0
3.421,15.412,0
3.422,14.13,0
3.423,2.96,0
3.424,1.496,0
3.425,-2.533,0
3.426,-1.434,0
3.427,-0.335,0
3.428,2.594,0
3.429,-3.814,0
3.43,-7.843,0
3.431,-10.04,0
3.432,-9.491,0
3.433,-10.04,0
3.434,-12.787,0
3.435,-8.209,0
3.436,-6.378,0
3.437,-11.505,0
3.438,-13.336,0
3.439,-3.814,0
3.44,-5.096,0
3.441,-13.519,0
3.442,-10.223,0
3.443,-3.265,0
3.444,-6.012,0
3.445,-11.688,0
3.446,-12.42,0
3.447,-10.589,0
3.448,-10.04,0
3.449,-6.195,0
3.45,-6.561,0
3.451,-6.195,0
3.452,-7.293,0
3.453,-4.73,0
3.454,-2.167,0
3.455,-4.913,0
3.456,-3.082,0
3.457,-4.181,0
3.458,-6.195,0
3.459,-6.012,0
3.46,-2.533,0
3.461,-5.646,0
3.462,-4.547,0
3.463,-3.448,0
3.464,-0.885,0
3.465,-5.462,0
3.466,-4.913,0
3.467,-4.364,0
3.468,-1.8,0
3.469,-5.646,0
3.47,1.862,0
3.471,0.763,0
3.472,3.693,0
3.473,8.271,0
3.474,10.651,0
3.475,-0.885,0
3.476,-2.533,0
3.477,-6.927,0
3.478,-10.956,0
3.479,-9.857,0
3.48,-6.561,0
3.481,-3.631,0
3.482,-10.04,0
3.483,-9.308,0
3.484,-10.04,0
3.485,-10.589,0
3.486,-13.702,0
3.487,-10.956,0
3.488,-8.575,0
3.489,-9.857,0
3.49,-9.491,0
3.491,-13.702,0
3.492,-8.575,0
3.493,-2.35,0
3.494,-3.082,0
3.495,2.228,0
3.496,1.679,0
3.497,2.228,0
3.498,4.975,0
3.499,1.679,0
3.5,5.89,0
3.501,2.045,0
3.502,0.763,0
3.503,-2.35,0
3.504,-1.983,0
3.505,3.693,0
3.506,6.073,0
3.507,6.806,0
3.508,7.355,0
3.509,7.904,0
3.51,11.75,0
3.511,12.116,0
3.512,11.75,0
3.513,10.651,0
3.514,12.482,0
3.515,13.581,0
3.516,18.158,0
3.517,21.454,0
3.518,18.341,0
3.519,16.51,0
3.52,13.764,0
3.521,21.271,0
3.522,24.567,0
3.523,27.497,0
3.524,30.243,0
3.525,27.863,0
3.526,22.553,0
3.527,32.807,0
3.528,22.37,0
3.529,15.595,0
3.53,19.074,0
3.531,15.778,0
3.532,12.848,0
3.533,13.764,0
3.534,11.383,0
3.535,9.186,0
3.536,5.89,0
3.537,6.439,0
3.538,8.087,0
3.539,11.383,0
3.54,11.017,0
3.541,8.271,0
3.542,7.172,0
3.543,9.003,0
3.544,8.271,0
3.545,8.454,0
3.546,9.735,0
3.547,8.271,0
3.548,11.566,0
3.549,12.848,0
3.55,6.623,0
3.551,3.876,0
3.552,4.608,0
3.553,6.806,0
3.554,10.102,0
3.555,13.214,0
3.556,10.468,0
3.557,13.764,0
3.558,6.806,0
3.559,7.721,0
3.56,3.144,0
3.561,2.411,0
3.562,-1.434,0
3.563,-1.983,0
3.564,-5.096,0
3.565,-6.744,0
3.566,-1.251,0
3.567,-3.448,0
3.568,-10.956,0
3.569,-17.914,0
3.57,-11.322,0
3.571,-15.899,0
3.572,-15.167,0
3.573,-8.209,0
3.574,-7.293,0
3.575,-11.322,0
3.576,0.214,0
3.577,-4.73,0
3.578,2.777,0
3.579,-6.744,0
3.58,-5.646,0
3.581,-6.744,0
3.582,-13.702,0
3.583,-27.618,0
3.584,-21.576,0
3.585,-19.745,0
3.586,-21.393,0
3.587,-10.956,0
3.588,-6.927,0
3.589,-20.477,0
3.59,-29.632,0
3.591,-21.393,0
3.592,-16.998,0
3.593,-18.28,0
3.594,-17.181,0
3.595,-16.083,0
3.596,-16.998,0
3.597,-10.589,0
3.598,-6.561,0
3.599,-2.716,0
3.6,-10.223,0
3.601,-9.308,0
3.602,-8.392,0
3.603,-2.716,0
3.604,-3.448,0
3.605,-0.152,0
3.606,-0.702,0
3.607,6.623,0
3.608,7.538,0
3.609,6.623,0
3.61,2.594,0
3.611,4.792,0
3.612,8.087,0
3.613,11.2,0
3.614,4.975,0
3.615,5.707,0
3.616,6.439,0
3.617,4.608,0
3.618,4.059,0
3.619,6.806,0
3.62,7.172,0
3.621,4.059,0
3.622,5.341,0
3.623,11.566,0
3.624,10.651,0
3.625,23.102,0
3.626,17.609,0
3.627,9.369,0
3.628,4.975,0
3.629,0.946,0
3.63,-0.152,0
3.631,-3.448,0
3.632,-2.533,0
3.633,-1.617,0
3.634,-3.998,0
3.635,-6.195,0
3.636,-4.364,0
3.637,-2.533,0
3.638,-1.983,0
3.639,-3.265,0
3.64,-2.899,0
3.641,-0.152,0
3.642,-4.364,0
3.643,0.763,0
3.644,6.989,0
3.645,-0.519,0
3.646,-1.434,0
3.647,1.313,0
3.648,-1.068,0
3.649,-3.265,0
3.65,-7.843,0
3.651,-4.73,0
3.652,-1.983,0
3.653,0.397,0
3.654,-0.885,0
3.655,-7.11,0
3.656,-2.533,0
3.657,-3.265,0
3.658,8.271,0
3.659,9.918,0
3.66,-0.519,0
3.661,-1.8,0
3.662,-0.702,0
3.663,0.397,0
3.664,-2.533,0
3.665,-1.617,0
3.666,-2.35,0
3.667,-3.082,0
3.668,-4.913,0
3.669,-4.364,0
3.67,-2.716,0
3.671,-1.434,0
3.672,-0.335,0
3.673,0.031,0
3.674,6.256,0
3.675,10.834,0
3.676,3.327,0
3.677,18.524,0
3.678,11.933,0
3.679,1.862,0
3.68,-7.293,0
3.681,-2.35,0
3.682,-0.885,0
3.683,-2.167,0
3.684,-5.646,0
3.685,-6.744,0
3.686,-5.829,0
3.687,-6.744,0
3.688,4.059,0
3.689,-0.335,0
3.69,0.946,0
3.691,4.425,0
3.692,1.129,0
3.693,2.045,0
3.694,1.129,0
3.695,1.862,0
3.696,2.594,0
3.697,0.763,0
3.698,-2.35,0
3.699,-0.702,0
3.7,-1.983,0
3.701,-3.265,0
3.702,-6.012,0
3.703,-0.335,0
3.704,-6.012,0
3.705,-6.744,0
3.706,-2.167,0
3.707,-1.617,0
3.708,-2.167,0
3.709,-0.885,0
3.71,4.242,0
3.711,13.214,0
3.712,16.693,0
3.713,15.595,0
3.714,20.539,0
3.715,26.947,0
3.716,32.624,0
3.717,33.356,0
3.718,27.13,0
3.719,21.454,0
3.72,9.918,0
3.721,18.158,0
3.722,10.651,0
3.723,8.454,0
3.724,1.679,0
3.725,-1.8,0
3.726,-7.477,0
3.727,-14.435,0
3.728,-28.351,0
3.729,-46.478,0
3.73,-53.619,0
3.731,-55.816,0
3.732,-53.802,0
3.733,-51.971,0
3.734,-36.957,0
3.735,-14.801,0
3.736,-11.871,0
3.737,-36.041,0
3.738,-52.154,0
3.739,-90.79,0
3.74,-116.97,0
3.741,-169.53,0
3.742,-176.48,0
3.743,-170.26,0
3.744,-153.04,0
3.745,-158.17,0
3.746,-143.89,0
3.747,-122.28,0
3.748,-63.141,0
3.749,63.935,0
3.75,154.94,0
3.751,171.42,0
3.752,216.46,0
3.753,175.63,0
3.754,163.18,0
3.755,152.01,0
3.756,100.74,0
3.757,72.724,0
3.758,47.455,0
3.759,39.765,0
3.76,46.723,0
3.761,52.948,0
3.762,58.625,0
3.763,74.188,0
3.764,88.471,0
3.765,110.08,0
3.766,121.8,0
3.767,118.32,0
3.768,121.43,0
3.769,130.22,0
3.77,122.34,0
3.771,105.5,0
3.772,81.146,0
3.773,58.625,0
3.774,36.286,0
3.775,33.356,0
3.776,52.033,0
3.777,44.892,0
3.778,38.3,0
3.779,32.257,0
3.78,12.116,0
3.781,-12.054,0
3.782,-34.576,0
3.783,-43.365,0
3.784,-40.802,0
3.785,-57.647,0
3.786,-64.239,0
3.787,-62.225,0
3.788,-64.056,0
3.789,-62.408,0
3.79,-63.873,0
3.791,-65.155,0
3.792,-59.112,0
3.793,-71.563,0
3.794,-69.916,0
3.795,-74.31,0
3.796,-78.338,0
3.797,-77.24,0
3.798,-78.338,0
3.799,-71.38,0
3.8,-68.634,0
3.801,-67.901,0
3.802,-60.943,0
3.803,-54.535,0
3.804,-48.858,0
3.805,-38.788,0
3.806,-37.506,0
3.807,-29.083,0
3.808,-25.787,0
3.809,-18.829,0
3.81,-16.083,0
3.811,-12.054,0
3.812,-12.787,0
3.813,-6.561,0
3.814,-7.293,0
3.815,-6.561,0
3.816,-6.012,0
3.817,-2.899,0
3.818,-2.35,0
3.819,-3.631,0
3.82,-1.434,0
3.821,4.792,0
3.822,15.045,0
3.823,13.764,0
3.824,12.665,0
3.825,14.313,0
3.826,11.017,0
3.827,10.102,0
3.828,14.679,0
3.829,12.299,0
3.83,8.454,0
3.831,3.876,0
3.832,6.989,0
3.833,15.412,0
3.834,11.933,0
3.835,6.256,0
3.836,7.172,0
3.837,13.581,0
3.838,14.313,0
3.839,2.777,0
3.84,24.384,0
3.841,15.595,0
3.842,13.031,0
3.843,10.651,0
3.844,8.454,0
3.845,6.439,0
3.846,8.271,0
3.847,9.918,0
3.848,2.411,0
3.849,6.439,0
3.85,2.96,0
3.851,1.862,0
3.852,-1.068,0
3.853,1.679,0
3.854,0.946,0
3.855,4.792,0
3.856,5.341,0
3.857,8.454,0
3.858,9.003,0
3.859,6.623,0
3.86,9.735,0
3.861,11.75,0
3.862,7.538,0
3.863,12.665,0
3.864,5.158,0
3.865,2.228,0
3.866,4.975,0
3.867,-0.702,0
3.868,6.256,0
3.869,5.341,0
3.87,-2.167,0
3.871,-1.251,0
3.872,3.327,0
3.873,7.355,0
3.874,8.087,0
3.875,3.51,0
3.876,3.327,0
3.877,3.876,0
3.878,12.299,0
3.879,8.82,0
3.88,19.074,0
3.881,-1.434,0
3.882,-10.223,0
3.883,-2.35,0
3.884,-9.491,0
3.885,-16.083,0
3.886,-10.04,0
3.887,-8.209,0
3.888,-3.265,0
3.889,-4.73,0
3.89,-6.012,0
3.891,-9.491,0
3.892,-10.589,0
3.893,-5.646,0
3.894,-4.73,0
3.895,-0.702,0
3.896,-2.899,0
3.897,-4.73,0
3.898,-0.335,0
3.899,-7.66,0
3.9,-10.589,0
3.901,-7.843,0
3.902,-2.167,0
3.903,-4.364,0
3.904,-2.533,0
3.905,-0.702,0
3.906,-4.547,0
3.907,-4.181,0
3.908,-3.814,0
3.909,0.763,0
3.91,-1.068,0
3.911,-6.195,0
3.912,-4.364,0
3.913,-2.533,0
3.914,-6.378,0
3.915,-3.998,0
3.916,-4.364,0
3.917,-5.462,0
3.918,-9.674,0
3.919,-8.026,0
3.92,-11.322,0
3.921,-8.209,0
3.922,-8.575,0
3.923,-2.899,0
3.924,9.552,0
3.925,11.383,0
3.926,6.439,0
3.927,10.651,0
3.928,6.256,0
3.929,10.285,0
3.93,9.186,0
3.931,24.018,0
3.932,17.975,0
3.933,1.496,0
3.934,-9.491,0
3.935,-7.477,0
3.936,-9.308,0
3.937,-7.66,0
3.938,-9.125,0
3.939,-7.843,0
3.94,-4.364,0
3.941,-5.462,0
3.942,-4.547,0
3.943,5.707,0
3.944,9.735,0
3.945,6.256,0
3.946,2.96,0
3.947,0.031,0
3.948,-4.547,0
3.949,-6.927,0
3.95,-9.125,0
3.951,-8.575,0
3.952,-11.688,0
3.953,-12.237,0
3.954,-14.618,0
3.955,-8.575,0
3.956,-1.068,0
3.957,-3.998,0
3.958,-1.251,0
3.959,-0.519,0
3.96,0.214,0
3.961,9.186,0
3.962,10.285,0
3.963,2.411,0
3.964,-0.519,0
3.965,-3.265,0
3.966,-5.646,0
3.967,-4.913,0
3.968,-5.462,0
3.969,-4.913,0
3.97,-5.462,0
3.971,-3.082,0
3.972,-1.8,0
3.973,3.693,0
3.974,5.89,0
3.975,6.439,0
3.976,5.89,0
3.977,7.538,0
3.978,6.256,0
3.979,0.763,0
3.98,12.299,0
3.981,0.763,0
3.982,8.271,0
3.983,-3.998,0
3.984,-15.533,0
3.985,-5.096,0
3.986,7.172,0
3.987,5.524,0
3.988,6.989,0
3.989,0.214,0
3.99,6.256,0
3.991,7.355,0
3.992,12.299,0
3.993,20.722,0
3.994,19.623,0
3.995,14.679,0
3.996,15.595,0
3.997,11.566,0
3.998,13.764,0
3.999,17.06,0
4,17.609,0
4.001,14.862,0
4.002,9.369,0
4.003,13.214,0
4.004,23.468,0
4.005,22.003,0
4.006,23.285,0
4.007,22.187,0
4.008,21.088,0
4.009,22.003,0
4.01,21.088,0
4.011,26.764,0
4.012,27.497,0
4.013,30.792,0
4.014,27.68,0
4.015,27.13,0
4.016,28.412,0
4.017,22.37,0
4.018,28.046,0
4.019,28.778,0
4.02,30.609,0
4.021,40.131,0
4.022,41.413,0
4.023,49.835,0
4.024,62.287,0
4.025,67.23,0
4.026,74.738,0
4.027,87.006,0
4.028,102.02,0
4.029,102.94,0
4.03,100.92,0
4.031,95.429,0
4.032,100.37,0
4.033,98.908,0
4.034,89.386,0
4.035,70.893,0
4.036,41.413,0
4.037,21.82,0
4.038,4.059,0
4.039,-25.238,0
4.04,-44.83,0
4.041,-62.591,0
4.042,-85.113,0
4.043,-93.902,0
4.044,-107.27,0
4.045,-119.35,0
4.046,-130.34,0
4.047,-132.35,0
4.048,-130.52,0
4.049,-138.76,0
4.05,-140.23,0
4.051,-141.51,0
4.052,-135.47,0
4.053,-129.79,0
4.054,-120.64,0
4.055,-117.16,0
4.056,-102.33,0
4.057,-92.254,0
4.058,-86.761,0
4.059,-78.521,0
4.06,-64.972,0
4.061,-70.465,0
4.062,-65.521,0
4.063,-64.056,0
4.064,-57.281,0
4.065,-51.239,0
4.066,-45.563,0
4.067,-44.647,0
4.068,-40.069,0
4.069,-34.393,0
4.07,-32.196,0
4.071,-27.618,0
4.072,-20.66,0
4.073,-6.744,0
4.074,-0.702,0
4.075,4.792,0
4.076,13.031,0
4.077,23.468,0
4.078,22.187,0
4.079,35.736,0
4.08,39.948,0
4.081,34.455,0
4.082,32.807,0
4.083,37.201,0
4.084,41.229,0
4.085,44.708,0
4.086,41.413,0
4.087,54.596,0
4.088,52.765,0
4.089,47.821,0
4.09,52.216,0
4.091,53.498,0
4.092,52.399,0
4.093,53.498,0
4.094,60.456,0
4.095,52.033,0
4.096,50.934,0
4.097,48.004,0
4.098,47.089,0
4.099,43.061,0
4.1,43.793,0
4.101,41.962,0
4.102,38.849,0
4.103,36.103,0
4.104,33.722,0
4.105,36.835,0
4.106,43.061,0
4.107,42.145,0
4.108,41.413,0
4.109,42.145,0
4.11,40.314,0
4.111,39.765,0
4.112,35.919,0
4.113,28.412,0
4.114,29.511,0
4.115,28.595,0
4.116,27.68,0
4.117,25.299,0
4.118,23.102,0
4.119,14.13,0
4.12,5.707,0
4.121,6.806,0
4.122,13.764,0
4.123,14.679,0
4.124,7.172,0
4.125,6.256,0
4.126,9.003,0
4.127,9.735,0
4.128,2.777,0
4.129,1.862,0
4.13,1.129,0
4.131,-3.265,0
4.132,-7.11,0
4.133,0.397,0
4.134,-12.787,0
4.135,-3.631,0
4.136,-5.279,0
4.137,-21.759,0
4.138,-19.562,0
4.139,-13.519,0
4.14,-11.688,0
4.141,-16.632,0
4.142,-18.097,0
4.143,-11.322,0
4.144,-14.801,0
4.145,-18.097,0
4.146,-17.181,0
4.147,-12.604,0
4.148,-18.28,0
4.149,-19.012,0
4.15,-17.181,0
4.151,-15.35,0
4.152,-18.097,0
4.153,-20.477,0
4.154,-15.35,0
4.155,-7.843,0
4.156,-8.758,0
4.157,-13.336,0
4.158,-12.604,0
4.159,-16.449,0
4.16,-16.998,0
4.161,-21.393,0
4.162,-24.139,0
4.163,-30.731,0
4.164,-31.646,0
4.165,-30.914,0
4.166,-22.491,0
4.167,-28.167,0
4.168,-27.252,0
4.169,-29.999,0
4.17,-32.379,0
4.171,-28.534,0
4.172,-23.956,0
4.173,-18.28,0
4.174,-17.547,0
4.175,-15.716,0
4.176,-13.885,0
4.177,-12.237,0
4.178,-8.941,0
4.179,-4.73,0
4.18,-9.857,0
4.181,-8.026,0
4.182,-5.462,0
4.183,0.214,0
4.184,11.75,0
4.185,10.102,0
4.186,20.539,0
4.187,19.257,0
4.188,15.778,0
4.189,12.482,0
4.19,27.68,0
4.191,34.271,0
4.192,36.286,0
4.193,41.779,0
4.194,46.723,0
4.195,48.188,0
4.196,52.216,0
4.197,51.117,0
4.198,43.244,0
4.199,40.314,0
4.2,41.229,0
4.201,33.722,0
4.202,28.778,0
4.203,24.201,0
4.204,16.693,0
4.205,13.764,0
4.206,11.017,0
4.207,11.75,0
4.208,4.792,0
4.209,-3.631,0
4.21,-4.73,0
4.211,-3.814,0
4.212,-8.392,0
4.213,-17.547,0
4.214,-21.026,0
4.215,-26.703,0
4.216,-35.858,0
4.217,-32.379,0
4.218,-40.252,0
4.219,-49.408,0
4.22,-50.506,0
4.221,-51.605,0
4.222,-50.689,0
4.223,-46.112,0
4.224,-45.379,0
4.225,-44.647,0
4.226,-41.351,0
4.227,-38.238,0
4.228,-40.985,0
4.229,-40.619,0
4.23,-37.506,0
4.231,-34.759,0
4.232,-37.323,0
4.233,-31.097,0
4.234,-32.928,0
4.235,-28.351,0
4.236,-18.097,0
4.237,-1.617,0
4.238,-3.814,0
4.239,-5.829,0
4.24,-3.998,0
4.241,4.242,0
4.242,5.707,0
4.243,6.989,0
4.244,5.89,0
4.245,9.186,0
4.246,6.256,0
4.247,10.834,0
4.248,11.566,0
4.249,6.256,0
4.25,10.834,0
4.251,9.003,0
4.252,8.454,0
4.253,8.82,0
4.254,9.186,0
4.255,11.2,0
4.256,15.412,0
4.257,12.665,0
4.258,18.158,0
4.259,18.891,0
4.26,22.187,0
4.261,21.637,0
4.262,24.384,0
4.263,27.68,0
4.264,29.877,0
4.265,24.384,0
4.266,20.539,0
4.267,15.961,0
4.268,19.074,0
4.269,22.919,0
4.27,20.539,0
4.271,25.666,0
4.272,22.37,0
4.273,22.919,0
4.274,28.046,0
4.275,29.877,0
4.276,35.553,0
4.277,33.356,0
4.278,28.778,0
4.279,25.666,0
4.28,17.243,0
4.281,13.764,0
4.282,5.89,0
4.283,4.975,0
4.284,5.524,0
4.285,4.608,0
4.286,8.637,0
4.287,17.06,0
4.288,6.806,0
4.289,-2.716,0
4.29,-3.814,0
4.291,-4.913,0
4.292,-5.829,0
4.293,-3.082,0
4.294,-10.589,0
4.295,-9.674,0
4.296,-6.927,0
4.297,-14.435,0
4.298,-13.519,0
4.299,-18.097,0
4.3,-18.829,0
4.301,-18.097,0
4.302,-16.266,0
4.303,-14.435,0
4.304,-11.688,0
4.305,-12.054,0
4.306,-7.843,0
4.307,-1.617,0
4.308,0.763,0
4.309,0.031,0
4.31,-1.8,0
4.311,3.876,0
4.312,9.186,0
4.313,16.693,0
4.314,13.764,0
4.315,9.186,0
4.316,1.679,0
4.317,-3.265,0
4.318,3.144,0
4.319,7.172,0
4.32,3.327,0
4.321,6.623,0
4.322,14.862,0
4.323,18.158,0
4.324,11.2,0
4.325,23.285,0
4.326,18.341,0
4.327,16.876,0
4.328,15.595,0
4.329,19.074,0
4.33,15.778,0
4.331,16.693,0
4.332,17.609,0
4.333,21.637,0
4.334,16.327,0
4.335,22.37,0
4.336,14.862,0
4.337,28.046,0
4.338,11.566,0
4.339,13.764,0
4.34,15.778,0
4.341,-8.026,0
4.342,-4.913,0
4.343,-13.702,0
4.344,-32.379,0
4.345,-39.52,0
4.346,-50.506,0
4.347,-68.634,0
4.348,-75.775,0
4.349,-82.367,0
4.35,-80.353,0
4.351,-74.859,0
4.352,-69.916,0
4.353,-47.394,0
4.354,-37.872,0
4.355,-46.661,0
4.356,-70.831,0
4.357,-93.353,0
4.358,-108.19,0
4.359,-143.16,0
4.36,-157.44,0
4.361,-153.23,0
4.362,-149.38,0
4.363,-145.9,0
4.364,-155.43,0
4.365,-152.5,0
4.366,-117.52,0
4.367,-45.929,0
4.368,67.047,0
4.369,112.09,0
4.37,152.92,0
4.371,165.38,0
4.372,176.54,0
4.373,166.29,0
4.374,138.28,0
4.375,95.978,0
4.376,88.288,0
4.377,67.414,0
4.378,73.639,0
4.379,79.315,0
4.38,94.879,0
4.381,99.64,0
4.382,103.85,0
4.383,107.7,0
4.384,104.22,0
4.385,113.74,0
4.386,113.92,0
4.387,122.71,0
4.388,130.59,0
4.389,113.74,0
4.39,89.386,0
4.391,66.864,0
4.392,58.075,0
4.393,39.398,0
4.394,56.244,0
4.395,45.258,0
4.396,31.159,0
4.397,18.341,0
4.398,6.806,0
4.399,-3.631,0
4.4,-15.899,0
4.401,-24.139,0
4.402,-28.534,0
4.403,-38.055,0
4.404,-41.534,0
4.405,-47.21,0
4.406,-50.14,0
4.407,-39.886,0
4.408,-52.154,0
4.409,-60.394,0
4.41,-56,0
4.411,-54.718,0
4.412,-55.816,0
4.413,-61.493,0
4.414,-66.437,0
4.415,-72.845,0
4.416,-75.226,0
4.417,-71.38,0
4.418,-69.549,0
4.419,-60.028,0
4.42,-53.253,0
4.421,-49.774,0
4.422,-44.098,0
4.423,-39.154,0
4.424,-34.576,0
4.425,-23.773,0
4.426,-13.336,0
4.427,-3.814,0
4.428,-17.364,0
4.429,-15.533,0
4.43,-7.293,0
4.431,-5.829,0
4.432,-9.857,0
4.433,8.637,0
4.434,6.073,0
4.435,-1.068,0
4.436,5.524,0
4.437,6.989,0
4.438,9.003,0
4.439,18.158,0
4.44,13.214,0
4.441,29.694,0
4.442,31.891,0
4.443,29.877,0
4.444,17.06,0
4.445,8.82,0
4.446,13.214,0
4.447,11.933,0
4.448,5.89,0
4.449,4.792,0
4.45,5.707,0
4.451,4.792,0
4.452,-2.716,0
4.453,2.228,0
4.454,3.144,0
4.455,7.172,0
4.456,11.017,0
4.457,10.468,0
4.458,12.299,0
4.459,12.848,0
4.46,12.482,0
4.461,13.764,0
4.462,11.75,0
4.463,12.116,0
4.464,9.552,0
4.465,6.256,0
4.466,3.144,0
4.467,1.129,0
4.468,2.96,0
4.469,-1.8,0
4.47,1.313,0
4.471,2.96,0
4.472,10.468,0
4.473,11.566,0
4.474,10.651,0
4.475,11.566,0
4.476,15.595,0
4.477,13.397,0
4.478,12.848,0
4.479,13.397,0
4.48,8.271,0
4.481,0.763,0
4.482,1.679,0
4.483,-1.068,0
4.484,-5.096,0
4.485,-7.293,0
4.486,-2.716,0
4.487,6.806,0
4.488,8.454,0
4.489,15.229,0
4.49,21.271,0
4.491,11.017,0
4.492,17.792,0
4.493,23.834,0
4.494,13.581,0
4.495,9.552,0
4.496,1.129,0
4.497,-4.547,0
4.498,-5.462,0
4.499,-2.716,0
4.5,-5.096,0
4.501,-12.054,0
4.502,-16.632,0
4.503,-17.364,0
4.504,-15.167,0
4.505,-10.589,0
4.506,-4.913,0
4.507,3.51,0
4.508,-2.167,0
4.509,-7.11,0
4.51,1.313,0
4.511,-4.364,0
4.512,-5.279,0
4.513,-4.364,0
4.514,-6.744,0
4.515,-7.477,0
4.516,-12.054,0
4.517,-11.505,0
4.518,-10.956,0
4.519,-12.237,0
4.52,-8.026,0
4.521,-8.575,0
4.522,-1.068,0
4.523,-2.167,0
4.524,-1.251,0
4.525,1.496,0
4.526,7.172,0
4.527,7.904,0
4.528,4.608,0
4.529,5.158,0
4.53,4.608,0
4.531,0.031,0
4.532,-0.519,0
4.533,-4.364,0
4.534,-7.66,0
4.535,-8.026,0
4.536,-7.66,0
4.537,-5.096,0
4.538,-8.392,0
4.539,-7.66,0
4.54,-10.406,0
4.541,-4.73,0
4.542,2.777,0
4.543,17.975,0
4.544,20.172,0
4.545,34.271,0
4.546,10.468,0
4.547,7.355,0
4.548,-7.477,0
4.549,-10.04,0
4.55,-12.42,0
4.551,-5.829,0
4.552,-11.871,0
4.553,-13.702,0
4.554,-8.758,0
4.555,-7.293,0
4.556,-6.012,0
4.557,-2.533,0
4.558,-3.631,0
4.559,1.313,0
4.56,7.721,0
4.561,10.102,0
4.562,7.904,0
4.563,0.397,0
4.564,-2.533,0
4.565,-1.617,0
4.566,-9.125,0
4.567,-6.195,0
4.568,-7.11,0
4.569,-7.843,0
4.57,-8.575,0
4.571,-5.279,0
4.572,-8.392,0
4.573,-1.068,0
4.574,1.862,0
4.575,4.608,0
4.576,12.116,0
4.577,13.031,0
4.578,17.609,0
4.579,18.341,0
4.58,16.144,0
4.581,5.89,0
4.582,-4.547,0
4.583,-5.829,0
4.584,-4.73,0
4.585,-1.434,0
4.586,-4.364,0
4.587,-5.279,0
4.588,-1.251,0
4.589,0.946,0
4.59,0.397,0
4.591,4.975,0
4.592,14.496,0
4.593,21.271,0
4.594,15.229,0
4.595,23.102,0
4.596,11.933,0
4.597,-1.617,0
4.598,7.538,0
4.599,-7.477,0
4.6,-5.462,0
4.601,7.355,0
4.602,-4.181,0
4.603,-5.646,0
4.604,-6.927,0
4.605,-0.885,0
4.606,-1.983,0
4.607,-1.068,0
4.608,1.679,0
4.609,5.707,0
4.61,12.665,0
4.611,9.918,0
4.612,2.411,0
4.613,-0.519,0
4.614,-5.096,0
4.615,-9.125,0
4.616,-12.97,0
4.617,-2.716,0
4.618,-4.181,0
4.619,-5.462,0
4.62,-8.941,0
4.621,-7.843,0
4.622,-0.885,0
4.623,-3.631,0
4.624,0.397,0
4.625,10.468,0
4.626,6.439,0
4.627,2.96,0
4.628,4.059,0
4.629,4.975,0
4.63,0.397,0
4.631,-3.631,0
4.632,-8.941,0
4.633,-8.392,0
4.634,-8.941,0
4.635,-11.688,0
4.636,-9.308,0
4.637,-12.42,0
4.638,-11.322,0
4.639,-8.758,0
4.64,-5.462,0
4.641,0.397,0
4.642,-0.702,0
4.643,4.975,0
4.644,15.778,0
4.645,5.341,0
4.646,6.623,0
4.647,-1.8,0
4.648,-14.251,0
4.649,-12.604,0
4.65,-16.998,0
4.651,-18.28,0
4.652,-17.181,0
4.653,-18.28,0
4.654,-11.322,0
4.655,-4.913,0
4.656,-4.181,0
4.657,1.129,0
4.658,-2.167,0
4.659,0.946,0
4.66,7.172,0
4.661,6.439,0
4.662,10.285,0
4.663,2.777,0
4.664,-0.152,0
4.665,-1.068,0
4.666,-1.8,0
4.667,-7.11,0
4.668,-5.279,0
4.669,4.242,0
4.67,2.96,0
4.671,-5.462,0
4.672,0.214,0
4.673,1.129,0
4.674,5.707,0
4.675,11.383,0
4.676,13.581,0
4.677,15.412,0
4.678,13.581,0
4.679,6.256,0
4.68,7.172,0
4.681,2.594,0
4.682,0.214,0
4.683,0.946,0
4.684,-9.308,0
4.685,-4.913,0
4.686,-3.631,0
4.687,-2.533,0
4.688,0.763,0
4.689,5.707,0
4.69,8.454,0
4.691,10.834,0
4.692,15.045,0
4.693,17.243,0
4.694,27.497,0
4.695,23.102,0
4.696,38.117,0
4.697,36.103,0
4.698,12.299,0
4.699,2.777,0
4.7,-0.152,0
4.701,-8.026,0
4.702,-5.646,0
4.703,-7.843,0
4.704,-5.829,0
4.705,-0.335,0
4.706,4.608,0
4.707,6.073,0
4.708,4.792,0
4.709,10.834,0
4.71,11.933,0
4.711,11.017,0
4.712,10.102,0
4.713,6.073,0
4.714,-0.885,0
4.715,-1.8,0
4.716,-2.533,0
4.717,-3.265,0
4.718,-10.772,0
4.719,-9.857,0
4.72,-3.448,0
4.721,2.228,0
4.722,1.496,0
4.723,3.327,0
4.724,10.285,0
4.725,11.2,0
4.726,8.82,0
4.727,8.087,0
4.728,6.256,0
4.729,8.087,0
4.73,6.439,0
4.731,6.806,0
4.732,0.763,0
4.733,-8.392,0
4.734,-11.871,0
4.735,-10.772,0
4.736,-9.857,0
4.737,-8.941,0
4.738,-8.209,0
4.739,1.862,0
4.74,5.89,0
4.741,2.411,0
4.742,5.707,0
4.743,10.651,0
4.744,11.566,0
4.745,16.144,0
4.746,8.637,0
4.747,23.834,0
4.748,12.848,0
4.749,-5.279,0
4.75,-7.66,0
4.751,-5.462,0
4.752,-11.505,0
4.753,-13.336,0
4.754,-8.392,0
4.755,-3.998,0
4.756,-2.716,0
4.757,3.327,0
4.758,11.2,0
4.759,14.13,0
4.76,7.721,0
4.761,11.75,0
4.762,17.06,0
4.763,20.355,0
4.764,19.806,0
4.765,17.06,0
4.766,13.764,0
4.767,6.806,0
4.768,3.876,0
4.769,1.129,0
4.77,-2.899,0
4.771,-2.167,0
4.772,5.341,0
4.773,8.271,0
4.774,11.017,0
4.775,15.045,0
4.776,12.848,0
4.777,20.355,0
4.778,17.426,0
4.779,22.003,0
4.78,9.552,0
4.781,0.397,0
4.782,-7.843,0
4.783,-15.35,0
4.784,-14.068,0
4.785,-12.97,0
4.786,-18.646,0
4.787,-17.73,0
4.788,-14.984,0
4.789,-15.716,0
4.79,-14.984,0
4.791,-10.406,0
4.792,-9.857,0
4.793,-10.406,0
4.794,-8.392,0
4.795,-13.885,0
4.796,-8.575,0
4.797,-5.279,0
4.798,2.96,0
4.799,-9.491,0
4.8,-14.435,0
4.801,-24.872,0
4.802,-31.646,0
4.803,-25.604,0
4.804,-26.703,0
4.805,-29.632,0
4.806,-34.21,0
4.807,-26.703,0
4.808,-23.773,0
4.809,-19.195,0
4.81,-10.04,0
4.811,-1.617,0
4.812,1.679,0
4.813,-3.265,0
4.814,-7.843,0
4.815,-15.35,0
4.816,-14.435,0
4.817,-13.519,0
4.818,-24.322,0
4.819,-19.928,0
4.82,-26.703,0
4.821,-20.66,0
4.822,-10.406,0
4.823,-14.435,0
4.824,-6.012,0
4.825,-2.716,0
4.826,12.482,0
4.827,19.074,0
4.828,17.06,0
4.829,15.229,0
4.83,13.581,0
4.831,9.186,0
4.832,-3.082,0
4.833,-8.026,0
4.834,-9.491,0
4.835,-2.716,0
4.836,5.707,0
4.837,0.031,0
4.838,2.96,0
4.839,5.707,0
4.84,6.439,0
4.841,1.129,0
4.842,-3.448,0
4.843,0.946,0
4.844,7.172,0
4.845,8.454,0
4.846,7.721,0
4.847,13.031,0
4.848,9.735,0
4.849,10.285,0
4.85,1.862,0
4.851,-11.688,0
4.852,-17.181,0
4.853,-18.829,0
4.854,-14.435,0
4.855,-10.406,0
4.856,-1.983,0
4.857,1.313,0
4.858,0.397,0
4.859,1.313,0
4.86,3.693,0
4.861,9.003,0
4.862,7.172,0
4.863,11.566,0
4.864,3.144,0
4.865,2.045,0
4.866,-3.631,0
4.867,-4.547,0
4.868,-5.462,0
4.869,-4.73,0
4.87,-8.575,0
4.871,-5.279,0
4.872,-0.885,0
4.873,7.538,0
4.874,8.637,0
4.875,14.313,0
4.876,19.257,0
4.877,14.679,0
4.878,15.412,0
4.879,10.102,0
4.88,8.271,0
4.881,3.876,0
4.882,1.129,0
4.883,2.411,0
4.884,-4.547,0
4.885,-7.477,0
4.886,-4.73,0
4.887,-7.11,0
4.888,-10.956,0
4.889,-7.66,0
4.89,-7.11,0
4.891,1.313,0
4.892,14.862,0
4.893,9.369,0
4.894,7.721,0
4.895,9.186,0
4.896,11.383,0
4.897,7.355,0
4.898,25.849,0
4.899,12.482,0
4.9,-4.364,0
4.901,11.017,0
4.902,0.946,0
4.903,-8.209,0
4.904,-9.857,0
4.905,-5.462,0
4.906,-1.434,0
4.907,4.608,0
4.908,1.313,0
4.909,2.228,0
4.91,16.144,0
4.911,10.102,0
4.912,15.595,0
4.913,10.651,0
4.914,6.256,0
4.915,-3.265,0
4.916,-9.308,0
4.917,-10.406,0
4.918,-7.477,0
4.919,-8.392,0
4.92,-9.125,0
4.921,-6.927,0
4.922,-2.35,0
4.923,4.608,0
4.924,5.524,0
4.925,6.256,0
4.926,8.454,0
4.927,3.876,0
4.928,8.271,0
4.929,7.721,0
4.93,6.439,0
4.931,6.073,0
4.932,1.496,0
4.933,-4.181,0
4.934,-4.913,0
4.935,-3.082,0
4.936,-7.477,0
4.937,-12.604,0
4.938,-8.026,0
4.939,-3.631,0
4.94,4.792,0
4.941,10.834,0
4.942,9.735,0
4.943,10.651,0
4.944,7.904,0
4.945,3.876,0
4.946,10.834,0
4.947,10.651,0
4.948,9.735,0
4.949,2.228,0
4.95,3.144,0
4.951,0.397,0
4.952,-5.279,0
4.953,-6.012,0
4.954,-13.519,0
4.955,-10.589,0
4.956,-2.167,0
4.957,3.51,0
4.958,12.665,0
4.959,11.566,0
4.96,14.862,0
4.961,17.792,0
4.962,18.708,0
4.963,19.44,0
4.964,21.637,0
4.965,18.341,0
4.966,13.947,0
4.967,17.792,0
4.968,15.412,0
4.969,8.454,0
4.97,9.369,0
4.971,6.623,0
4.972,9.003,0
4.973,12.848,0
4.974,2.594,0
4.975,-1.8,0
4.976,-8.575,0
4.977,-16.998,0
4.978,-22.674,0
4.979,-29.632,0
4.98,-39.886,0
4.981,-46.661,0
4.982,-50.14,0
4.983,-53.436,0
4.984,-38.238,0
4.985,-31.646,0
4.986,-41.717,0
4.987,-58.197,0
4.988,-51.605,0
4.989,-81.817,0
4.99,-138.21,0
4.991,-176.67,0
4.992,-183.62,0
4.993,-164.76,0
4.994,-147.55,0
4.995,-163.12,0
4.996,-129.79,0
4.997,-90.79,0
4.998,-1.8,0
4.999,76.935,0
5,155.85,0
5.001,207.12,0
5.002,197.78,0
5.003,172.52,0
5.004,134.06,0
5.005,99.091,0
5.006,80.231,0
5.007,63.019,0
5.008,57.892,0
5.009,53.131,0
5.01,74.738,0
5.011,86.457,0
5.012,97.077,0
5.013,93.964,0
5.014,102.75,0
5.015,116.12,0
5.016,113.74,0
5.017,102.75,0
5.018,112.82,0
5.019,114.66,0
5.02,89.752,0
5.021,57.526,0
5.022,44.708,0
5.023,32.99,0
5.024,36.469,0
5.025,39.582,0
5.026,48.371,0
5.027,40.497,0
5.028,23.651,0
5.029,12.665,0
5.03,2.594,0
5.031,-10.223,0
5.032,-25.238,0
5.033,-39.337,0
5.034,-52.154,0
5.035,-60.394,0
5.036,-64.789,0
5.037,-68.817,0
5.038,-62.774,0
5.039,-66.07,0
5.04,-63.141,0
5.041,-58.563,0
5.042,-59.295,0
5.043,-52.337,0
5.044,-58.746,0
5.045,-61.126,0
5.046,-68.084,0
5.047,-72.662,0
5.048,-66.986,0
5.049,-70.648,0
5.05,-66.803,0
5.051,-56.549,0
5.052,-52.154,0
5.053,-48.126,0
5.054,-39.703,0
5.055,-31.83,0
5.056,-20.66,0
5.057,-22.125,0
5.058,-18.097,0
5.059,-6.927,0
5.06,-2.533,0
5.061,1.496,0
5.062,9.918,0
5.063,-0.335,0
5.064,-7.11,0
5.065,-13.153,0
5.066,-0.702,0
5.067,-8.941,0
5.068,-10.406,0
5.069,-3.631,0
5.07,-0.152,0
5.071,-3.448,0
5.072,-0.519,0
5.073,0.397,0
5.074,11.2,0
5.075,9.735,0
5.076,13.764,0
5.077,19.806,0
5.078,20.905,0
5.079,30.06,0
5.08,16.51,0
5.081,7.355,0
5.082,2.411,0
5.083,0.946,0
5.084,4.975,0
5.085,-1.068,0
5.086,-6.744,0
5.087,-13.702,0
5.088,-3.448,0
5.089,0.58,0
5.09,6.623,0
5.091,19.074,0
5.092,14.13,0
5.093,15.595,0
5.094,14.313,0
5.095,17.792,0
5.096,14.496,0
5.097,1.313,0
5.098,10.468,0
5.099,-4.547,0
5.1,-5.462,0
5.101,-7.477,0
5.102,9.003,0
5.103,6.806,0
5.104,16.876,0
5.105,22.37,0
5.106,17.426,0
5.107,9.918,0
5.108,13.947,0
5.109,10.468,0
5.11,7.172,0
5.111,10.102,0
5.112,9.186,0
5.113,9.918,0
5.114,18.341,0
5.115,17.243,0
5.116,2.045,0
5.117,-13.336,0
5.118,-15.35,0
5.119,-17.181,0
5.12,-18.829,0
5.121,-17.364,0
5.122,-16.083,0
5.123,-17.181,0
5.124,-4.73,0
5.125,10.285,0
5.126,12.299,0
5.127,17.792,0
5.128,16.144,0
5.129,5.707,0
5.13,-1.068,0
5.131,-2.167,0
5.132,-14.618,0
5.133,-26.153,0
5.134,-24.688,0
5.135,-20.66,0
5.136,-17.181,0
5.137,-20.477,0
5.138,-11.322,0
5.139,-7.843,0
5.14,-11.139,0
5.141,-6.195,0
5.142,-5.279,0
5.143,3.876,0
5.144,9.918,0
5.145,15.595,0
5.146,0.397,0
5.147,-10.589,0
5.148,-12.604,0
5.149,-10.772,0
5.15,-9.125,0
5.151,-17.181,0
5.152,-12.787,0
5.153,-3.265,0
5.154,-14.435,0
5.155,-6.927,0
5.156,10.834,0
5.157,8.454,0
5.158,1.862,0
5.159,7.904,0
5.16,2.411,0
5.161,10.651,0
5.162,9.186,0
5.163,-0.335,0
5.164,15.778,0
5.165,9.186,0
5.166,-8.941,0
5.167,-11.322,0
5.168,-13.519,0
5.169,-11.505,0
5.17,-6.012,0
5.171,5.524,0
5.172,13.031,0
5.173,14.313,0
5.174,22.736,0
5.175,23.834,0
5.176,26.764,0
5.177,37.018,0
5.178,35.736,0
5.179,29.694,0
5.18,26.398,0
5.181,15.229,0
5.182,4.792,0
5.183,6.073,0
5.184,4.975,0
5.185,1.679,0
5.186,-3.265,0
5.187,-4.181,0
5.188,3.327,0
5.189,16.51,0
5.19,11.017,0
5.191,19.257,0
5.192,29.694,0
5.193,39.215,0
5.194,35.736,0
5.195,34.638,0
5.196,27.68,0
5.197,13.764,0
5.198,3.693,0
5.199,-5.462,0
5.2,-7.11,0
5.201,-2.716,0
5.202,1.862,0
5.203,3.144,0
5.204,11.566,0
5.205,12.665,0
5.206,17.609,0
5.207,20.355,0
5.208,29.511,0
5.209,28.412,0
5.21,25.116,0
5.211,15.961,0
5.212,12.482,0
5.213,4.608,0
5.214,3.693,0
5.215,17.609,0
5.216,7.538,0
5.217,-8.941,0
5.218,-24.322,0
5.219,-18.28,0
5.22,-12.787,0
5.221,-11.139,0
5.222,-9.674,0
5.223,10.834,0
5.224,13.764,0
5.225,11.2,0
5.226,13.581,0
5.227,15.778,0
5.228,9.735,0
5.229,15.229,0
5.23,13.581,0
5.231,12.116,0
5.232,10.834,0
5.233,2.411,0
5.234,-0.885,0
5.235,-5.829,0
5.236,-3.082,0
5.237,6.073,0
5.238,2.594,0
5.239,3.693,0
5.24,2.777,0
5.241,7.355,0
5.242,3.327,0
5.243,8.637,0
5.244,9.186,0
5.245,6.073,0
5.246,2.228,0
5.247,-4.364,0
5.248,-3.448,0
5.249,-15.899,0
5.25,-32.379,0
5.251,-34.576,0
5.252,-32.562,0
5.253,-27.435,0
5.254,-29.266,0
5.255,-24.322,0
5.256,-16.815,0
5.257,-15.533,0
5.258,-1.983,0
5.259,-0.152,0
5.26,-8.392,0
5.261,-12.787,0
5.262,-14.068,0
5.263,-12.97,0
5.264,-16.266,0
5.265,-23.224,0
5.266,-31.646,0
5.267,-34.942,0
5.268,-41.9,0
5.269,-31.646,0
5.27,-22.125,0
5.271,-23.224,0
5.272,-19.928,0
5.273,-12.97,0
5.274,-4.547,0
5.275,3.327,0
5.276,6.256,0
5.277,7.172,0
5.278,4.792,0
5.279,6.989,0
5.28,5.158,0
5.281,-4.364,0
5.282,-13.885,0
5.283,-19.928,0
5.284,-21.026,0
5.285,-11.871,0
5.286,-0.702,0
5.287,15.778,0
5.288,0.397,0
5.289,-1.617,0
5.29,7.538,0
5.291,12.482,0
5.292,16.876,0
5.293,18.158,0
5.294,19.257,0
5.295,13.581,0
5.296,16.51,0
5.297,11.933,0
5.298,14.313,0
5.299,4.242,0
5.3,2.96,0
5.301,-3.082,0
5.302,-6.378,0
5.303,-5.462,0
5.304,-3.265,0
5.305,10.651,0
5.306,12.665,0
5.307,14.496,0
5.308,26.032,0
5.309,24.567,0
5.31,23.285,0
5.311,19.806,0
5.312,25.482,0
5.313,20.539,0
5.314,26.947,0
5.315,17.792,0
5.316,6.623,0
5.317,-6.927,0
5.318,-12.42,0
5.319,-17.364,0
5.32,-18.829,0
5.321,-14.801,0
5.322,-11.322,0
5.323,-8.026,0
5.324,1.129,0
5.325,0.031,0
5.326,10.285,0
5.327,17.06,0
5.328,18.158,0
5.329,17.06,0
5.33,3.876,0
5.331,-5.279,0
5.332,-13.519,0
5.333,-9.125,0
5.334,-13.153,0
5.335,-14.251,0
5.336,-13.153,0
5.337,-14.068,0
5.338,-7.66,0
5.339,-6.927,0
5.34,0.031,0
5.341,4.608,0
5.342,-1.068,0
5.343,9.003,0
5.344,10.285,0
5.345,11.383,0
5.346,-1.068,0
5.347,-6.012,0
5.348,-7.477,0
5.349,-11.505,0
5.35,6.989,0
5.351,-0.885,0
5.352,-12.97,0
5.353,-19.562,0
5.354,-17.547,0
5.355,-7.66,0
5.356,5.158,0
5.357,20.172,0
5.358,14.13,0
5.359,-6.012,0
5.36,12.665,0
5.361,10.285,0
5.362,8.087,0
5.363,2.045,0
5.364,-3.448,0
5.365,-11.688,0
5.366,-10.223,0
5.367,-16.998,0
5.368,-18.097,0
5.369,-14.801,0
5.37,-13.885,0
5.371,-18.463,0
5.372,-17.73,0
5.373,-15.533,0
5.374,-8.026,0
5.375,-1.068,0
5.376,5.341,0
5.377,4.608,0
5.378,2.411,0
5.379,12.665,0
5.38,14.13,0
5.381,10.102,0
5.382,6.623,0
5.383,3.327,0
5.384,-1.617,0
5.385,-6.195,0
5.386,-8.575,0
5.387,-4.73,0
5.388,-1.434,0
5.389,2.96,0
5.39,5.707,0
5.391,6.073,0
5.392,8.271,0
5.393,14.496,0
5.394,17.243,0
5.395,17.975,0
5.396,6.439,0
5.397,8.087,0
5.398,6.623,0
5.399,-0.152,0
5.4,3.327,0
5.401,2.228,0
5.402,-0.702,0
5.403,3.876,0
5.404,11.383,0
5.405,12.299,0
5.406,17.243,0
5.407,21.82,0
5.408,34.271,0
5.409,32.44,0
5.41,40.68,0
5.411,21.088,0
5.412,18.524,0
5.413,25.666,0
5.414,23.468,0
5.415,13.397,0
5.416,0.58,0
5.417,2.228,0
5.418,-2.167,0
5.419,-0.885,0
5.42,2.594,0
5.421,-5.279,0
5.422,-6.195,0
5.423,-5.279,0
5.424,-7.66,0
5.425,-8.392,0
5.426,-6.561,0
5.427,-3.448,0
5.428,1.679,0
5.429,7.904,0
5.43,-4.547,0
5.431,-24.688,0
5.432,-27.252,0
5.433,-39.337,0
5.434,-37.14,0
5.435,-35.125,0
5.436,-36.957,0
5.437,-25.421,0
5.438,-29.815,0
5.439,-25.787,0
5.44,-26.886,0
5.441,-19.012,0
5.442,-19.928,0
5.443,-13.519,0
5.444,-1.068,0
5.445,4.425,0
5.446,2.777,0
5.447,-7.66,0
5.448,-8.941,0
5.449,-10.04,0
5.45,-17.914,0
5.451,-18.829,0
5.452,-21.576,0
5.453,-15.899,0
5.454,-13.702,0
5.455,-9.125,0
5.456,-3.448,0
5.457,1.129,0
5.458,6.439,0
5.459,9.735,0
5.46,15.412,0
5.461,26.947,0
5.462,25.299,0
5.463,11.75,0
5.464,9.918,0
5.465,1.679,0
5.466,-2.716,0
5.467,-3.998,0
5.468,-2.899,0
5.469,-13.153,0
5.47,-6.378,0
5.471,-5.279,0
5.472,2.594,0
5.473,-0.335,0
5.474,8.087,0
5.475,18.341,0
5.476,22.37,0
5.477,18.891,0
5.478,24.567,0
5.479,19.623,0
5.48,13.214,0
5.481,10.834,0
5.482,11.566,0
5.483,4.059,0
5.484,-0.885,0
5.485,-7.293,0
5.486,-9.674,0
5.487,-8.941,0
5.488,-12.237,0
5.489,-2.716,0
5.49,6.806,0
5.491,20.355,0
5.492,25.849,0
5.493,44.159,0
5.494,27.313,0
5.495,20.722,0
5.496,18.708,0
5.497,5.89,0
5.498,10.834,0
5.499,0.397,0
5.5,-9.125,0
5.501,-3.082,0
5.502,-1.983,0
5.503,-1.068,0
5.504,-1.983,0
5.505,3.693,0
5.506,-0.152,0
5.507,-1.983,0
5.508,-1.068,0
5.509,8.454,0
5.51,28.961,0
5.511,20.172,0
5.512,33.539,0
5.513,26.398,0
5.514,11.017,0
5.515,0.946,0
5.516,-4.547,0
5.517,-6.195,0
5.518,-10.589,0
5.519,-14.618,0
5.52,-11.139,0
5.521,-14.435,0
5.522,-19.378,0
5.523,-14.801,0
5.524,-9.125,0
5.525,-9.857,0
5.526,-8.026,0
5.527,1.496,0
5.528,8.271,0
5.529,14.313,0
5.53,1.862,0
5.531,3.51,0
5.532,-0.885,0
5.533,-10.406,0
5.534,-6.927,0
5.535,-12.604,0
5.536,-13.519,0
5.537,-14.435,0
5.538,-12.054,0
5.539,-14.251,0
5.54,-8.026,0
5.541,1.129,0
5.542,4.608,0
5.543,5.707,0
5.544,-3.448,0
5.545,-2.35,0
5.546,-1.251,0
5.547,-10.406,0
5.548,-6.927,0
5.549,-12.604,0
5.55,-9.674,0
5.551,-18.097,0
5.552,-16.998,0
5.553,-5.829,0
5.554,-1.434,0
5.555,2.594,0
5.556,-5.829,0
5.557,-6.927,0
5.558,-3.998,0
5.559,12.116,0
5.56,7.538,0
5.561,16.693,0
5.562,3.144,0
5.563,19.623,0
5.564,4.242,0
5.565,-5.829,0
5.566,-11.322,0
5.567,-16.266,0
5.568,-17.73,0
5.569,-10.956,0
5.57,-14.435,0
5.571,-15.533,0
5.572,-0.335,0
5.573,6.256,0
5.574,0.214,0
5.575,2.045,0
5.576,6.989,0
5.577,8.454,0
5.578,7.172,0
5.579,-1.251,0
5.58,-2.35,0
5.581,-3.265,0
5.582,-2.35,0
5.583,-6.378,0
5.584,-13.336,0
5.585,-14.251,0
5.586,-11.871,0
5.587,-9.674,0
5.588,-6.378,0
5.589,-0.702,0
5.59,6.256,0
5.591,7.172,0
5.592,6.439,0
5.593,7.172,0
5.594,9.003,0
5.595,15.961,0
5.596,13.214,0
5.597,4.059,0
5.598,5.158,0
5.599,-2.716,0
5.6,-7.66,0
5.601,-6.744,0
5.602,0.763,0
5.603,-6.195,0
5.604,-1.617,0
5.605,0.763,0
5.606,1.496,0
5.607,6.073,0
5.608,9.186,0
5.609,17.609,0
5.61,26.764,0
5.611,45.258,0
5.612,58.625,0
5.613,56.244,0
5.614,49.652,0
5.615,35.553,0
5.616,15.412,0
5.617,17.975,0
5.618,10.834,0
5.619,8.637,0
5.62,-1.434,0
5.621,-10.589,0
5.622,-18.829,0
5.623,-23.224,0
5.624,-29.999,0
5.625,-28.9,0
5.626,-36.773,0
5.627,-39.703,0
5.628,-33.294,0
5.629,-37.323,0
5.63,-30.365,0
5.631,-18.28,0
5.632,-19.928,0
5.633,-27.435,0
5.634,-39.703,0
5.635,-61.31,0
5.636,-88.043,0
5.637,-112.94,0
5.638,-129.06,0
5.639,-126.13,0
5.64,-118.25,0
5.641,-130.34,0
5.642,-128.14,0
5.643,-110.02,0
5.644,-73.578,0
5.645,5.158,0
5.646,106.78,0
5.647,147.61,0
5.648,160.06,0
5.649,148.9,0
5.65,138.64,0
5.651,129.3,0
5.652,104.03,0
5.653,50.202,0
5.654,29.328,0
5.655,23.102,0
5.656,40.314,0
5.657,45.441,0
5.658,69.245,0
5.659,73.456,0
5.66,93.048,0
5.661,105.87,0
5.662,109.34,0
5.663,131.87,0
5.664,117.03,0
5.665,109.16,0
5.666,116.3,0
5.667,91.95,0
5.668,49.652,0
5.669,32.44,0
5.67,27.313,0
5.671,41.596,0
5.672,37.384,0
5.673,25.666,0
5.674,15.045,0
5.675,-1.068,0
5.676,-3.998,0
5.677,-17.364,0
5.678,-24.505,0
5.679,-22.308,0
5.68,-36.407,0
5.681,-52.887,0
5.682,-59.479,0
5.683,-65.521,0
5.684,-71.014,0
5.685,-75.958,0
5.686,-74.493,0
5.687,-70.465,0
5.688,-76.507,0
5.689,-61.676,0
5.69,-71.747,0
5.691,-80.902,0
5.692,-75.958,0
5.693,-74.493,0
5.694,-75.775,0
5.695,-72.296,0
5.696,-69,0
5.697,-69.916,0
5.698,-59.662,0
5.699,-58.38,0
5.7,-47.21,0
5.701,-45.746,0
5.702,-44.464,0
5.703,-40.985,0
5.704,-33.111,0
5.705,-26.153,0
5.706,-17.73,0
5.707,-18.829,0
5.708,-11.871,0
5.709,-5.462,0
5.71,-4.73,0
5.711,-2.533,0
5.712,1.862,0
5.713,5.158,0
5.714,14.679,0
5.715,7.904,0
5.716,6.806,0
5.717,17.06,0
5.718,13.031,0
5.719,-3.082,0
5.72,3.51,0
5.721,5.524,0
5.722,3.693,0
5.723,5.341,0
5.724,9.735,0
5.725,8.454,0
5.726,16.876,0
5.727,20.172,0
5.728,13.214,0
5.729,12.299,0
5.73,14.679,0
5.731,15.412,0
5.732,13.581,0
5.733,10.468,0
5.734,4.242,0
5.735,1.862,0
5.736,7.172,0
5.737,5.341,0
5.738,7.172,0
5.739,14.496,0
5.74,17.426,0
5.741,5.341,0
5.742,6.989,0
5.743,14.496,0
5.744,15.778,0
5.745,16.876,0
5.746,17.975,0
5.747,11.017,0
5.748,13.764,0
5.749,11.383,0
5.75,7.538,0
5.751,1.313,0
5.752,2.045,0
5.753,2.777,0
5.754,6.073,0
5.755,0.397,0
5.756,1.129,0
5.757,2.96,0
5.758,7.355,0
5.759,11.2,0
5.76,9.918,0
5.761,10.285,0
5.762,12.299,0
5.763,13.581,0
5.764,8.637,0
5.765,17.609,0
5.766,28.778,0
5.767,24.384,0
5.768,17.609,0
5.769,6.439,0
5.77,2.045,0
5.771,3.327,0
5.772,4.425,0
5.773,5.524,0
5.774,6.439,0
5.775,5.524,0
5.776,6.256,0
5.777,4.059,0
5.778,7.355,0
5.779,6.806,0
5.78,7.355,0
5.781,4.975,0
5.782,0.763,0
5.783,0.214,0
5.784,-2.167,0
5.785,2.045,0
5.786,-5.279,0
5.787,-2.35,0
5.788,-3.265,0
5.789,-2.533,0
5.79,5.89,0
5.791,4.792,0
5.792,-0.152,0
5.793,0.763,0
5.794,1.496,0
5.795,3.693,0
5.796,4.242,0
5.797,6.073,0
5.798,6.623,0
5.799,0.031,0
5.8,10.285,0
5.801,-4.73,0
5.802,-2.716,0
5.803,-4.547,0
5.804,0.397,0
5.805,1.862,0
5.806,3.144,0
5.807,-0.335,0
5.808,0.763,0
5.809,-0.152,0
5.81,4.425,0
5.811,5.158,0
5.812,4.425,0
5.813,6.256,0
5.814,5.524,0
5.815,11.2,0
5.816,13.397,0
5.817,5.89,0
5.818,12.848,0
5.819,11.933,0
5.82,9.552,0
5.821,2.594,0
5.822,-0.152,0
5.823,-4.181,0
5.824,-0.335,0
5.825,0.214,0
5.826,-1.617,0
5.827,-4.364,0
5.828,-7.66,0
5.829,-4.547,0
5.83,1.679,0
5.831,-6.744,0
5.832,-7.843,0
5.833,-10.772,0
5.834,-8.026,0
5.835,-8.758,0
5.836,-12.604,0
5.837,-13.153,0
5.838,-10.04,0
5.839,-6.195,0
5.84,1.313,0
5.841,-6.561,0
5.842,-3.631,0
5.843,-6.378,0
5.844,-8.758,0
5.845,-8.026,0
5.846,-7.477,0
5.847,2.045,0
5.848,6.073,0
5.849,-5.096,0
5.85,-6.561,0
5.851,-7.843,0
5.852,-8.941,0
5.853,-7.843,0
5.854,-2.899,0
5.855,-9.308,0
5.856,-13.336,0
5.857,-11.139,0
5.858,-9.308,0
5.859,-11.139,0
5.86,-7.293,0
5.861,-10.589,0
5.862,-12.787,0
5.863,-14.801,0
5.864,-11.322,0
5.865,-16.449,0
5.866,-19.562,0
5.867,-16.815,0
5.868,-11.139,0
5.869,-7.11,0
5.87,-17.181,0
5.871,-15.899,0
5.872,-7.477,0
5.873,-8.575,0
5.874,-15.533,0
5.875,-20.111,0
5.876,-20.843,0
5.877,-13.885,0
5.878,-11.139,0
5.879,-1.983,0
5.88,-0.885,0
5.881,0.214,0
5.882,1.129,0
5.883,-3.448,0
5.884,2.228,0
5.885,4.425,0
5.886,4.975,0
5.887,8.087,0
5.888,4.242,0
5.889,4.608,0
5.89,5.89,0
5.891,12.116,0
5.892,14.862,0
5.893,15.595,0
5.894,19.44,0
5.895,24.018,0
5.896,27.13,0
5.897,20.905,0
5.898,20.172,0
5.899,25.482,0
5.9,28.778,0
5.901,25.666,0
5.902,32.99,0
5.903,17.792,0
5.904,24.384,0
5.905,22.37,0
5.906,24.201,0
5.907,22.553,0
5.908,21.088,0
5.909,19.806,0
5.91,23.285,0
5.911,19.989,0
5.912,20.905,0
5.913,14.496,0
5.914,13.764,0
5.915,11.566,0
5.916,15.045,0
5.917,11.75,0
5.918,21.271,0
5.919,14.496,0
5.92,22.919,0
5.921,26.215,0
5.922,13.031,0
5.923,7.538,0
5.924,5.89,0
5.925,7.355,0
5.926,6.073,0
5.927,2.594,0
5.928,3.693,0
5.929,4.608,0
5.93,0.031,0
5.931,4.059,0
5.932,1.862,0
5.933,-5.646,0
5.934,-8.575,0
5.935,-7.66,0
5.936,-11.688,0
5.937,-6.378,0
5.938,-3.082,0
5.939,-4.913,0
5.94,-4.364,0
5.941,-7.66,0
5.942,-9.857,0
5.943,-7.11,0
5.944,-11.322,0
5.945,-8.575,0
5.946,-3.998,0
5.947,-5.829,0
5.948,-9.674,0
5.949,-10.956,0
5.95,-15.167,0
5.951,-11.322,0
5.952,-14.618,0
5.953,-14.984,0
5.954,-13.885,0
5.955,-14.251,0
5.956,-8.758,0
5.957,-3.448,0
5.958,-5.279,0
5.959,-7.11,0
5.96,-7.66,0
5.961,-4.364,0
5.962,-1.251,0
5.963,-0.152,0
5.964,-5.829,0
5.965,-3.448,0
5.966,-2.716,0
5.967,-5.462,0
5.968,0.763,0
5.969,13.214,0
5.97,4.059,0
5.971,2.411,0
5.972,9.918,0
5.973,-10.589,0
5.974,-7.66,0
5.975,0.214,0
5.976,2.594,0
5.977,4.792,0
5.978,-1.251,0
5.979,7.904,0
5.98,12.848,0
5.981,11.383,0
5.982,7.355,0
5.983,10.834,0
5.984,11.933,0
5.985,18.891,0
5.986,14.313,0
5.987,10.285,0
5.988,9.552,0
5.989,11.383,0
5.99,9.552,0
5.991,6.806,0
5.992,0.214,0
5.993,-8.209,0
5.994,4.242,0
5.995,9.186,0
5.996,16.693,0
5.997,4.425,0
5.998,-0.519,0
5.999,-8.026,0
6,-9.308,0
6.001,-0.885,0
6.002,-4.181,0
6.003,-11.139,0
6.004,-15.716,0
6.005,-18.097,0
6.006,-15.899,0
6.007,-17.73,0
6.008,-13.336,0
6.009,-12.787,0
6.01,-16.083,0
6.011,-16.449,0
6.012,-12.604,0
6.013,-15.899,0
6.014,-14.618,0
6.015,-14.251,0
6.016,-16.083,0
6.017,-17.181,0
6.018,-10.589,0
6.019,-12.604,0
6.02,-8.392,0
6.021,-2.716,0
6.022,-0.519,0
6.023,-8.026,0
6.024,-10.956,0
6.025,-13.702,0
6.026,-11.322,0
6.027,-6.012,0
6.028,-13.519,0
6.029,-4.364,0
6.03,-3.265,0
6.031,0.031,0
6.032,0.946,0
6.033,-9.308,0
6.034,-8.026,0
6.035,-6.927,0
6.036,-14.801,0
6.037,-11.871,0
6.038,-3.448,0
6.039,-2.35,0
6.04,-5.279,0
6.041,-2.533,0
6.042,3.144,0
6.043,8.454,0
6.044,5.158,0
6.045,3.327,0
6.046,11.75,0
6.047,3.327,0
6.048,2.228,0
6.049,5.158,0
6.05,2.411,0
6.051,4.792,0
6.052,-3.631,0
6.053,-2.533,0
6.054,4.425,0
6.055,3.51,0
6.056,-3.998,0
6.057,2.96,0
6.058,3.876,0
6.059,4.608,0
6.06,6.806,0
6.061,4.975,0
6.062,9.369,0
6.063,15.595,0
6.064,11.566,0
6.065,10.834,0
6.066,11.383,0
6.067,9.552,0
6.068,4.425,0
6.069,3.327,0
6.07,3.876,0
6.071,13.397,0
6.072,12.116,0
6.073,3.693,0
6.074,20.722,0
6.075,18.341,0
6.076,7.355,0
6.077,-2.716,0
6.078,2.777,0
6.079,1.129,0
6.08,-3.265,0
6.081,0.763,0
6.082,-2.716,0
6.083,-3.814,0
6.084,-4.73,0
6.085,-1.983,0
6.086,0.397,0
6.087,2.594,0
6.088,-1.983,0
6.089,-1.434,0
6.09,-5.279,0
6.091,-2.899,0
6.092,-0.702,0
6.093,3.144,0
6.094,6.439,0
6.095,4.242,0
6.096,1.496,0
6.097,0.397,0
6.098,-0.702,0
6.099,2.594,0
6.1,6.806,0
6.101,0.58,0
6.102,-0.152,0
6.103,-5.462,0
6.104,-2.167,0
6.105,-5.279,0
6.106,-2.533,0
6.107,-2.167,0
6.108,3.876,0
6.109,-0.152,0
6.11,0.58,0
6.111,-2.716,0
6.112,1.679,0
6.113,1.129,0
6.114,1.496,0
6.115,2.777,0
6.116,0.031,0
6.117,-1.068,0
6.118,2.228,0
6.119,6.073,0
6.12,-2.533,0
6.121,-5.829,0
6.122,1.129,0
6.123,-3.814,0
6.124,10.102,0
6.125,8.087,0
6.126,2.594,0
6.127,4.242,0
6.128,5.707,0
6.129,1.679,0
6.13,-1.8,0
6.131,-2.899,0
6.132,-3.814,0
6.133,-10.223,0
6.134,-7.843,0
6.135,-5.646,0
6.136,-7.477,0
6.137,0.763,0
6.138,1.862,0
6.139,-3.082,0
6.14,-0.335,0
6.141,7.172,0
6.142,4.242,0
6.143,3.327,0
6.144,9.003,0
6.145,5.158,0
6.146,4.608,0
6.147,2.777,0
6.148,5.524,0
6.149,5.89,0
6.15,1.679,0
6.151,0.031,0
6.152,-3.265,0
6.153,-2.899,0
6.154,-9.125,0
6.155,-2.716,0
6.156,-0.335,0
6.157,-2.533,0
6.158,3.693,0
6.159,-3.814,0
6.16,-0.885,0
6.161,1.862,0
6.162,4.242,0
6.163,4.975,0
6.164,6.806,0
6.165,4.975,0
6.166,6.623,0
6.167,1.129,0
6.168,-2.716,0
6.169,-0.885,0
6.17,2.228,0
6.171,1.129,0
6.172,3.876,0
6.173,9.369,0
6.174,8.637,0
6.175,10.468,0
6.176,12.299,0
6.177,20.722,0
6.178,17.243,0
6.179,4.792,0
6.18,3.144,0
6.181,7.538,0
6.182,0.763,0
6.183,1.862,0
6.184,0.763,0
6.185,-2.167,0
6.186,-6.744,0
6.187,-7.477,0
6.188,-8.209,0
6.189,-8.758,0
6.19,-0.519,0
6.191,-3.814,0
6.192,-6.744,0
6.193,-5.829,0
6.194,-6.561,0
6.195,-5.829,0
6.196,-1.251,0
6.197,-4.364,0
6.198,-3.814,0
6.199,-5.096,0
6.2,-6.378,0
6.201,-0.152,0
6.202,-1.068,0
6.203,-6.744,0
6.204,-12.054,0
6.205,-8.758,0
6.206,-8.209,0
6.207,-7.66,0
6.208,-1.068,0
6.209,-0.152,0
6.21,-7.66,0
6.211,3.51,0
6.212,4.975,0
6.213,6.256,0
6.214,7.355,0
6.215,-0.519,0
6.216,2.411,0
6.217,-0.335,0
6.218,0.397,0
6.219,1.129,0
6.22,-3.448,0
6.221,-6.561,0
6.222,-3.265,0
6.223,0.58,0
6.224,8.087,0
6.225,15.961,0
6.226,0.763,0
6.227,20.722,0
6.228,12.848,0
6.229,5.707,0
6.23,-0.885,0
6.231,-2.899,0
6.232,-4.73,0
6.233,-9.674,0
6.234,-5.279,0
6.235,-1.251,0
6.236,-0.152,0
6.237,-5.829,0
6.238,-8.758,0
6.239,-6.012,0
6.24,6.439,0
6.241,4.608,0
6.242,2.96,0
6.243,4.425,0
6.244,0.397,0
6.245,3.876,0
6.246,2.777,0
6.247,7.721,0
6.248,8.637,0
6.249,6.256,0
6.25,-0.702,0
6.251,7.721,0
6.252,-0.152,0
6.253,0.763,0
6.254,1.679,0
6.255,-0.702,0
6.256,-4.547,0
6.257,-9.125,0
6.258,-4.73,0
6.259,-0.885,0
6.26,-2.167,0
6.261,-4.364,0
6.262,0.214,0
6.263,9.735,0
6.264,2.96,0
6.265,1.862,0
6.266,-1.434,0
6.267,-0.519,0
6.268,2.228,0
6.269,-1.8,0
6.27,-7.11,0
6.271,-2.533,0
6.272,3.144,0
6.273,5.524,0
6.274,7.721,0
6.275,17.975,0
6.276,37.567,0
6.277,40.131,0
6.278,28.046,0
6.279,25.849,0
6.28,35.919,0
6.281,26.764,0
6.282,18.524,0
6.283,14.13,0
6.284,1.862,0
6.285,0.214,0
6.286,-4.181,0
6.287,-13.702,0
6.288,-27.252,0
6.289,-32.745,0
6.29,-37.689,0
6.291,-30.182,0
6.292,-47.943,0
6.293,-60.028,0
6.294,-57.831,0
6.295,-47.76,0
6.296,-45.929,0
6.297,-37.689,0
6.298,-21.209,0
6.299,-23.407,0
6.3,-49.591,0
6.301,-67.352,0
6.302,-89.874,0
6.303,-122.47,0
6.304,-161.47,0
6.305,-177.03,0
6.306,-162.75,0
6.307,-149.93,0
6.308,-161.65,0
6.309,-143.89,0
6.31,-114.59,0
6.311,-55.45,0
6.312,71.625,0
6.313,126.19,0
6.314,175.81,0
6.315,190.83,0
6.316,177.28,0
6.317,139.92,0
6.318,128.75,0
6.319,97.992,0
6.32,51.3,0
6.321,42.877,0
6.322,35.187,0
6.323,42.145,0
6.324,48.004,0
6.325,54.23,0
6.326,94.513,0
6.327,99.64,0
6.328,123.44,0
6.329,119.23,0
6.33,130.95,0
6.331,127.47,0
6.332,130.59,0
6.333,127.66,0
6.334,108.98,0
6.335,82.245,0
6.336,57.343,0
6.337,41.229,0
6.338,44.159,0
6.339,46.723,0
6.34,49.103,0
6.341,38.117,0
6.342,19.989,0
6.343,12.848,0
6.344,-2.533,0
6.345,-20.66,0
6.346,-27.801,0
6.347,-25.604,0
6.348,-35.675,0
6.349,-41.168,0
6.35,-46.112,0
6.351,-50.506,0
6.352,-49.225,0
6.353,-48.126,0
6.354,-53.802,0
6.355,-58.746,0
6.356,-56,0
6.357,-61.676,0
6.358,-60.943,0
6.359,-59.112,0
6.36,-63.507,0
6.361,-59.662,0
6.362,-57.281,0
6.363,-53.07,0
6.364,-53.619,0
6.365,-52.337,0
6.366,-50.14,0
6.367,-43.915,0
6.368,-39.337,0
6.369,-35.309,0
6.37,-29.999,0
6.371,-29.449,0
6.372,-22.491,0
6.373,-17.914,0
6.374,-13.885,0
6.375,-9.857,0
6.376,-6.012,0
6.377,4.242,0
6.378,5.707,0
6.379,15.229,0
6.38,16.327,0
6.381,19.623,0
6.382,10.468,0
6.383,11.566,0
6.384,10.468,0
6.385,3.51,0
6.386,2.594,0
6.387,3.327,0
6.388,2.594,0
6.389,11.566,0
6.39,15.045,0
6.391,11.75,0
6.392,8.82,0
6.393,9.735,0
6.394,17.243,0
6.395,20.172,0
6.396,19.257,0
6.397,11.75,0
6.398,14.679,0
6.399,8.271,0
6.4,7.538,0
6.401,9.735,0
6.402,6.439,0
6.403,6.989,0
6.404,5.341,0
6.405,6.623,0
6.406,8.82,0
6.407,7.721,0
6.408,11.933,0
6.409,11.383,0
6.41,10.102,0
6.411,15.229,0
6.412,13.397,0
6.413,13.947,0
6.414,10.102,0
6.415,6.806,0
6.416,4.608,0
6.417,-0.885,0
6.418,-4.73,0
6.419,-6.561,0
6.42,-4.73,0
6.421,-4.181,0
6.422,-2.899,0
6.423,2.228,0
6.424,0.397,0
6.425,-0.152,0
6.426,4.059,0
6.427,1.313,0
6.428,2.594,0
6.429,9.552,0
6.43,6.623,0
6.431,7.538,0
6.432,15.045,0
6.433,12.116,0
6.434,0.031,0
6.435,-8.209,0
6.436,-9.674,0
6.437,-10.956,0
6.438,-12.054,0
6.439,-4.181,0
6.44,-1.251,0
6.441,-7.66,0
6.442,-1.983,0
6.443,0.214,0
6.444,-1.617,0
6.445,0.214,0
6.446,-2.533,0
6.447,-4.913,0
6.448,-2.716,0
6.449,-4.73,0
6.45,-5.829,0
6.451,-3.998,0
6.452,-8.575,0
6.453,-9.125,0
6.454,-7.293,0
6.455,-4.547,0
6.456,-3.265,0
6.457,-0.152,0
6.458,1.862,0
6.459,4.425,0
6.46,6.256,0
6.461,5.524,0
6.462,6.256,0
6.463,9.735,0
6.464,5.524,0
6.465,2.777,0
6.466,-0.519,0
6.467,-4.73,0
6.468,-1.983,0
6.469,-3.265,0
6.47,-7.477,0
6.471,-0.152,0
6.472,4.792,0
6.473,5.707,0
6.474,3.327,0
6.475,4.059,0
6.476,0.763,0
6.477,3.327,0
6.478,3.876,0
6.479,11.2,0
6.48,14.13,0
6.481,22.553,0
6.482,14.679,0
6.483,-0.519,0
6.484,-7.11,0
6.485,-9.125,0
6.486,-7.293,0
6.487,-8.941,0
6.488,-13.336,0
6.489,-6.561,0
6.49,-0.519,0
6.491,0.58,0
6.492,5.524,0
6.493,-0.885,0
6.494,-1.617,0
6.495,0.58,0
6.496,0.031,0
6.497,-3.082,0
6.498,-3.631,0
6.499,-4.913,0
6.5,-8.026,0
6.501,-6.927,0
6.502,-2.716,0
6.503,-3.265,0
6.504,-8.758,0
6.505,-9.491,0
6.506,-7.66,0
6.507,-5.829,0
6.508,-0.702,0
6.509,9.552,0
6.51,5.158,0
6.511,6.439,0
6.512,7.538,0
6.513,6.439,0
6.514,3.51,0
6.515,-1.068,0
6.516,-0.335,0
6.517,-5.646,0
6.518,-6.195,0
6.519,-9.308,0
6.52,-10.956,0
6.521,-6.378,0
6.522,-5.829,0
6.523,2.594,0
6.524,6.073,0
6.525,7.172,0
6.526,4.242,0
6.527,5.158,0
6.528,1.129,0
6.529,-2.899,0
6.53,0.946,0
6.531,-3.631,0
6.532,2.045,0
6.533,-3.265,0
6.534,-7.843,0
6.535,-9.674,0
6.536,-6.927,0
6.537,0.58,0
6.538,3.876,0
6.539,-5.279,0
6.54,-8.758,0
6.541,8.271,0
6.542,10.651,0
6.543,26.032,0
6.544,7.904,0
6.545,-4.181,0
6.546,2.411,0
6.547,0.397,0
6.548,2.228,0
6.549,-2.716,0
6.55,-4.181,0
6.551,-5.462,0
6.552,-6.561,0
6.553,-5.462,0
6.554,-8.392,0
6.555,-7.477,0
6.556,-5.096,0
6.557,-1.251,0
6.558,3.327,0
6.559,5.158,0
6.56,1.313,0
6.561,0.946,0
6.562,6.073,0
6.563,9.369,0
6.564,12.482,0
6.565,7.355,0
6.566,2.777,0
6.567,0.946,0
6.568,-2.899,0
6.569,-4.181,0
6.57,-7.293,0
6.571,-3.448,0
6.572,2.045,0
6.573,1.313,0
6.574,3.144,0
6.575,1.313,0
6.576,1.862,0
6.577,1.496,0
6.578,-0.702,0
6.579,2.594,0
6.58,5.341,0
6.581,11.017,0
6.582,1.862,0
6.583,15.412,0
6.584,2.594,0
6.585,-12.42,0
6.586,-6.378,0
6.587,-0.885,0
6.588,-2.533,0
6.589,-6.927,0
6.59,-2.899,0
6.591,0.58,0
6.592,1.679,0
6.593,4.608,0
6.594,5.524,0
6.595,6.256,0
6.596,6.989,0
6.597,-0.519,0
6.598,-3.448,0
6.599,-0.702,0
6.6,-4.73,0
6.601,-5.462,0
6.602,-2.167,0
6.603,-5.279,0
6.604,-2.533,0
6.605,-2.167,0
6.606,-1.8,0
6.607,-0.702,0
6.608,2.777,0
6.609,4.059,0
6.61,4.425,0
6.611,5.524,0
6.612,7.355,0
6.613,5.341,0
6.614,1.679,0
6.615,4.059,0
6.616,2.777,0
6.617,-3.448,0
6.618,-9.857,0
6.619,-7.477,0
6.62,-5.279,0
6.621,-1.983,0
6.622,2.411,0
6.623,2.96,0
6.624,1.679,0
6.625,3.876,0
6.626,7.721,0
6.627,12.299,0
6.628,10.468,0
6.629,12.116,0
6.63,9.918,0
6.631,13.214,0
6.632,20.172,0
6.633,6.989,0
6.634,5.158,0
6.635,16.693,0
6.636,15.229,0
6.637,8.454,0
6.638,7.355,0
6.639,15.229,0
6.64,22.187,0
6.641,17.609,0
6.642,16.876,0
6.643,20.722,0
6.644,24.018,0
6.645,25.849,0
6.646,26.398,0
6.647,27.68,0
6.648,20.722,0
6.649,17.792,0
6.65,7.538,0
6.651,8.82,0
6.652,7.721,0
6.653,2.045,0
6.654,6.989,0
6.655,6.073,0
6.656,6.806,0
6.657,7.538,0
6.658,8.087,0
6.659,4.975,0
6.66,4.425,0
6.661,-0.152,0
6.662,-5.829,0
6.663,-8.026,0
6.664,-8.575,0
6.665,-16.815,0
6.666,-20.111,0
6.667,-29.266,0
6.668,-32.745,0
6.669,-29.449,0
6.67,-36.407,0
6.671,-39.154,0
6.672,-39.886,0
6.673,-39.154,0
6.674,-35.858,0
6.675,-36.407,0
6.676,-33.661,0
6.677,-30.365,0
6.678,-27.252,0
6.679,-26.886,0
6.68,-22.674,0
6.681,-28.167,0
6.682,-27.618,0
6.683,-21.026,0
6.684,-20.111,0
6.685,-9.308,0
6.686,-13.702,0
6.687,-17.73,0
6.688,-23.773,0
6.689,-20.477,0
6.69,-13.519,0
6.691,-5.096,0
6.692,5.158,0
6.693,-1.617,0
6.694,1.862,0
6.695,5.158,0
6.696,6.073,0
6.697,10.651,0
6.698,11.383,0
6.699,9.186,0
6.7,11.017,0
6.701,15.412,0
6.702,21.637,0
6.703,34.088,0
6.704,39.582,0
6.705,37.934,0
6.706,42.328,0
6.707,41.046,0
6.708,47.089,0
6.709,48.188,0
6.71,51.117,0
6.711,57.526,0
6.712,56.793,0
6.713,54.596,0
6.714,50.019,0
6.715,44.342,0
6.716,37.384,0
6.717,30.976,0
6.718,18.524,0
6.719,9.369,0
6.72,1.129,0
6.721,-0.335,0
6.722,-7.11,0
6.723,-6.012,0
6.724,-4.913,0
6.725,-1.983,0
6.726,-2.899,0
6.727,-10.406,0
6.728,-3.448,0
6.729,-9.857,0
6.73,-15.533,0
6.731,-22.491,0
6.732,-31.097,0
6.733,-37.506,0
6.734,-36.773,0
6.735,-36.041,0
6.736,-29.815,0
6.737,-42.267,0
6.738,-51.422,0
6.739,-39.886,0
6.74,-35.492,0
6.741,-34.21,0
6.742,-30.731,0
6.743,-36.407,0
6.744,-35.492,0
6.745,-29.083,0
6.746,-34.759,0
6.747,-34.027,0
6.748,-34.576,0
6.749,-36.407,0
6.75,-32.562,0
6.751,-37.14,0
6.752,-38.971,0
6.753,-33.844,0
6.754,-29.266,0
6.755,-28.717,0
6.756,-20.294,0
6.757,-16.815,0
6.758,-17.914,0
6.759,-14.984,0
6.76,-10.406,0
6.761,-8.026,0
6.762,0.397,0
6.763,1.496,0
6.764,2.411,0
6.765,3.327,0
6.766,4.059,0
6.767,-1.251,0
6.768,-1.8,0
6.769,-4.913,0
6.77,-4.364,0
6.771,-1.068,0
6.772,4.975,0
6.773,5.707,0
6.774,9.552,0
6.775,18.524,0
6.776,22.003,0
6.777,25.299,0
6.778,26.215,0
6.779,25.299,0
6.78,24.567,0
6.781,25.299,0
6.782,22.003,0
6.783,31.159,0
6.784,26.764,0
6.785,18.341,0
6.786,12.299,0
6.787,17.975,0
6.788,13.031,0
6.789,26.947,0
6.79,24.933,0
6.791,26.764,0
6.792,18.524,0
6.793,41.046,0
6.794,37.934,0
6.795,23.102,0
6.796,15.229,0
6.797,8.087,0
6.798,14.679,0
6.799,8.637,0
6.8,6.806,0
6.801,8.454,0
6.802,4.059,0
6.803,2.777,0
6.804,6.256,0
6.805,9.552,0
6.806,16.51,0
6.807,15.595,0
6.808,21.271,0
6.809,31.342,0
6.81,35.37,0
6.811,34.271,0
6.812,37.567,0
6.813,38.483,0
6.814,32.074,0
6.815,26.398,0
6.816,28.595,0
6.817,24.018,0
6.818,19.623,0
6.819,17.975,0
6.82,12.482,0
6.821,13.214,0
6.822,17.792,0
6.823,19.623,0
6.824,21.271,0
6.825,24.567,0
6.826,23.285,0
6.827,22.187,0
6.828,17.243,0
6.829,6.989,0
6.83,-0.519,0
6.831,-1.8,0
6.832,-15.35,0
6.833,-28.167,0
6.834,-19.378,0
6.835,-30.914,0
6.836,-23.407,0
6.837,-38.421,0
6.838,-32.379,0
6.839,-41.534,0
6.84,-46.478,0
6.841,-47.943,0
6.842,-51.971,0
6.843,-53.07,0
6.844,-47.394,0
6.845,-46.478,0
6.846,-41.9,0
6.847,-47.577,0
6.848,-42.267,0
6.849,-38.971,0
6.85,-39.52,0
6.851,-40.069,0
6.852,-39.703,0
6.853,-37.506,0
6.854,-37.14,0
6.855,-34.576,0
6.856,-32.013,0
6.857,-27.435,0
6.858,-18.463,0
6.859,-14.984,0
6.86,-13.885,0
6.861,-12.97,0
6.862,-10.223,0
6.863,-12.604,0
6.864,-16.449,0
6.865,-10.223,0
6.866,-6.195,0
6.867,-14.618,0
6.868,-11.322,0
6.869,-8.392,0
6.87,-9.308,0
6.871,-10.04,0
6.872,-9.308,0
6.873,-6.012,0
6.874,-0.335,0
6.875,1.862,0
6.876,6.439,0
6.877,12.116,0
6.878,14.313,0
6.879,18.891,0
6.88,25.849,0
6.881,19.44,0
6.882,17.06,0
6.883,16.327,0
6.884,11.75,0
6.885,10.651,0
6.886,8.82,0
6.887,17.243,0
6.888,23.285,0
6.889,28.961,0
6.89,29.877,0
6.891,17.792,0
6.892,12.848,0
6.893,11.383,0
6.894,29.145,0
6.895,36.286,0
6.896,16.327,0
6.897,13.764,0
6.898,11.383,0
6.899,9.186,0
6.9,3.144,0
6.901,4.975,0
6.902,3.327,0
6.903,-1.068,0
6.904,2.96,0
6.905,-3.082,0
6.906,4.792,0
6.907,5.707,0
6.908,2.96,0
6.909,8.637,0
6.91,17.06,0
6.911,15.961,0
6.912,9.003,0
6.913,13.581,0
6.914,12.848,0
6.915,13.581,0
6.916,9.003,0
6.917,2.045,0
6.918,4.792,0
6.919,4.059,0
6.92,-1.251,0
6.921,-5.829,0
6.922,-0.152,0
6.923,3.693,0
6.924,8.271,0
6.925,6.439,0
6.926,8.087,0
6.927,11.383,0
6.928,13.581,0
6.929,11.566,0
6.93,13.397,0
6.931,12.299,0
6.932,7.721,0
6.933,3.144,0
6.934,-5.096,0
6.935,0.58,0
6.936,-1.068,0
6.937,-0.152,0
6.938,13.764,0
6.939,11.75,0
6.94,17.243,0
6.941,22.187,0
6.942,29.694,0
6.943,25.666,0
6.944,26.764,0
6.945,23.468,0
6.946,26.398,0
6.947,25.482,0
6.948,26.215,0
6.949,28.412,0
6.95,22.187,0
6.951,16.51,0
6.952,12.665,0
6.953,3.693,0
6.954,0.214,0
6.955,1.313,0
6.956,-7.843,0
6.957,-16.266,0
6.958,-24.139,0
6.959,-25.055,0
6.96,-29.632,0
6.961,-35.309,0
6.962,-46.844,0
6.963,-48.492,0
6.964,-47.027,0
6.965,-42.999,0
6.966,-34.576,0
6.967,-17.547,0
6.968,-24.688,0
6.969,-44.647,0
6.97,-58.014,0
6.971,-89.691,0
6.972,-111.3,0
6.973,-146.82,0
6.974,-151.58,0
6.975,-138.76,0
6.976,-134.92,0
6.977,-138.4,0
6.978,-135.28,0
6.979,-114.59,0
6.98,-74.31,0
6.981,12.299,0
6.982,99.457,0
6.983,155.85,0
6.984,186.62,0
6.985,177.28,0
6.986,168.85,0
6.987,151.28,0
6.988,128.21,0
6.989,93.231,0
6.99,74.372,0
6.991,68.695,0
6.992,73.822,0
6.993,78.583,0
6.994,91.4,0
6.995,103.12,0
6.996,113.74,0
6.997,116.85,0
6.998,102.02,0
6.999,104.58,0
7,106.96,0
7.001,104.77,0
7.002,102.75,0
7.003,89.936,0
7.004,68.329,0
7.005,35.736,0
7.006,22.919,0
7.007,34.638,0
7.008,38.117,0
7.009,35.004,0
7.01,26.215,0
7.011,12.848,0
7.012,5.707,0
7.013,-9.674,0
7.014,-23.773,0
7.015,-29.266,0
7.016,-37.506,0
7.017,-47.943,0
7.018,-62.958,0
7.019,-69,0
7.02,-67.169,0
7.021,-65.521,0
7.022,-73.028,0
7.023,-63.507,0
7.024,-66.986,0
7.025,-70.282,0
7.026,-71.197,0
7.027,-79.62,0
7.028,-82.916,0
7.029,-73.761,0
7.03,-82.184,0
7.031,-71.93,0
7.032,-70.648,0
7.033,-74.127,0
7.034,-70.831,0
7.035,-63.873,0
7.036,-57.464,0
7.037,-49.957,0
7.038,-41.351,0
7.039,-40.436,0
7.04,-34.027,0
7.041,-24.872,0
7.042,-8.758,0
7.043,-2.167,0
7.044,-8.209,0
7.045,-10.04,0
7.046,-8.392,0
7.047,-12.787,0
7.048,-14.068,0
7.049,-5.646,0
7.05,-11.322,0
7.051,-10.406,0
7.052,-14.984,0
7.053,-14.251,0
7.054,-13.519,0
7.055,-12.97,0
7.056,-9.857,0
7.057,-2.533,0
7.058,4.425,0
7.059,9.003,0
7.06,8.271,0
7.061,7.538,0
7.062,10.834,0
7.063,15.229,0
7.064,12.482,0
7.065,5.89,0
7.066,4.975,0
7.067,5.707,0
7.068,6.439,0
7.069,9.735,0
7.07,7.904,0
7.071,5.158,0
7.072,3.876,0
7.073,2.594,0
7.074,8.82,0
7.075,15.229,0
7.076,19.257,0
7.077,17.06,0
7.078,23.285,0
7.079,19.257,0
7.08,18.524,0
7.081,12.299,0
7.082,16.327,0
7.083,4.792,0
7.084,9.735,0
7.085,8.271,0
7.086,1.496,0
7.087,0.397,0
7.088,6.073,0
7.089,14.313,0
7.09,17.243,0
7.091,25.666,0
7.092,15.412,0
7.093,24.933,0
7.094,33.356,0
7.095,32.257,0
7.096,19.074,0
7.097,17.243,0
7.098,12.299,0
7.099,10.834,0
7.1,6.806,0
7.101,5.707,0
7.102,4.608,0
7.103,1.679,0
7.104,-1.068,0
7.105,-3.448,0
7.106,4.975,0
7.107,6.073,0
7.108,13.031,0
7.109,12.116,0
7.11,14.496,0
7.111,15.229,0
7.112,9.003,0
7.113,8.271,0
7.114,15.229,0
7.115,10.651,0
7.116,-0.152,0
7.117,-4.547,0
7.118,-0.519,0
7.119,-6.561,0
7.12,-3.265,0
7.121,-2.35,0
7.122,-1.434,0
7.123,2.594,0
7.124,4.792,0
7.125,5.341,0
7.126,-1.617,0
7.127,8.637,0
7.128,4.608,0
7.129,-1.434,0
7.13,-0.335,0
7.131,4.608,0
7.132,1.862,0
7.133,-0.519,0
7.134,-5.829,0
7.135,3.144,0
7.136,-2.899,0
7.137,0.397,0
7.138,-2.533,0
7.139,-3.448,0
7.14,-5.462,0
7.141,-3.082,0
7.142,8.454,0
7.143,6.806,0
7.144,-3.631,0
7.145,16.876,0
7.146,8.087,0
7.147,0.214,0
7.148,-2.167,0
7.149,-4.364,0
7.15,-10.406,0
7.151,-12.237,0
7.152,-10.589,0
7.153,-12.054,0
7.154,-10.772,0
7.155,-9.674,0
7.156,-10.772,0
7.157,-9.857,0
7.158,-7.11,0
7.159,-3.082,0
7.16,0.763,0
7.161,4.059,0
7.162,-1.617,0
7.163,0.58,0
7.164,1.129,0
7.165,0.58,0
7.166,1.129,0
7.167,-4.364,0
7.168,-12.787,0
7.169,-7.11,0
7.17,-6.195,0
7.171,-5.279,0
7.172,-2.899,0
7.173,-8.209,0
7.174,-3.631,0
7.175,-0.519,0
7.176,2.228,0
7.177,5.524,0
7.178,4.242,0
7.179,6.989,0
7.18,10.468,0
7.181,9.186,0
7.182,2.96,0
7.183,-1.617,0
7.184,-5.646,0
7.185,-7.843,0
7.186,-11.139,0
7.187,-8.026,0
7.188,-6.378,0
7.189,1.129,0
7.19,4.425,0
7.191,5.524,0
7.192,10.468,0
7.193,15.045,0
7.194,20.722,0
7.195,22.919,0
7.196,13.947,0
7.197,10.468,0
7.198,4.792,0
7.199,5.707,0
7.2,-4.547,0
7.201,-8.575,0
7.202,-5.096,0
7.203,-6.195,0
7.204,-11.139,0
7.205,-8.392,0
7.206,-2.716,0
7.207,-1.983,0
7.208,-5.279,0
7.209,4.242,0
7.21,8.271,0
7.211,14.313,0
7.212,15.412,0
7.213,30.609,0
7.214,24.018,0
7.215,5.89,0
7.216,-6.195,0
7.217,-12.787,0
7.218,-6.744,0
7.219,-15.899,0
7.22,-14.251,0
7.221,-9.857,0
7.222,-8.575,0
7.223,-12.054,0
7.224,-8.758,0
7.225,-3.814,0
7.226,-4.73,0
7.227,-2.35,0
7.228,1.496,0
7.229,-6.012,0
7.23,-3.082,0
7.231,-3.998,0
7.232,-8.026,0
7.233,-11.871,0
7.234,-11.322,0
7.235,-4.364,0
7.236,-3.448,0
7.237,-5.829,0
7.238,-8.026,0
7.239,-9.857,0
7.24,-6.744,0
7.241,0.58,0
7.242,-1.068,0
7.243,1.862,0
7.244,15.778,0
7.245,21.82,0
7.246,19.989,0
7.247,11.75,0
7.248,-1.8,0
7.249,-7.293,0
7.25,0.946,0
7.251,-3.448,0
7.252,-7.477,0
7.253,-8.575,0
7.254,-0.702,0
7.255,2.228,0
7.256,-4.181,0
7.257,3.327,0
7.258,0.397,0
7.259,1.313,0
7.26,2.045,0
7.261,4.242,0
7.262,3.693,0
7.263,13.214,0
7.264,6.439,0
7.265,5.341,0
7.266,4.242,0
7.267,3.327,0
7.268,-3.082,0
7.269,-3.814,0
7.27,-6.012,0
7.271,-4.181,0
7.272,-2.35,0
7.273,-1.8,0
7.274,-1.434,0
7.275,5.524,0
7.276,0.58,0
7.277,5.158,0
7.278,5.89,0
7.279,8.087,0
7.28,12.665,0
7.281,5.707,0
7.282,1.129,0
7.283,1.862,0
7.284,-0.335,0
7.285,-6.561,0
7.286,-2.533,0
7.287,-4.73,0
7.288,-4.181,0
7.289,-3.631,0
7.29,0.214,0
7.291,1.496,0
7.292,4.608,0
7.293,6.989,0
7.294,5.89,0
7.295,11.566,0
7.296,10.834,0
7.297,3.876,0
7.298,15.961,0
7.299,7.721,0
7.3,-2.716,0
7.301,-1.434,0
7.302,-4.913,0
7.303,-12.787,0
7.304,-11.871,0
7.305,-10.956,0
7.306,-6.927,0
7.307,-4.73,0
7.308,-1.434,0
7.309,2.96,0
7.31,10.285,0
7.311,9.369,0
7.312,15.778,0
7.313,11.75,0
7.314,1.679,0
7.315,2.96,0
7.316,1.862,0
7.317,-6.012,0
7.318,-3.082,0
7.319,-7.66,0
7.32,-5.279,0
7.321,-12.237,0
7.322,-13.153,0
7.323,-12.42,0
7.324,-3.998,0
7.325,-0.702,0
7.326,10.468,0
7.327,11.933,0
7.328,10.651,0
7.329,9.552,0
7.33,3.876,0
7.331,0.946,0
7.332,7.355,0
7.333,4.975,0
7.334,-1.983,0
7.335,-2.899,0
7.336,-8.575,0
7.337,-12.42,0
7.338,-10.589,0
7.339,-4.913,0
7.34,2.045,0
7.341,-0.702,0
7.342,3.327,0
7.343,2.594,0
7.344,-4.73,0
7.345,-0.152,0
7.346,9.369,0
7.347,10.651,0
7.348,14.13,0
7.349,-2.899,0
7.35,-5.279,0
7.351,14.679,0
7.352,-3.998,0
7.353,-1.617,0
7.354,-8.209,0
7.355,-10.223,0
7.356,-12.054,0
7.357,-7.11,0
7.358,-2.716,0
7.359,1.313,0
7.36,-2.167,0
7.361,-3.265,0
7.362,-4.181,0
7.363,4.242,0
7.364,5.341,0
7.365,0.397,0
7.366,-4.181,0
7.367,-1.8,0
7.368,-3.998,0
7.369,-10.223,0
7.37,-10.956,0
7.371,-2.533,0
7.372,-1.434,0
7.373,1.496,0
7.374,0.58,0
7.375,1.313,0
7.376,5.158,0
7.377,5.707,0
7.378,7.538,0
7.379,5.89,0
7.38,11.383,0
7.381,10.651,0
7.382,4.425,0
7.383,-1.251,0
7.384,-6.561,0
7.385,-7.11,0
7.386,-6.561,0
7.387,-8.209,0
7.388,-11.505,0
7.389,-7.293,0
7.39,1.129,0
7.391,4.608,0
7.392,7.904,0
7.393,6.989,0
7.394,9.735,0
7.395,12.848,0
7.396,10.468,0
7.397,22.003,0
7.398,20.355,0
7.399,18.891,0
7.4,9.369,0
7.401,-4.181,0
7.402,1.313,0
7.403,-10.223,0
7.404,-11.688,0
7.405,-10.406,0
7.406,-4.364,0
7.407,-3.265,0
7.408,-0.335,0
7.409,6.073,0
7.41,15.229,0
7.411,9.186,0
7.412,10.285,0
7.413,11.2,0
7.414,6.623,0
7.415,0.946,0
7.416,-1.251,0
7.417,-10.223,0
7.418,-9.125,0
7.419,-12.42,0
7.42,-7.477,0
7.421,-8.392,0
7.422,-2.716,0
7.423,1.129,0
7.424,-0.702,0
7.425,2.411,0
7.426,6.256,0
7.427,2.96,0
7.428,8.087,0
7.429,12.665,0
7.43,13.214,0
7.431,13.764,0
7.432,10.468,0
7.433,3.51,0
7.434,-7.66,0
7.435,-15.167,0
7.436,-11.139,0
7.437,-14.618,0
7.438,-13.519,0
7.439,-6.561,0
7.44,1.862,0
7.441,0.763,0
7.442,1.679,0
7.443,10.102,0
7.444,6.806,0
7.445,9.735,0
7.446,11.383,0
7.447,6.806,0
7.448,19.257,0
7.449,2.777,0
7.45,4.975,0
7.451,2.96,0
7.452,-24.505,0
7.453,-4.913,0
7.454,-15.533,0
7.455,-25.055,0
7.456,-16.266,0
7.457,-2.899,0
7.458,-5.279,0
7.459,1.313,0
7.46,11.383,0
7.461,20.539,0
7.462,15.595,0
7.463,8.087,0
7.464,9.369,0
7.465,-1.8,0
7.466,-6.195,0
7.467,-7.477,0
7.468,-10.956,0
7.469,-9.857,0
7.47,-6.927,0
7.471,-13.336,0
7.472,-5.829,0
7.473,3.327,0
7.474,2.228,0
7.475,7.904,0
7.476,6.989,0
7.477,7.904,0
7.478,3.876,0
7.479,3.144,0
7.48,4.975,0
7.481,3.144,0
7.482,-0.702,0
7.483,-8.209,0
7.484,-13.885,0
7.485,-6.927,0
7.486,-13.336,0
7.487,-7.66,0
7.488,-8.392,0
7.489,-5.096,0
7.49,-1.983,0
7.491,-1.434,0
7.492,3.144,0
7.493,1.313,0
7.494,-1.434,0
7.495,-6.012,0
7.496,-15.533,0
7.497,-14.984,0
7.498,-16.266,0
7.499,-2.716,0
7.5,-4.547,0
7.501,-2.899,0
7.502,1.496,0
7.503,-5.279,0
7.504,-8.758,0
7.505,-16.632,0
7.506,-1.434,0
7.507,5.158,0
7.508,-8.941,0
7.509,-7.11,0
7.51,-2.167,0
7.511,2.228,0
7.512,3.51,0
7.513,0.031,0
7.514,-1.068,0
7.515,-16.266,0
7.516,-9.674,0
7.517,-7.66,0
7.518,-5.829,0
7.519,-14.068,0
7.52,8.454,0
7.521,5.341,0
7.522,-3.448,0
7.523,-0.885,0
7.524,-8.026,0
7.525,2.96,0
7.526,17.06,0
7.527,11.566,0
7.528,13.214,0
7.529,17.609,0
7.53,18.891,0
7.531,15.412,0
7.532,9.735,0
7.533,6.806,0
7.534,4.059,0
7.535,-3.448,0
7.536,-2.533,0
7.537,3.876,0
7.538,3.144,0
7.539,-0.702,0
7.54,6.806,0
7.541,15.961,0
7.542,12.482,0
7.543,13.581,0
7.544,22.736,0
7.545,28.778,0
7.546,20.905,0
7.547,21.82,0
7.548,29.694,0
7.549,25.116,0
7.55,30.792,0
7.551,22.37,0
7.552,19.074,0
7.553,24.018,0
7.554,21.271,0
7.555,12.116,0
7.556,3.693,0
7.557,4.792,0
7.558,5.707,0
7.559,2.96,0
7.56,6.989,0
7.561,7.721,0
7.562,9.552,0
7.563,12.665,0
7.564,14.313,0
7.565,11.017,0
7.566,4.059,0
7.567,-5.096,0
7.568,-6.195,0
7.569,-9.491,0
7.57,-6.561,0
7.571,-9.308,0
7.572,-13.336,0
7.573,-8.026,0
7.574,2.228,0
7.575,9.735,0
7.576,8.454,0
7.577,4.975,0
7.578,3.876,0
7.579,4.792,0
7.58,5.707,0
7.581,4.975,0
7.582,-0.335,0
7.583,2.96,0
7.584,-6.561,0
7.585,-10.589,0
7.586,-11.688,0
7.587,-12.787,0
7.588,-15.716,0
7.589,-11.139,0
7.59,-7.11,0
7.591,-7.843,0
7.592,-4.547,0
7.593,-1.434,0
7.594,3.693,0
7.595,4.242,0
7.596,13.764,0
7.597,28.778,0
7.598,10.651,0
7.599,-1.8,0
7.6,0.58,0
7.601,7.172,0
7.602,1.129,0
7.603,-15.35,0
7.604,9.003,0
7.605,-0.519,0
7.606,-3.448,0
7.607,4.425,0
7.608,-7.66,0
7.609,-9.857,0
7.61,-7.843,0
7.611,8.637,0
7.612,2.045,0
7.613,-3.998,0
7.614,-9.491,0
7.615,-11.139,0
7.616,-15.533,0
7.617,-16.815,0
7.618,-22.857,0
7.619,-21.759,0
7.62,-22.674,0
7.621,-19.928,0
7.622,-22.308,0
7.623,-10.772,0
7.624,-9.125,0
7.625,-1.617,0
7.626,-5.646,0
7.627,-4.547,0
7.628,1.129,0
7.629,6.073,0
7.63,10.651,0
7.631,13.031,0
7.632,1.496,0
7.633,-10.04,0
7.634,-23.59,0
7.635,-7.11,0
7.636,-4.913,0
7.637,-6.927,0
7.638,-12.42,0
7.639,-0.885,0
7.64,12.665,0
7.641,7.172,0
7.642,5.524,0
7.643,6.989,0
7.644,8.271,0
7.645,11.75,0
7.646,8.454,0
7.647,3.51,0
7.648,8.087,0
7.649,4.059,0
7.65,-1.068,0
7.651,-6.378,0
7.652,-10.956,0
7.653,-5.279,0
7.654,6.256,0
7.655,14.496,0
7.656,6.989,0
7.657,5.707,0
7.658,4.608,0
7.659,7.904,0
7.66,10.834,0
7.661,9.918,0
7.662,7.538,0
7.663,12.848,0
7.664,9.552,0
7.665,0.031,0
7.666,-1.251,0
7.667,-4.73,0
7.668,-3.631,0
7.669,1.313,0
7.67,11.566,0
7.671,-0.702,0
7.672,-5.646,0
7.673,1.862,0
7.674,3.144,0
7.675,-0.335,0
7.676,5.341,0
7.677,16.51,0
7.678,15.045,0
7.679,16.327,0
7.68,17.426,0
7.681,18.524,0
7.682,13.581,0
7.683,7.172,0
7.684,-3.631,0
7.685,0.763,0
7.686,-6.012,0
7.687,-9.491,0
7.688,-12.787,0
7.689,-7.843,0
7.69,-3.265,0
7.691,2.411,0
7.692,-2.899,0
7.693,-2.35,0
7.694,7.172,0
7.695,11.2,0
7.696,12.299,0
7.697,13.397,0
7.698,10.468,0
7.699,11.383,0
7.7,9.003,0
7.701,1.129,0
7.702,-2.716,0
7.703,7.538,0
7.704,15.045,0
7.705,16.327,0
7.706,12.848,0
7.707,-4.181,0
7.708,-21.026,0
7.709,-27.618,0
7.71,-29.632,0
7.711,-35.125,0
7.712,-53.436,0
7.713,-60.577,0
7.714,-53.985,0
7.715,-47.943,0
7.716,-42.45,0
7.717,-40.802,0
7.718,-30.365,0
7.719,-34.393,0
7.72,-52.887,0
7.721,-66.253,0
7.722,-92.987,0
7.723,-117.89,0
7.724,-147.19,0
7.725,-151.03,0
7.726,-154.51,0
7.727,-151.4,0
7.728,-148.47,0
7.729,-151.03,0
7.73,-124.3,0
7.731,-70.648,0
7.732,14.13,0
7.733,115.75,0
7.734,156.59,0
7.735,169.04,0
7.736,157.87,0
7.737,147.61,0
7.738,119.6,0
7.739,94.33,0
7.74,71.259,0
7.741,78.217,0
7.742,71.991,0
7.743,100.74,0
7.744,116.3,0
7.745,111.54,0
7.746,115.75,0
7.747,127.47,0
7.748,116.85,0
7.749,119.97,0
7.75,105.13,0
7.751,107.7,0
7.752,105.13,0
7.753,93.048,0
7.754,73.09,0
7.755,48.92,0
7.756,32.807,0
7.757,47.638,0
7.758,34.271,0
7.759,36.652,0
7.76,34.455,0
7.761,20.355,0
7.762,3.876,0
7.763,-2.716,0
7.764,-12.787,0
7.765,-18.28,0
7.766,-10.04,0
7.767,-29.632,0
7.768,-59.112,0
7.769,-70.831,0
7.77,-74.31,0
7.771,-58.197,0
7.772,-55.267,0
7.773,-57.831,0
7.774,-50.689,0
7.775,-52.887,0
7.776,-62.958,0
7.777,-64.789,0
7.778,-63.141,0
7.779,-70.648,0
7.78,-69.366,0
7.781,-63.324,0
7.782,-55.45,0
7.783,-58.38,0
7.784,-57.464,0
7.785,-61.493,0
7.786,-53.07,0
7.787,-49.774,0
7.788,-46.844,0
7.789,-38.421,0
7.79,-28.167,0
7.791,-18.646,0
7.792,-10.223,0
7.793,-4.547,0
7.794,-1.617,0
7.795,1.129,0
7.796,1.862,0
7.797,-3.448,0
7.798,-1.617,0
7.799,0.214,0
7.8,2.96,0
7.801,-3.631,0
7.802,-8.209,0
7.803,-5.462,0
7.804,-1.434,0
7.805,-5.279,0
7.806,4.975,0
7.807,24.567,0
7.808,22.003,0
7.809,24.384,0
7.81,22.187,0
7.811,16.144,0
7.812,17.975,0
7.813,13.031,0
7.814,23.468,0
7.815,11.2,0
7.816,6.256,0
7.817,-7.293,0
7.818,-1.8,0
7.819,3.144,0
7.82,1.679,0
7.821,16.693,0
7.822,18.708,0
7.823,5.89,0
7.824,4.242,0
7.825,5.707,0
7.826,6.989,0
7.827,5.89,0
7.828,4.792,0
7.829,11.75,0
7.83,18.158,0
7.831,15.778,0
7.832,10.468,0
7.833,8.637,0
7.834,-0.885,0
7.835,-7.66,0
7.836,0.763,0
7.837,6.439,0
7.838,-0.519,0
7.839,-3.265,0
7.84,2.411,0
7.841,1.679,0
7.842,9.186,0
7.843,6.256,0
7.844,14.679,0
7.845,11.383,0
7.846,12.299,0
7.847,11.383,0
7.848,5.707,0
7.849,4.975,0
7.85,3.144,0
7.851,-3.814,0
7.852,-4.73,0
7.853,-0.702,0
7.854,2.594,0
7.855,4.792,0
7.856,15.045,0
7.857,10.651,0
7.858,11.933,0
7.859,23.102,0
7.86,24.567,0
7.861,12.299,0
7.862,10.651,0
7.863,15.045,0
7.864,11.017,0
7.865,-0.152,0
7.866,-4.547,0
7.867,-11.322,0
7.868,-17.364,0
7.869,-18.463,0
7.87,-15.533,0
7.871,-1.617,0
7.872,16.51,0
7.873,4.425,0
7.874,2.228,0
7.875,12.299,0
7.876,10.468,0
7.877,5.524,0
7.878,9.918,0
7.879,13.947,0
7.88,15.045,0
7.881,9.369,0
7.882,4.425,0
7.883,-1.983,0
7.884,-4.364,0
7.885,-9.674,0
7.886,-9.125,0
7.887,-3.448,0
7.888,4.975,0
7.889,3.876,0
7.89,13.031,0
7.891,9.552,0
7.892,8.454,0
7.893,3.51,0
7.894,6.256,0
7.895,11.933,0
7.896,6.623,0
7.897,6.073,0
7.898,2.96,0
7.899,-0.885,0
7.9,-7.477,0
7.901,-17.73,0
7.902,-19.012,0
7.903,-20.111,0
7.904,-16.815,0
7.905,-17.914,0
7.906,-20.843,0
7.907,-10.589,0
7.908,1.679,0
7.909,-3.265,0
7.91,13.214,0
7.911,2.228,0
7.912,-3.814,0
7.913,-5.646,0
7.914,-10.589,0
7.915,-14.984,0
7.916,-13.702,0
7.917,-12.604,0
7.918,-20.477,0
7.919,-21.393,0
7.92,-22.308,0
7.921,-26.336,0
7.922,-22.491,0
7.923,-17.914,0
7.924,-23.59,0
7.925,-12.054,0
7.926,-7.11,0
7.927,-5.646,0
7.928,14.862,0
7.929,23.651,0
7.93,10.285,0
7.931,-1.8,0
7.932,-8.392,0
7.933,-6.378,0
7.934,-4.547,0
7.935,-9.491,0
7.936,-5.096,0
7.937,-9.125,0
7.938,-15.167,0
7.939,-9.491,0
7.94,-8.575,0
7.941,-11.322,0
7.942,-5.646,0
7.943,5.89,0
7.944,14.13,0
7.945,12.665,0
7.946,8.637,0
7.947,2.594,0
7.948,1.496,0
7.949,-5.462,0
7.95,-4.547,0
7.951,-8.575,0
7.952,-12.42,0
7.953,-10.589,0
7.954,-8.758,0
7.955,-2.533,0
7.956,2.594,0
7.957,3.327,0
7.958,13.397,0
7.959,22.919,0
7.96,28.961,0
7.961,21.088,0
7.962,9.918,0
7.963,8.454,0
7.964,9.735,0
7.965,6.256,0
7.966,9.552,0
7.967,-1.617,0
7.968,-9.125,0
7.969,-10.406,0
7.97,-1.983,0
7.971,3.693,0
7.972,-7.477,0
7.973,-3.082,0
7.974,6.439,0
7.975,12.482,0
7.976,9.186,0
7.977,10.102,0
7.978,16.51,0
7.979,17.243,0
7.98,15.045,0
7.981,8.82,0
7.982,14.496,0
7.983,16.693,0
7.984,12.116,0
7.985,2.594,0
7.986,-4.181,0
7.987,-0.702,0
7.988,-3.998,0
7.989,11.2,0
7.99,17.792,0
7.991,23.834,0
7.992,29.328,0
7.993,30.976,0
7.994,32.44,0
7.995,36.469,0
7.996,32.99,0
7.997,31.891,0
7.998,28.961,0
7.999,33.539,0
8,37.567,0
8.001,32.257,0
8.002,27.68,0
8.003,19.44,0
8.004,16.144,0
8.005,15.229,0
8.006,16.144,0
8.007,17.243,0
8.008,14.862,0
8.009,3.327,0
8.01,8.271,0
8.011,9.735,0
8.012,22.003,0
8.013,13.764,0
8.014,-2.716,0
8.015,-9.308,0
8.016,-15.35,0
8.017,-17.181,0
8.018,-22.125,0
8.019,-23.59,0
8.02,-27.618,0
8.021,-33.661,0
8.022,-25.787,0
8.023,-20.843,0
8.024,-27.252,0
8.025,-29.632,0
8.026,-19.562,0
8.027,-18.28,0
8.028,-24.322,0
8.029,-32.196,0
8.03,-35.125,0
8.031,-47.21,0
8.032,-48.858,0
8.033,-41.351,0
8.034,-40.069,0
8.035,-46.112,0
8.036,-56.366,0
8.037,-44.098,0
8.038,-42.45,0
8.039,-40.985,0
8.04,-34.21,0
8.041,-28.167,0
8.042,-20.294,0
8.043,-11.139,0
8.044,-10.04,0
8.045,-4.364,0
8.046,-5.279,0
8.047,-4.364,0
8.048,-3.631,0
8.049,1.679,0
8.05,-5.829,0
8.051,-2.899,0
8.052,-9.308,0
8.053,-1.8,0
8.054,-2.716,0
8.055,0.031,0
8.056,9.186,0
8.057,8.087,0
8.058,9.186,0
8.059,12.482,0
8.06,27.68,0
8.061,12.299,0
8.062,42.511,0
8.063,38.3,0
8.064,18.708,0
8.065,8.087,0
8.066,11.2,0
8.067,8.271,0
8.068,5.707,0
8.069,-1.434,0
8.07,-3.631,0
8.071,-1.617,0
8.072,3.876,0
8.073,2.228,0
8.074,3.693,0
8.075,4.975,0
8.076,11.017,0
8.077,12.116,0
8.078,19.074,0
8.079,18.158,0
8.08,14.13,0
8.081,7.172,0
8.082,6.256,0
8.083,6.989,0
8.084,7.721,0
8.085,4.425,0
8.086,2.594,0
8.087,-3.631,0
8.088,-7.66,0
8.089,-6.927,0
8.09,-2.35,0
8.091,0.763,0
8.092,4.608,0
8.093,4.242,0
8.094,11.2,0
8.095,16.144,0
8.096,17.06,0
8.097,16.327,0
8.098,9.369,0
8.099,0.946,0
8.1,-11.505,0
8.101,-16.449,0
8.102,-6.012,0
8.103,-7.293,0
8.104,-10.772,0
8.105,-9.674,0
8.106,-0.519,0
8.107,2.96,0
8.108,6.256,0
8.109,4.059,0
8.11,1.129,0
8.111,0.214,0
8.112,11.017,0
8.113,9.552,0
8.114,8.271,0
8.115,-0.152,0
8.116,16.876,0
8.117,14.496,0
8.118,3.51,0
8.119,5.524,0
8.12,-3.631,0
8.121,-15.167,0
8.122,-7.66,0
8.123,-8.941,0
8.124,-0.519,0
8.125,7.355,0
8.126,8.271,0
8.127,7.355,0
8.128,9.735,0
8.129,15.045,0
8.13,11.75,0
8.131,8.637,0
8.132,0.214,0
8.133,-3.265,0
8.134,-2.167,0
8.135,-3.082,0
8.136,-3.998,0
8.137,-3.265,0
8.138,-10.223,0
8.139,1.862,0
8.14,10.102,0
8.141,8.637,0
8.142,1.862,0
8.143,2.96,0
8.144,6.256,0
8.145,7.172,0
8.146,11.75,0
