0,0.0028
0.001,-0.001
0.002,0.0065
0.003,0.0008
0.004,0.0078
0.005,0.005
0.006,-0.0041
0.007,-0.0052
0.008,-0.0019
0.009,-0.0028
0.01,-0.0037
0.011,-0.003
0.012,-0.0052
0.013,-0.0034
0.014,-0.0039
0.015,-0.0012
0.016,-0.0025
0.017,0.0006
0.018,0.0017
0.019,0.0043
0.02,0.0017
0.021,0.0016
0.022,-0.0021
0.023,-0.0025
0.024,0.0017
0.025,0.0001
0.026,0.0014
0.027,-0.0008
0.028,0.0003
0.029,-0.0008
0.03,-0.0056
0.031,-0.0025
0.032,0.0003
0.033,0.0016
0.034,-0.0016
0.035,0.003
0.036,-0.0014
0.037,0.0025
0.038,-0.0021
0.039,-0.0016
0.04,-0.0043
0.041,-0.003
0.042,-0.0027
0.043,-0.0016
0.044,0.0027
0.045,-0.0012
0.046,-0.0025
0.047,-0.0012
0.048,0.0016
0.049,-0.0003
0.05,-0.0014
0.051,-0.0008
0.052,-0.0036
0.053,0.0021
0.054,0.0061
0.055,-0.0039
0.056,0.0111
0.057,-0.003
0.058,-0.0048
0.059,0.0001
0.06,-0.0043
0.061,-0.0056
0.062,-0.0067
0.063,-0.001
0.064,0.0039
0.065,0.0012
0.066,-0.0012
0.067,0.001
0.068,0.0028
0.069,0.0047
0.07,-0.0005
0.071,-0.0037
0.072,-0.0056
0.073,-0.0039
0.074,-0.0027
0.075,-0.0005
0.076,0.005
0.077,0.0028
0.078,0.0023
0.079,-0.0034
0.08,0.0005
0.081,0.0023
0.082,0.0054
0.083,0.0016
0.084,0.0028
0.085,0.0025
0.086,-0.0037
0.087,-0.001
0.088,-0.0034
0.089,-0.0041
0.09,-0.0074
0.091,-0.0043
0.092,-0.0048
0.093,0.0017
0.094,0.0008
0.095,0.0001
0.096,0.0039
0.097,0.0045
0.098,0.0039
0.099,0.0001
0.1,0.0034
0.101,0.0012
0.102,-0.0001
0.103,0.0003
0.104,-0.0008
0.105,0.0003
0.106,-0.0017
0.107,-0.001
0.108,-0.0023
0.109,0.0008
0.11,-0.0054
0.111,0.003
0.112,-0.0027
0.113,-0.0036
0.114,0.001
0.115,0.0067
0.116,0.0105
0.117,0.0043
0.118,0.0019
0.119,-0.0034
0.12,0.0012
0.121,-0.0032
0.122,-0.007
0.123,-0.0037
0.124,-0.0025
0.125,0.0003
0.126,0.0006
0.127,0.001
0.128,-0.003
0.129,-0.0047
0.13,-0.0014
0.131,0.0008
0.132,0.0019
0.133,0.0008
0.134,0.0027
0.135,-0.0006
0.136,-0.001
0.137,0.0001
0.138,-0.0017
0.139,-0.0043
0.14,-0.0036
0.141,0.0001
0.142,-0.0012
0.143,-0.0034
0.144,-0.0045
0.145,-0.0041
0.146,-0.0016
0.147,0.003
0.148,0.0012
0.149,-0.0006
0.15,-0.0012
0.151,-0.0016
0.152,-0.0047
0.153,0.0036
0.154,-0.0019
0.155,0.0096
0.156,0.008
0.157,0.0065
0.158,0.0052
0.159,0.0017
0.16,0.0142
0.161,-0.0041
0.162,-0.0113
0.163,-0.0003
0.164,0.0017
0.165,-0.0037
0.166,-0.0021
0.167,-0.0036
0.168,0.0005
0.169,-0.0006
0.17,-0.0039
0.171,-0.0089
0.172,-0.008
0.173,-0.0005
0.174,0.0025
0.175,0.0016
0.176,-0.0008
0.177,-0.0001
0.178,0.0032
0.179,0.0001
0.18,-0.0027
0.181,-0.003
0.182,0.0001
0.183,-0.001
0.184,0.0032
0.185,0.0038
0.186,0.0041
0.187,-0.0001
0.188,-0.0006
0.189,-0.0039
0.19,-0.0036
0.191,-0.0025
0.192,-0.0036
0.193,-0.001
0.194,-0.0037
0.195,-0.0019
0.196,-0.0045
0.197,0.0001
0.198,-0.0017
0.199,0.0014
0.2,0.0019
0.201,-0.0005
0.202,0.0008
0.203,0.0005
0.204,-0.0016
0.205,-0.0041
0.206,-0.0059
0.207,-0.0014
0.208,-0.0019
0.209,0.005
0.21,0.0153
0.211,0.0113
0.212,0.0028
0.213,-0.005
0.214,-0.0059
0.215,-0.0014
0.216,-0.0006
0.217,0.0001
0.218,-0.0005
0.219,-0.0036
0.22,0.0003
0.221,-0.003
0.222,-0.0017
0.223,-0.0028
0.224,-0.0039
0.225,-0.0014
0.226,-0.0034
0.227,0.0008
0.228,0.0039
0.229,0.0001
0.23,-0.0012
0.231,-0.0034
0.232,-0.0023
0.233,0.0003
0.234,0.0006
0.235,0.0021
0.236,0.0003
0.237,0.0016
0.238,-0.0019
0.239,-0.0016
0.24,0.0016
0.241,-0.0005
0.242,-0.0047
0.243,-0.003
0.244,0.0003
0.245,-0.0001
0.246,-0.0028
0.247,-0.0003
0.248,0.0016
0.249,0.0001
0.25,0.0008
0.251,-0.001
0.252,-0.0032
0.253,0.001
0.254,0.0005
0.255,0.0006
0.256,0.0001
0.257,0.0067
0.258,0.0021
0.259,0.0028
0.26,0.0129
0.261,0.0116
0.262,0.0005
0.263,-0.001
0.264,-0.005
0.265,-0.0016
0.266,0.0017
0.267,0.0008
0.268,-0.0001
0.269,-0.0008
0.27,-0.003
0.271,-0.0048
0.272,-0.0043
0.273,-0.007
0.274,-0.0016
0.275,-0.0037
0.276,-0.0032
0.277,-0.0027
0.278,0.0001
0.279,-0.0012
0.28,0.001
0.281,-0.0001
0.282,0.0017
0.283,0.0036
0.284,0.0043
0.285,0.0036
0.286,0.0028
0.287,0.0006
0.288,-0.0036
0.289,-0.0005
0.29,0.0012
0.291,-0.0012
0.292,-0.0025
0.293,-0.0021
0.294,-0.0017
0.295,0.0008
0.296,-0.0025
0.297,-0.0037
0.298,0.0008
0.299,0.0003
0.3,-0.0025
0.301,0.0008
0.302,0.0012
0.303,0.0008
0.304,-0.0048
0.305,-0.0008
0.306,-0.0008
0.307,-0.0016
0.308,0.0087
0.309,0.0072
0.31,0.0085
0.311,0.0074
0.312,-0.0096
0.313,0.0025
0.314,-0.0041
0.315,0.0019
0.316,0.0074
0.317,0.0058
0.318,0.0014
0.319,-0.0027
0.32,-0.0016
0.321,-0.0094
0.322,-0.0085
0.323,-0.0058
0.324,-0.005
0.325,-0.0058
0.326,-0.0039
0.327,0.0005
0.328,0.001
0.329,-0.0065
0.33,-0.0054
0.331,-0.0025
0.332,0.0021
0.333,0.0045
0.334,0.0052
0.335,0.0006
0.336,-0.0012
0.337,0.0039
0.338,0.0034
0.339,0.0003
0.34,-0.0014
0.341,-0.0017
0.342,-0.0039
0.343,-0.0036
0.344,0.0014
0.345,-0.0005
0.346,-0.0036
0.347,0.0049
0.348,0.0038
0.349,0.0005
0.35,-0.0025
0.351,-0.0016
0.352,-0.0008
0.353,0.0014
0.354,0.0032
0.355,0.0038
0.356,-0.0047
0.357,-0.0023
0.358,0.0012
0.359,0.0001
0.36,0.005
0.361,0.0041
0.362,0.0017
0.363,0.0133
0.364,0.005
0.365,-0.0025
0.366,-0.0012
0.367,-0.0023
0.368,-0.0034
0.369,-0.0025
0.37,-0.0034
0.371,-0.0041
0.372,-0.0019
0.373,-0.0014
0.374,-0.0058
0.375,-0.0041
0.376,-0.0008
0.377,-0.0021
0.378,-0.0048
0.379,-0.0059
0.38,-0.0048
0.381,-0.0047
0.382,-0.0005
0.383,0.0039
0.384,0.0078
0.385,0.0074
0.386,0.0023
0.387,-0.0023
0.388,0.0047
0.389,0.0038
0.39,-0.0003
0.391,-0.001
0.392,-0.0005
0.393,0.0001
0.394,-0.0016
0.395,-0.0061
0.396,-0.0017
0.397,-0.0034
0.398,-0.001
0.399,0.0003
0.4,-0.0025
0.401,0.0001
0.402,0.0005
0.403,0.0019
0.404,-0.0023
0.405,-0.0005
0.406,-0.001
0.407,-0.0023
0.408,-0.0001
0.409,0.0003
0.41,0.0065
0.411,0.0074
0.412,0.0114
0.413,0.0107
0.414,0.0005
0.415,-0.001
0.416,0.0003
0.417,0.0014
0.418,0.0071
0.419,0.008
0.42,0.0034
0.421,-0.0023
0.422,-0.0016
0.423,0.0017
0.424,0.0012
0.425,0.0017
0.426,0.0014
0.427,0.0056
0.428,0.0005
0.429,0.001
0.43,0.0016
0.431,0.001
0.432,-0.0023
0.433,-0.0027
0.434,-0.0037
0.435,-0.0048
0.436,-0.0037
0.437,-0.0083
0.438,-0.0089
0.439,-0.0083
0.44,-0.0056
0.441,-0.0052
0.442,-0.0048
0.443,-0.0028
0.444,-0.0025
0.445,0.0008
0.446,-0.003
0.447,-0.0027
0.448,-0.0005
0.449,0.0041
0.45,0.006
0.451,0.0054
0.452,0.0021
0.453,0.0008
0.454,-0.0003
0.455,-0.0006
0.456,-0.0017
0.457,-0.005
0.458,0.0019
0.459,0.0014
0.46,0.0005
0.461,0.0107
0.462,0.0012
0.463,0.0147
0.464,0.0166
0.465,0.0083
0.466,0.0008
0.467,-0.0032
0.468,0.0003
0.469,0.0014
0.47,-0.0036
0.471,-0.0045
0.472,-0.0021
0.473,-0.0014
0.474,-0.0032
0.475,-0.0063
0.476,-0.0058
0.477,-0.0012
0.478,-0.0006
0.479,-0.0034
0.48,-0.0047
0.481,-0.0005
0.482,0.0034
0.483,0.0021
0.484,0.0034
0.485,0.0014
0.486,-0.0028
0.487,-0.0067
0.488,-0.0034
0.489,-0.0047
0.49,0.0008
0.491,0.0016
0.492,0.0034
0.493,0.0016
0.494,0.0021
0.495,-0.0012
0.496,-0.0043
0.497,-0.0023
0.498,0.0019
0.499,0.0036
0.5,0.0012
0.501,0.0072
0.502,-0.0019
0.503,-0.003
0.504,-0.0019
0.505,-0.001
0.506,-0.0037
0.507,0.0003
0.508,-0.0005
0.509,-0.0023
0.51,-0.0045
0.511,-0.0014
0.512,0.0071
0.513,0.0082
0.514,0.016
0.515,0.0169
0.516,0.0085
0.517,0.0096
0.518,0.0105
0.519,0.0133
0.52,0.0109
0.521,0.0147
0.522,0.021
0.523,0.0233
0.524,0.0212
0.525,0.0301
0.526,0.029
0.527,0.0212
0.528,0.0182
0.529,0.0098
0.53,0.0065
0.531,0.0074
0.532,-0.0065
0.533,-0.0246
0.534,-0.0367
0.535,-0.0477
0.536,-0.0578
0.537,-0.0706
0.538,-0.0689
0.539,-0.0585
0.54,-0.049
0.541,-0.0479
0.542,-0.049
0.543,-0.0622
0.544,-0.0786
0.545,-0.0896
0.546,-0.0997
0.547,-0.1125
0.548,-0.1308
0.549,-0.1429
0.55,-0.1407
0.551,-0.1387
0.552,-0.1222
0.553,-0.1156
0.554,-0.0935
0.555,-0.0609
0.556,0.0041
0.557,0.1255
0.558,0.2083
0.559,0.2233
0.56,0.2369
0.561,0.1947
0.562,0.1823
0.563,0.1486
0.564,0.1178
0.565,0.1085
0.566,0.1001
0.567,0.0924
0.568,0.0993
0.569,0.1182
0.57,0.1239
0.571,0.1394
0.572,0.1347
0.573,0.1219
0.574,0.1101
0.575,0.1067
0.576,0.1035
0.577,0.0887
0.578,0.0484
0.579,0.0082
0.58,0.003
0.581,-0.0017
0.582,0.0025
0.583,-0.0014
0.584,-0.012
0.585,-0.0281
0.586,-0.031
0.587,-0.0444
0.588,-0.0565
0.589,-0.0587
0.59,-0.0567
0.591,-0.0695
0.592,-0.0711
0.593,-0.0755
0.594,-0.0742
0.595,-0.0682
0.596,-0.0671
0.597,-0.0662
0.598,-0.0616
0.599,-0.0559
0.6,-0.0629
0.601,-0.0675
0.602,-0.0667
0.603,-0.066
0.604,-0.0642
0.605,-0.0636
0.606,-0.0563
0.607,-0.0534
0.608,-0.0506
0.609,-0.0449
0.61,-0.038
0.611,-0.0352
0.612,-0.0308
0.613,-0.0252
0.614,-0.023
0.615,-0.0155
0.616,-0.0023
0.617,0.0032
0.618,-0.005
0.619,-0.0094
0.62,-0.0107
0.621,-0.0047
0.622,0.001
0.623,0.0019
0.624,0.0028
0.625,0.0036
0.626,0.0043
0.627,0.0038
0.628,0.0056
0.629,0.0072
0.63,0.0105
0.631,0.0102
0.632,0.0056
0.633,0.0074
0.634,0.0069
0.635,0.0124
0.636,0.0116
0.637,0.0122
0.638,0.0091
0.639,0.0074
0.64,0.012
0.641,0.0102
0.642,0.0118
0.643,0.0072
0.644,0.0067
0.645,0.0061
0.646,0.0094
0.647,0.0098
0.648,0.0102
0.649,0.0127
0.65,0.0146
0.651,0.016
0.652,0.0147
0.653,0.0107
0.654,0.0056
0.655,0.0038
0.656,-0.0006
0.657,0.0032
0.658,-0.0001
0.659,-0.0014
0.66,0.0049
0.661,-0.0016
0.662,-0.0008
0.663,-0.0008
0.664,0.0014
0.665,0.0116
0.666,0.0131
0.667,0.0226
0.668,0.0114
0.669,0.001
0.67,-0.003
0.671,-0.0041
0.672,-0.0008
0.673,-0.0017
0.674,0.001
0.675,0.0017
0.676,0.0039
0.677,0.0034
0.678,0.0028
0.679,0.0034
0.68,0.001
0.681,0.0052
0.682,0.0025
0.683,0.0028
0.684,0.0032
0.685,0.0012
0.686,0.0038
0.687,0.0041
0.688,-0.0005
0.689,-0.001
0.69,-0.0028
0.691,-0.0045
0.692,-0.0032
0.693,-0.0019
0.694,0.0008
0.695,-0.0003
0.696,0.0008
0.697,0.0006
0.698,0.0043
0.699,0.0019
0.7,0.0032
0.701,-0.0014
0.702,-0.0019
0.703,-0.0014
0.704,0.001
0.705,0.0023
0.706,-0.0016
0.707,0.0017
0.708,0.0005
0.709,-0.0006
0.71,-0.0003
0.711,-0.0014
0.712,-0.0016
0.713,0.0021
0.714,-0.0008
0.715,0.0025
0.716,0.0067
0.717,-0.0006
0.718,0.0023
0.719,0.005
0.72,0.0027
0.721,0.008
0.722,0.0061
0.723,-0.0034
0.724,-0.0047
0.725,-0.0036
0.726,-0.0025
0.727,-0.0016
0.728,-0.0043
0.729,0.0014
0.73,-0.0008
0.731,-0.0014
0.732,-0.0019
0.733,0.0019
0.734,0.0016
0.735,-0.0027
0.736,-0.001
0.737,0.0003
0.738,-0.0019
0.739,-0.0008
0.74,-0.0034
0.741,-0.0045
0.742,-0.0017
0.743,-0.0014
0.744,0.0019
0.745,-0.0008
0.746,-0.0005
0.747,-0.0008
0.748,-0.0001
0.749,-0.0014
0.75,-0.0006
0.751,-0.0032
0.752,-0.0028
0.753,-0.0021
0.754,-0.0023
0.755,-0.0021
0.756,-0.0016
0.757,-0.0014
0.758,-0.0008
0.759,-0.0025
0.76,-0.0001
0.761,-0.0021
0.762,-0.0023
0.763,0.0001
0.764,0.0047
0.765,0.0065
0.766,-0.001
0.767,0.0039
0.768,-0.0025
0.769,-0.0001
0.77,-0.0023
0.771,-0.0017
0.772,-0.0113
0.773,0.0093
0.774,0.0122
0.775,0.0043
0.776,-0.0028
0.777,-0.0006
0.778,-0.0067
0.779,-0.0048
0.78,-0.0065
0.781,-0.0021
0.782,0.0019
0.783,0.003
0.784,-0.0003
0.785,0.0027
0.786,-0.0001
0.787,-0.0058
0.788,-0.005
0.789,0.0012
0.79,-0.0028
0.791,-0.005
0.792,-0.0045
0.793,-0.0039
0.794,-0.0056
0.795,-0.0069
0.796,-0.0017
0.797,0.0001
0.798,0.0096
0.799,0.0083
0.8,0.0023
0.801,0.0034
0.802,0.0083
0.803,0.0038
0.804,-0.0003
0.805,-0.0041
0.806,-0.0008
0.807,-0.0003
0.808,-0.0019
0.809,0.0005
0.81,0.0008
0.811,-0.0037
0.812,-0.0019
0.813,-0.0025
0.814,-0.0001
0.815,0.005
0.816,0.0087
0.817,0.0012
0.818,0.0061
0.819,0.0052
0.82,0.0127
0.821,0.0118
0.822,0.0034
0.823,-0.0023
0.824,-0.0014
0.825,0.0014
0.826,0.0006
0.827,0.0028
0.828,-0.0017
0.829,-0.0036
0.83,-0.0019
0.831,-0.0023
0.832,0.0028
0.833,0.0034
0.834,0.0039
0.835,0.0045
0.836,0.0021
0.837,-0.0039
0.838,-0.0032
0.839,-0.0025
0.84,-0.003
0.841,-0.0025
0.842,-0.003
0.843,0.0003
0.844,-0.0039
0.845,0.0012
0.846,0.0017
0.847,0.0061
0.848,0.0056
0.849,0.001
0.85,0.0016
0.851,0.001
0.852,-0.0023
0.853,-0.0019
0.854,-0.0039
0.855,-0.0043
0.856,-0.0017
0.857,-0.0063
0.858,-0.003
0.859,-0.0036
0.86,-0.0063
0.861,-0.005
0.862,-0.0008
0.863,0.0019
0.864,0.0052
0.865,0.0056
0.866,0.0045
0.867,0.005
0.868,0.0039
0.869,0.0094
0.87,0.0025
0.871,0.0052
0.872,0.0127
0.873,-0.0025
0.874,-0.0047
0.875,-0.0027
0.876,-0.0045
0.877,-0.0028
0.878,-0.0103
0.879,-0.0063
0.88,-0.0028
0.881,-0.0017
0.882,0.0012
0.883,0.0039
0.884,-0.0001
0.885,0.0021
0.886,0.0016
0.887,-0.0028
0.888,-0.0012
0.889,-0.0008
0.89,-0.0012
0.891,-0.0032
0.892,-0.0021
0.893,-0.0017
0.894,-0.0016
0.895,-0.0008
0.896,-0.0048
0.897,-0.0032
0.898,-0.0008
0.899,0.0023
0.9,0.0027
0.901,0.0069
0.902,0.0017
0.903,0.0036
0.904,0.0017
0.905,-0.001
0.906,-0.0006
0.907,-0.001
0.908,-0.0014
0.909,-0.0017
0.91,0.0001
0.911,-0.0039
0.912,-0.0034
0.913,-0.0047
0.914,-0.0005
0.915,-0.001
0.916,0.0023
0.917,0.001
0.918,0.0028
0.919,-0.001
0.92,0.0065
0.921,0.019
0.922,0.0107
0.923,0.0003
0.924,-0.0065
0.925,-0.003
0.926,-0.0063
0.927,-0.0034
0.928,-0.0006
0.929,-0.0014
0.93,-0.0052
0.931,-0.0034
0.932,-0.0003
0.933,0.0014
0.934,0.001
0.935,0.0006
0.936,0.0017
0.937,0.0006
0.938,-0.0005
0.939,-0.0012
0.94,-0.003
0.941,0.001
0.942,0.0027
0.943,-0.0048
0.944,-0.0016
0.945,-0.0025
0.946,-0.0034
0.947,-0.001
0.948,-0.0003
0.949,-0.0021
0.95,-0.0003
0.951,0.0014
0.952,0.0001
0.953,0.0014
0.954,-0.0014
0.955,0.0028
0.956,0.0001
0.957,-0.0032
0.958,-0.0045
0.959,-0.0006
0.96,-0.003
0.961,-0.0061
0.962,0.0001
0.963,0.0028
0.964,0.0005
0.965,-0.0048
0.966,0.0027
0.967,0.0036
0.968,0.0027
0.969,0.0021
0.97,-0.0019
0.971,0.0082
0.972,0.0014
0.973,0.0149
0.974,0.0168
0.975,0.0118
0.976,0.0014
0.977,-0.0027
0.978,-0.0087
0.979,-0.0076
0.98,-0.0047
0.981,-0.0019
0.982,-0.0076
0.983,-0.0054
0.984,0.0008
0.985,0.0001
0.986,-0.0021
0.987,-0.0016
0.988,-0.0034
0.989,-0.0017
0.99,-0.0014
0.991,-0.0036
0.992,-0.0032
0.993,-0.0014
0.994,-0.0047
0.995,-0.0019
0.996,0.0038
0.997,0.003
0.998,0.0023
0.999,0.0028
1,-0.0003
1.001,-0.0008
1.002,0.0016
1.003,0.0019
1.004,0.0016
1.005,-0.0003
1.006,0.003
1.007,0.0034
1.008,-0.0008
1.009,0.003
1.01,0.0027
1.011,0.0014
1.012,-0.0048
1.013,-0.0058
1.014,-0.0001
1.015,-0.0023
1.016,-0.0017
1.017,-0.0012
1.018,0.0005
1.019,0.0001
1.02,-0.0037
1.021,-0.0041
1.022,-0.0003
1.023,0.003
1.024,0.0061
1.025,0.0124
1.026,0.0151
1.027,0.0043
1.028,-0.0032
1.029,-0.0045
1.03,-0.0056
1.031,0.0001
1.032,-0.0008
1.033,0.0038
1.034,0.003
1.035,0.0008
1.036,-0.001
1.037,-0.0041
1.038,-0.008
1.039,-0.0067
1.04,-0.0036
1.041,-0.0025
1.042,0.0001
1.043,-0.0017
1.044,-0.0045
1.045,-0.0019
1.046,0.0028
1.047,0.001
1.048,0.0016
1.049,0.0039
1.05,0.0061
1.051,0.0082
1.052,0.0025
1.053,-0.0016
1.054,-0.0054
1.055,-0.0048
1.056,-0.0043
1.057,-0.0005
1.058,-0.0017
1.059,-0.003
1.06,-0.001
1.061,-0.0006
1.062,-0.0054
1.063,-0.0036
1.064,0.0003
1.065,0.0058
1.066,0.0127
1.067,0.0063
1.068,0.0023
1.069,-0.003
1.07,-0.0025
1.071,-0.0001
1.072,-0.0032
1.073,0.0041
1.074,0.005
1.075,-0.0052
1.076,0.0071
1.077,0.0021
1.078,-0.0023
1.079,-0.001
1.08,0.0001
1.081,0.0012
1.082,0.0021
1.083,-0.0006
1.084,0.0017
1.085,-0.0052
1.086,-0.0061
1.087,-0.0085
1.088,-0.0047
1.089,-0.0014
1.09,0.0005
1.091,0.0078
1.092,-0.0054
1.093,0.0001
1.094,-0.0016
1.095,-0.003
1.096,0.001
1.097,0.0045
1.098,0.0012
1.099,0.0003
1.1,-0.0043
1.101,-0.0003
1.102,-0.0025
1.103,-0.0019
1.104,-0.0025
1.105,-0.0019
1.106,-0.0023
1.107,-0.0019
1.108,0.0008
1.109,0.005
1.11,0.0023
1.111,-0.0032
1.112,-0.0025
1.113,0.0008
1.114,0.0027
1.115,0.0021
1.116,-0.0012
1.117,0.001
1.118,0.0038
1.119,-0.0005
1.12,0.0012
1.121,-0.0034
1.122,-0.0016
1.123,-0.0047
1.124,0.0038
1.125,0.0027
1.126,0.0129
1.127,-0.0048
1.128,-0.012
1.129,0.0034
1.13,-0.0027
1.131,0.0028
1.132,0.0111
1.133,0.0036
1.134,-0.0005
1.135,0.0006
1.136,-0.0027
1.137,-0.0076
1.138,-0.003
1.139,-0.0054
1.14,-0.0032
1.141,-0.005
1.142,-0.0045
1.143,-0.0072
1.144,-0.0059
1.145,-0.0047
1.146,-0.0036
1.147,-0.0039
1.148,0.0008
1.149,0.0039
1.15,0.0023
1.151,0.0047
1.152,0.0043
1.153,0.0032
1.154,-0.0017
1.155,0.0001
1.156,-0.0005
1.157,-0.0043
1.158,0.0023
1.159,-0.0023
1.16,-0.0016
1.161,-0.0037
1.162,-0.0005
1.163,-0.001
1.164,0.0006
1.165,-0.0006
1.166,-0.0019
1.167,0.0001
1.168,-0.0003
1.169,0.0045
1.17,-0.0025
1.171,-0.0034
1.172,-0.001
1.173,-0.003
1.174,0.0008
1.175,0.0083
1.176,0.0113
1.177,0.0049
1.178,0.0041
1.179,0.0003
1.18,0.0105
1.181,0.0149
1.182,0.0054
1.183,-0.0006
1.184,0.0027
1.185,-0.0003
1.186,-0.0012
1.187,-0.0052
1.188,-0.0045
1.189,-0.0012
1.19,0.0019
1.191,0.0003
1.192,-0.003
1.193,-0.0052
1.194,-0.0014
1.195,-0.0017
1.196,-0.0014
1.197,-0.0025
1.198,-0.0006
1.199,0.0049
1.2,-0.0005
1.201,-0.001
1.202,-0.0041
1.203,-0.0003
1.204,-0.0048
1.205,-0.0005
1.206,-0.0021
1.207,-0.0034
1.208,-0.0012
1.209,0.0016
1.21,-0.0019
1.211,-0.0016
1.212,-0.0005
1.213,0.0014
1.214,0.0032
1.215,0.0039
1.216,0.0038
1.217,0.0019
1.218,0.0005
1.219,0.0016
1.22,-0.0014
1.221,0.0025
1.222,-0.005
1.223,-0.0017
1.224,-0.0008
1.225,-0.0037
1.226,0.0102
1.227,0.0082
1.228,0.0063
1.229,0.008
1.23,-0.0056
1.231,0.0036
1.232,0.0052
1.233,0.0038
1.234,-0.0003
1.235,-0.0014
1.236,0.0019
1.237,-0.003
1.238,-0.0003
1.239,-0.0027
1.24,-0.0048
1.241,0.0054
1.242,0.001
1.243,-0.0003
1.244,-0.0037
1.245,-0.0027
1.246,0.0003
1.247,0.003
1.248,0.0006
1.249,-0.0016
1.25,-0.0034
1.251,0.001
1.252,0.0016
1.253,0.0003
1.254,0.0016
1.255,0.0005
1.256,-0.0037
1.257,-0.0032
1.258,-0.0045
1.259,0.0006
1.26,-0.0039
1.261,-0.0058
1.262,-0.0041
1.263,-0.0065
1.264,-0.0005
1.265,0.0003
1.266,-0.0005
1.267,0.0001
1.268,0.0006
1.269,0.0045
1.27,0.0012
1.271,-0.001
1.272,-0.003
1.273,-0.0005
1.274,0.0014
1.275,0.0014
1.276,0.0016
1.277,0.0034
1.278,-0.0006
1.279,0.001
1.28,0.0085
1.281,0.0074
1.282,0.0045
1.283,-0.0039
1.284,0.0063
1.285,0.005
1.286,0.0016
1.287,-0.0041
1.288,-0.0032
1.289,-0.0023
1.29,0.0001
1.291,0.0023
1.292,0.0041
1.293,0.001
1.294,0.0027
1.295,-0.0006
1.296,-0.0028
1.297,-0.0017
1.298,-0.0006
1.299,-0.001
1.3,0.0005
1.301,0.0012
1.302,0.0052
1.303,0.0025
1.304,0.0038
1.305,0.0034
1.306,0.003
1.307,0.0005
1.308,0.0016
1.309,0.0008
1.31,-0.0023
1.311,0.0023
1.312,0.0005
1.313,-0.0012
1.314,0.0001
1.315,-0.0003
1.316,-0.0023
1.317,-0.0005
1.318,0.0006
1.319,-0.0014
1.32,-0.0056
1.321,-0.0113
1.322,-0.0043
1.323,0.0021
1.324,0.0014
1.325,-0.0025
1.326,-0.0001
1.327,0.0005
1.328,0.0023
1.329,-0.0039
1.33,0.0052
1.331,0.0087
1.332,0.003
1.333,0.006
1.334,0.0069
1.335,0.0028
1.336,0.0006
1.337,-0.0027
1.338,-0.0083
1.339,-0.0014
1.34,0.0014
1.341,0.0021
1.342,-0.0017
1.343,-0.0063
1.344,-0.0019
1.345,-0.0058
1.346,-0.0034
1.347,0.0008
1.348,0.0003
1.349,0.0027
1.35,-0.0005
1.351,-0.0008
1.352,-0.0027
1.353,-0.0008
1.354,-0.0036
1.355,-0.0001
1.356,-0.0023
1.357,0.0016
1.358,-0.0039
1.359,-0.0047
1.36,-0.0001
1.361,0.0005
1.362,-0.0058
1.363,-0.0001
1.364,0.0038
1.365,0.0032
1.366,0.0027
1.367,0.0021
1.368,0.0017
1.369,-0.0005
1.37,-0.0008
1.371,-0.0027
1.372,-0.0008
1.373,-0.0016
1.374,-0.0014
1.375,-0.0016
1.376,-0.0037
1.377,-0.0037
1.378,-0.0001
1.379,0.0074
1.38,0.0085
1.381,0.0177
1.382,0.0116
1.383,0.0083
1.384,0.0014
1.385,-0.0032
1.386,-0.0025
1.387,-0.0032
1.388,-0.0065
1.389,-0.0021
1.39,-0.0005
1.391,-0.0017
1.392,-0.0059
1.393,-0.0032
1.394,0.0001
1.395,-0.005
1.396,-0.0017
1.397,0.0052
1.398,0.0025
1.399,0.0049
1.4,0.0087
1.401,0.0105
1.402,0.0162
1.403,0.0201
1.404,0.0155
1.405,0.0199
1.406,0.0215
1.407,0.029
1.408,0.0323
1.409,0.0294
1.41,0.023
1.411,0.0155
1.412,0.0003
1.413,0.0025
1.414,0.0085
1.415,0.003
1.416,-0.0153
1.417,-0.0321
1.418,-0.0475
1.419,-0.0576
1.42,-0.0704
1.421,-0.072
1.422,-0.0616
1.423,-0.0439
1.424,-0.0415
1.425,-0.0525
1.426,-0.0585
1.427,-0.0786
1.428,-0.0946
1.429,-0.1132
1.43,-0.1109
1.431,-0.144
1.432,-0.1392
1.433,-0.1521
1.434,-0.1482
1.435,-0.1376
1.436,-0.1151
1.437,-0.0944
1.438,-0.0541
1.439,0.0094
1.44,0.1365
1.441,0.1911
1.442,0.2076
1.443,0.2226
1.444,0.209
1.445,0.1717
1.446,0.1605
1.447,0.1297
1.448,0.1204
1.449,0.0951
1.45,0.1028
1.451,0.1237
1.452,0.1426
1.453,0.1598
1.454,0.1546
1.455,0.1404
1.456,0.1275
1.457,0.1079
1.458,0.0973
1.459,0.1004
1.46,0.0737
1.461,0.0272
1.462,0.0083
1.463,0.0027
1.464,-0.0025
1.465,-0.0072
1.466,-0.02
1.467,-0.0239
1.468,-0.0345
1.469,-0.044
1.47,-0.0528
1.471,-0.0607
1.472,-0.0536
1.473,-0.0601
1.474,-0.0702
1.475,-0.0757
1.476,-0.0708
1.477,-0.0693
1.478,-0.0625
1.479,-0.0682
1.48,-0.0598
1.481,-0.0631
1.482,-0.068
1.483,-0.0671
1.484,-0.0579
1.485,-0.0614
1.486,-0.0647
1.487,-0.0717
1.488,-0.0671
1.489,-0.0631
1.49,-0.0547
1.491,-0.0514
1.492,-0.0444
1.493,-0.0435
1.494,-0.0411
1.495,-0.031
1.496,-0.0298
1.497,-0.0237
1.498,-0.018
1.499,-0.0131
1.5,-0.0067
1.501,-0.0059
1.502,-0.0021
1.503,-0.0003
1.504,0.0003
1.505,-0.0014
1.506,-0.0001
1.507,0.0021
1.508,0.0067
1.509,0.0023
1.51,0.0085
1.511,0.0028
1.512,0.005
1.513,0.0069
1.514,0.0074
1.515,0.0113
1.516,0.008
1.517,0.0149
1.518,0.012
1.519,0.0129
1.52,0.0105
1.521,0.0083
1.522,0.0102
1.523,0.0083
1.524,0.0032
1.525,0.005
1.526,0.012
1.527,0.0147
1.528,0.0124
1.529,0.0071
1.53,0.0087
1.531,0.0105
1.532,0.0162
1.533,0.0061
1.534,0.0266
1.535,0.0118
1.536,0.0144
1.537,0.0072
1.538,0.005
1.539,0.003
1.54,0.0012
1.541,-0.0037
1.542,0.0038
1.543,0.0025
1.544,0.0014
1.545,-0.0043
1.546,-0.0034
1.547,0.0012
1.548,0.0052
1.549,0.0074
1.55,0.0093
1.551,0.0036
1.552,0.0043
1.553,0.0049
1.554,-0.0021
1.555,-0.0012
1.556,-0.0036
1.557,-0.0028
1.558,0.0017
1.559,0.0012
1.56,0.0017
1.561,0.0083
1.562,0.0074
1.563,0.0017
1.564,0.001
1.565,0.0028
1.566,0.0023
1.567,0.0028
1.568,0.0052
1.569,0.0049
1.57,0.0028
1.571,-0.0028
1.572,-0.0036
1.573,0.0003
1.574,0.0008
1.575,-0.001
1.576,-0.0027
1.577,0.0019
1.578,-0.0076
1.579,-0.0089
1.58,0.0023
1.581,0.0102
1.582,0.0177
1.583,0.0054
1.584,-0.0028
1.585,-0.0014
1.586,0.0082
1.587,-0.0003
1.588,0.0054
1.589,0.0124
1.59,0.0133
1.591,0.0008
1.592,-0.001
1.593,-0.0027
1.594,-0.0041
1.595,-0.0028
1.596,-0.0039
1.597,-0.0006
1.598,-0.0036
1.599,-0.0045
1.6,0.0012
1.601,0.0005
1.602,-0.0014
1.603,-0.0032
1.604,-0.0027
1.605,0.0006
1.606,-0.0025
1.607,-0.0021
1.608,-0.0032
1.609,-0.0014
1.61,0.0014
1.611,-0.0012
1.612,-0.0016
1.613,-0.0001
1.614,0.0012
1.615,-0.0001
1.616,-0.0006
1.617,0.0014
1.618,0.0038
1.619,0.0058
1.62,0.0016
1.621,-0.0054
1.622,-0.0045
1.623,0.0012
1.624,-0.001
1.625,-0.0005
1.626,-0.0023
1.627,-0.0028
1.628,-0.0016
1.629,-0.0076
1.63,-0.01
1.631,0.0016
1.632,0.0036
1.633,0.0085
1.634,0.019
1.635,0.0202
1.636,0.0142
1.637,0.0017
1.638,-0.0032
1.639,-0.0076
1.64,-0.0008
1.641,-0.0069
1.642,-0.0058
1.643,-0.0048
1.644,0.0016
1.645,-0.0092
1.646,-0.0107
1.647,-0.0039
1.648,-0.0005
1.649,-0.0037
1.65,-0.0008
1.651,0.0019
1.652,0.0094
1.653,0.0085
1.654,0.0001
1.655,-0.0056
1.656,-0.0027
1.657,-0.0017
1.658,0.0039
1.659,0.0017
1.66,-0.0028
1.661,-0.0072
1.662,-0.0034
1.663,-0.0001
1.664,-0.0032
1.665,-0.0028
1.666,0.0028
1.667,0.0103
1.668,0.0074
1.669,0.0028
1.67,0.0021
1.671,-0.0032
1.672,-0.0027
1.673,-0.0045
1.674,-0.0017
1.675,-0.0041
1.676,-0.0045
1.677,-0.0034
1.678,-0.0045
1.679,-0.0034
1.68,-0.0001
1.681,-0.0014
1.682,0.0014
1.683,-0.0001
1.684,0.0003
1.685,0.0058
1.686,0.0158
1.687,0.0146
1.688,0.0061
1.689,0.0005
1.69,0.0014
1.691,-0.0014
1.692,-0.0006
1.693,-0.0014
1.694,0.0005
1.695,-0.0014
1.696,0.0003
1.697,0.0006
1.698,0.0049
1.699,0.001
1.7,0.0056
1.701,0.0038
1.702,0.0032
1.703,-0.0001
1.704,-0.0014
1.705,-0.0034
1.706,-0.0023
1.707,-0.0012
1.708,-0.0005
1.709,-0.0003
1.71,0.0038
1.711,-0.0014
1.712,-0.0089
1.713,-0.0059
1.714,0.0005
1.715,-0.0019
1.716,0.005
1.717,0.0078
1.718,0.0038
1.719,-0.0016
1.72,-0.0021
1.721,-0.0003
1.722,0.0003
1.723,-0.0021
1.724,-0.0043
1.725,-0.0054
1.726,-0.0072
1.727,-0.0025
1.728,0.0032
1.729,0.001
1.73,-0.0036
1.731,-0.0041
1.732,-0.0025
1.733,0.005
1.734,0.0043
1.735,0.001
1.736,0.0162
1.737,0.0052
1.738,0.0072
1.739,0.0017
1.74,-0.0098
1.741,-0.0054
1.742,-0.0041
1.743,-0.0052
1.744,0.0072
1.745,0.0023
1.746,0.0008
1.747,0.0076
1.748,0.0016
1.749,-0.0041
1.75,-0.0032
1.751,-0.0023
1.752,-0.0016
1.753,-0.0008
1.754,-0.0041
1.755,-0.0036
1.756,-0.0019
1.757,-0.0052
1.758,-0.0065
1.759,-0.0027
1.76,-0.0014
1.761,-0.0056
1.762,0.0028
1.763,0.0039
1.764,0.0028
1.765,0.0038
1.766,0.001
1.767,0.0034
1.768,0.0041
1.769,0.0131
1.77,0.0047
1.771,-0.0032
1.772,-0.0023
1.773,-0.0032
1.774,-0.0025
1.775,-0.0017
1.776,-0.0023
1.777,-0.0054
1.778,-0.0037
1.779,-0.0025
1.78,-0.0003
1.781,0.0008
1.782,0.0012
1.783,-0.0014
1.784,0.0032
1.785,0.0036
1.786,-0.001
1.787,0.0021
1.788,-0.0063
1.789,0.0122
1.79,0.0043
1.791,-0.0028
1.792,-0.0006
1.793,0.0014
1.794,0.0032
1.795,-0.0017
1.796,-0.0032
1.797,-0.0019
1.798,-0.0054
1.799,-0.0043
1.8,-0.0034
1.801,-0.0006
1.802,0.0069
1.803,0.0039
1.804,-0.0045
1.805,-0.0034
1.806,0.0016
1.807,-0.0012
1.808,-0.0036
1.809,0.0003
1.81,0.0008
1.811,-0.0048
1.812,-0.007
1.813,-0.0052
1.814,-0.0021
1.815,-0.0048
1.816,-0.0016
1.817,0.0054
1.818,0.0063
1.819,-0.0001
1.82,0.0006
1.821,-0.0016
1.822,0.0003
1.823,-0.0016
1.824,-0.0043
1.825,0.0003
1.826,-0.0016
1.827,-0.0032
1.828,-0.0028
1.829,-0.0016
1.83,-0.0005
1.831,0.003
1.832,0.0052
1.833,-0.001
1.834,-0.0019
1.835,0.0021
1.836,0.0006
1.837,-0.0001
1.838,0.0005
1.839,0.0023
1.84,0.0085
1.841,0.016
1.842,0.0131
1.843,0.001
1.844,-0.0006
1.845,-0.0021
1.846,-0.0008
1.847,-0.0043
1.848,-0.0032
1.849,-0.0061
1.85,-0.0052
1.851,-0.0012
1.852,-0.0005
1.853,-0.001
1.854,0.0085
1.855,0.0017
1.856,0.0006
1.857,-0.005
1.858,-0.0041
1.859,-0.0087
1.86,-0.0063
1.861,-0.0041
1.862,-0.0036
1.863,-0.0017
1.864,0.001
1.865,0.0006
1.866,0.0038
1.867,0.0034
1.868,0.006
1.869,0.0019
1.87,0.0016
1.871,0.0003
1.872,-0.0001
1.873,0.001
1.874,-0.0001
1.875,-0.0016
1.876,-0.0003
1.877,-0.0016
1.878,-0.0021
1.879,-0.0001
1.88,0.0006
1.881,-0.0008
1.882,-0.0014
1.883,-0.0023
1.884,0.0005
1.885,0.0023
1.886,0.0056
1.887,0.0065
1.888,0.0003
1.889,0.0067
1.89,0.0091
1.891,0.0098
1.892,0.0008
1.893,0.0019
1.894,0.003
1.895,-0.0019
1.896,0.0008
1.897,0.0032
1.898,-0.0069
1.899,-0.0001
1.9,0.001
1.901,0.0043
1.902,0.0052
1.903,0.0043
1.904,-0.0048
1.905,0.0012
1.906,0.0001
1.907,-0.0028
1.908,-0.0037
1.909,-0.0014
1.91,0.0008
1.911,0.0003
1.912,-0.0054
1.913,-0.0092
1.914,-0.0017
1.915,-0.0047
1.916,-0.0019
1.917,-0.0012
1.918,0.0072
1.919,0.0061
1.92,0.0012
1.921,-0.0016
1.922,0.0008
1.923,0.0016
1.924,-0.0059
1.925,-0.003
1.926,-0.0003
1.927,-0.0027
1.928,-0.0034
1.929,-0.0052
1.93,-0.0008
1.931,0.0076
1.932,0.0065
1.933,0.0032
1.934,0.0003
1.935,-0.0025
1.936,-0.0032
1.937,-0.0039
1.938,0.0006
1.939,0.0069
1.94,0.0144
1.941,0.0012
1.942,0.0103
1.943,0.0153
1.944,0.0049
1.945,-0.0019
1.946,-0.003
1.947,-0.0041
1.948,0.005
1.949,-0.001
1.95,0.0023
1.951,-0.0027
1.952,-0.0036
1.953,-0.0028
1.954,-0.0036
1.955,-0.0069
1.956,-0.0063
1.957,-0.0047
1.958,0.0008
1.959,0.0001
1.96,0.0034
1.961,0.0052
1.962,0.0014
1.963,-0.001
1.964,-0.0006
1.965,0.0014
1.966,-0.0012
1.967,-0.0008
1.968,-0.0001
1.969,0.0001
1.97,0.0041
1.971,-0.001
1.972,-0.0016
1.973,-0.001
1.974,-0.0037
1.975,-0.0092
1.976,0.0008
1.977,0.0021
1.978,-0.0014
1.979,-0.0003
1.98,0.0006
1.981,0.0016
1.982,0.0039
1.983,0.0047
1.984,0.0052
1.985,0.0034
1.986,-0.0028
1.987,-0.0069
1.988,-0.0047
1.989,-0.0059
1.99,-0.0041
1.991,0.0054
1.992,0.0014
1.993,0.0149
1.994,0.0058
1.995,-0.0058
1.996,-0.0043
1.997,-0.003
1.998,0.003
1.999,0.0063
2,-0.0006
2.001,-0.0016
2.002,0.0008
2.003,-0.0014
2.004,-0.0059
2.005,-0.0041
2.006,-0.0036
2.007,-0.0039
2.008,0.0003
2.009,-0.0059
2.01,-0.0067
2.011,0.0003
2.012,0.0012
2.013,0.0019
2.014,0.0027
2.015,-0.0019
2.016,-0.0025
2.017,0.0003
2.018,-0.001
2.019,-0.0006
2.02,0.0039
2.021,0.0058
2.022,0.0041
2.023,-0.0005
2.024,-0.0023
2.025,0.0061
2.026,0.0027
2.027,-0.0006
2.028,-0.0036
2.029,-0.0027
2.03,-0.0034
2.031,-0.0012
2.032,-0.0006
2.033,-0.0025
2.034,0.0003
2.035,-0.001
2.036,0.0003
2.037,0.0065
2.038,0.0019
2.039,-0.0037
2.04,-0.003
2.041,-0.0008
2.042,0.0025
2.043,0.0019
2.044,0.0103
2.045,0.0093
2.046,-0.001
2.047,0.0058
2.048,-0.0003
2.049,0.0008
2.05,0.0038
2.051,0.0083
2.052,0.0043
2.053,0.0021
2.054,-0.0025
2.055,-0.0081
2.056,-0.0074
2.057,-0.0041
2.058,0.0003
2.059,-0.0014
2.06,-0.0047
2.061,-0.0025
2.062,0.0003
2.063,0.0006
2.064,0.0039
2.065,0.005
2.066,0.0025
2.067,0.0058
2.068,0.0012
2.069,-0.0019
2.07,0.0008
2.071,-0.0016
2.072,-0.0012
2.073,-0.0067
2.074,-0.0045
2.075,-0.0147
2.076,-0.0043
2.077,0.0025
2.078,0.0036
2.079,-0.0067
2.08,-0.0054
2.081,-0.0043
2.082,0.0014
2.083,-0.0016
2.084,-0.0025
2.085,-0.0032
2.086,-0.001
2.087,-0.0005
2.088,0.0039
2.089,0.0045
2.09,0.0032
2.091,0.0006
2.092,0.0003
2.093,0.0065
2.094,0.0038
2.095,-0.0019
2.096,0.0065
2.097,-0.0083
2.098,-0.0063
2.099,0.0028
2.1,-0.0021
2.101,0.0083
2.102,0.0071
2.103,0.0036
2.104,0.0003
2.105,-0.0047
2.106,-0.0037
2.107,-0.0061
2.108,-0.0023
2.109,-0.0017
2.11,-0.0012
2.111,-0.0006
2.112,-0.0072
2.113,-0.0045
2.114,-0.0037
2.115,-0.0059
2.116,-0.0065
2.117,0.003
2.118,0.0125
2.119,0.0041
2.12,0.0074
2.121,0.0045
2.122,-0.0019
2.123,-0.0043
2.124,0.001
2.125,-0.0023
2.126,-0.0017
2.127,-0.0056
2.128,-0.001
2.129,-0.0041
2.13,-0.0003
2.131,-0.0027
2.132,-0.0005
2.133,-0.0001
2.134,0.0017
2.135,-0.0016
2.136,-0.0005
2.137,-0.0016
2.138,-0.0034
2.139,-0.0036
2.14,-0.001
2.141,-0.005
2.142,-0.0008
2.143,-0.0005
2.144,0.0017
2.145,-0.001
2.146,0.0047
2.147,0.0122
2.148,0.0113
2.149,0.0028
2.15,0.0017
2.151,0.0047
2.152,0.0001
2.153,0.0025
2.154,-0.0059
2.155,-0.0092
2.156,-0.0083
2.157,-0.0056
2.158,-0.0048
2.159,-0.0027
2.16,0.0049
2.161,0.0019
2.162,-0.0045
2.163,-0.0021
2.164,0.0063
2.165,0.0074
2.166,-0.0017
2.167,0.0017
2.168,0.0006
2.169,0.0016
2.17,0.0025
2.171,-0.005
2.172,-0.0001
2.173,0.0027
2.174,-0.0014
2.175,-0.0021
2.176,-0.0027
2.177,-0.0021
2.178,-0.0059
2.179,-0.0056
2.18,-0.0059
2.181,0.0003
2.182,0.003
2.183,0.0006
2.184,-0.0016
2.185,0.0017
2.186,0.0023
2.187,-0.0028
2.188,-0.0061
2.189,-0.0092
2.19,-0.0098
2.191,-0.0043
2.192,-0.0005
2.193,0.0028
2.194,0.001
2.195,0.0105
2.196,-0.0045
2.197,0.0096
2.198,0.0114
2.199,-0.0001
2.2,0.0014
2.201,0.0027
2.202,0.0038
2.203,0.0027
2.204,-0.0003
2.205,-0.0012
2.206,0.0012
2.207,-0.001
2.208,-0.0043
2.209,-0.0012
2.21,-0.005
2.211,-0.0027
2.212,-0.0078
2.213,-0.0072
2.214,-0.0028
2.215,-0.0001
2.216,0.0032
2.217,0.001
2.218,-0.0017
2.219,0.0008
2.22,0.0049
2.221,0.0016
2.222,-0.0036
2.223,0.001
2.224,-0.0047
2.225,0.0069
2.226,0.0019
2.227,-0.0056
2.228,-0.0043
2.229,-0.0008
2.23,-0.0019
2.231,-0.0048
2.232,-0.0003
2.233,0.0021
2.234,0.0043
2.235,-0.0003
2.236,0.0016
2.237,-0.0058
2.238,-0.0028
2.239,0.0017
2.24,-0.0023
2.241,-0.0001
2.242,-0.0034
2.243,-0.0052
2.244,-0.0016
2.245,0.0012
2.246,0.0045
2.247,0.0076
2.248,0.0138
2.249,0.0184
2.25,0.0076
2.251,0.0091
2.252,0.0023
2.253,0.0012
2.254,-0.0067
2.255,-0.0076
2.256,-0.0085
2.257,-0.0078
2.258,-0.0131
2.259,-0.0041
2.26,-0.0006
2.261,0.0005
2.262,-0.0005
2.263,0.006
2.264,0.0019
2.265,0.0027
2.266,0.0045
2.267,0.0039
2.268,0.0067
2.269,0.0113
2.27,0.0056
2.271,0.0034
2.272,0.0052
2.273,-0.0005
2.274,-0.0105
2.275,-0.0092
2.276,-0.0058
2.277,-0.0069
2.278,-0.0078
2.279,-0.0069
2.28,-0.0076
2.281,-0.0083
2.282,-0.0037
2.283,-0.0019
2.284,-0.0003
2.285,-0.0036
2.286,-0.0005
2.287,-0.0067
2.288,-0.0058
2.289,-0.0001
2.29,0.0006
2.291,0.0039
2.292,0.0021
2.293,-0.0006
2.294,0.0017
2.295,0.0006
2.296,0.001
2.297,0.0072
2.298,0.0063
2.299,0.0056
2.3,0.0109
2.301,0.0076
2.302,0.0019
2.303,-0.0019
2.304,-0.0025
2.305,-0.0069
2.306,-0.0041
2.307,-0.0054
2.308,0.0016
2.309,0.0045
2.31,-0.0001
2.311,0.0006
2.312,-0.0078
2.313,-0.0045
2.314,-0.0016
2.315,-0.0006
2.316,0.0001
2.317,0.0085
2.318,0.0052
2.319,0.0003
2.32,0.0087
2.321,-0.0037
2.322,-0.0021
2.323,-0.0036
2.324,0.0005
2.325,0.0016
2.326,-0.0063
2.327,-0.0034
2.328,-0.0006
2.329,-0.003
2.33,-0.0037
2.331,-0.0056
2.332,-0.0012
2.333,0.0005
2.334,0.0017
2.335,0.0014
2.336,0.0003
2.337,-0.0008
2.338,-0.0034
2.339,-0.0041
2.34,-0.0016
2.341,-0.0012
2.342,-0.001
2.343,0.0021
2.344,0.0001
2.345,-0.0003
2.346,-0.0023
2.347,0.0017
2.348,0.0093
2.349,0.0014
2.35,0.0005
2.351,0.0032
2.352,0.0072
2.353,0.008
2.354,0.0047
2.355,0.0041
2.356,0.0047
2.357,0.0014
2.358,0.0083
2.359,0.0113
2.36,0.0085
2.361,0.0078
2.362,0.0025
2.363,0.0127
2.364,0.0083
2.365,0.0124
2.366,0.0208
2.367,0.0265
2.368,0.0235
2.369,0.0263
2.37,0.027
2.371,0.0186
2.372,0.0107
2.373,0.0078
2.374,0.0087
2.375,0.0047
2.376,-0.0069
2.377,-0.0318
2.378,-0.0424
2.379,-0.0519
2.38,-0.0607
2.381,-0.0581
2.382,-0.051
2.383,-0.0356
2.384,-0.0296
2.385,-0.0351
2.386,-0.06
2.387,-0.0777
2.388,-0.0938
2.389,-0.1264
2.39,-0.1306
2.391,-0.1345
2.392,-0.1451
2.393,-0.1482
2.394,-0.1511
2.395,-0.1537
2.396,-0.1317
2.397,-0.118
2.398,-0.0794
2.399,-0.0111
2.4,0.1103
2.401,0.1931
2.402,0.2081
2.403,0.2217
2.404,0.2092
2.405,0.1755
2.406,0.1447
2.407,0.1354
2.408,0.127
2.409,0.1039
2.41,0.1248
2.411,0.131
2.412,0.1482
2.413,0.1638
2.414,0.159
2.415,0.1462
2.416,0.1266
2.417,0.1089
2.418,0.112
2.419,0.0971
2.42,0.0622
2.421,0.0288
2.422,0.0072
2.423,0.0034
2.424,0.0069
2.425,0.0038
2.426,-0.0169
2.427,-0.0248
2.428,-0.0319
2.429,-0.0385
2.43,-0.0486
2.431,-0.0468
2.432,-0.0418
2.433,-0.0523
2.434,-0.059
2.435,-0.0625
2.436,-0.0658
2.437,-0.0649
2.438,-0.0658
2.439,-0.0666
2.44,-0.0658
2.441,-0.072
2.442,-0.0697
2.443,-0.0735
2.444,-0.0689
2.445,-0.0759
2.446,-0.0786
2.447,-0.0763
2.448,-0.0697
2.449,-0.0644
2.45,-0.0541
2.451,-0.0345
2.452,-0.0266
2.453,-0.029
2.454,-0.04
2.455,-0.034
2.456,-0.0321
2.457,-0.0272
2.458,-0.0168
2.459,-0.018
2.46,-0.012
2.461,-0.0063
2.462,-0.0072
2.463,-0.0045
2.464,-0.0037
2.465,-0.0045
2.466,-0.0027
2.467,0.0056
2.468,0.0067
2.469,0.0058
2.47,0.0067
2.471,0.0027
2.472,0.0019
2.473,0.0052
2.474,0.0047
2.475,0.0098
2.476,0.0173
2.477,0.0164
2.478,0.0136
2.479,0.0113
2.48,0.0151
2.481,0.0105
2.482,0.0111
2.483,0.0116
2.484,0.012
2.485,0.0098
2.486,0.0125
2.487,0.0076
2.488,0.0071
2.489,0.0076
2.49,0.0093
2.491,0.0105
2.492,0.0118
2.493,0.0091
2.494,0.0102
2.495,0.0105
2.496,0.0072
2.497,0.0021
2.498,0.0067
2.499,0.0036
2.5,0.0067
2.501,0.014
2.502,0.0091
2.503,0.01
2.504,0.0175
2.505,0.0023
2.506,-0.0087
2.507,0.0014
2.508,0.0032
2.509,-0.0017
2.51,0.0027
2.511,0.0067
2.512,0.0032
2.513,0.0021
2.514,0.003
2.515,0.0039
2.516,0.0016
2.517,0.0023
2.518,0.0056
2.519,0.0113
2.52,0.0028
2.521,-0.0074
2.522,-0.0061
2.523,-0.0027
2.524,0.003
2.525,0.0001
2.526,-0.0008
2.527,-0.0001
2.528,0.0021
2.529,-0.0054
2.53,-0.0025
2.531,0.0003
2.532,-0.0037
2.533,-0.0016
2.534,0.0047
2.535,0.0039
2.536,0.0017
2.537,-0.0028
2.538,-0.001
2.539,0.0063
2.54,-0.0006
2.541,-0.0034
2.542,0.0041
2.543,0.0032
2.544,0.0005
2.545,0.0028
2.546,-0.001
2.547,-0.0028
2.548,0.0003
2.549,-0.0048
2.55,-0.0001
2.551,-0.0034
2.552,0.0061
2.553,0.0074
2.554,0.0158
2.555,0.0125
2.556,0.0014
2.557,-0.003
2.558,-0.0017
2.559,-0.0006
2.56,0.0027
2.561,0.0036
2.562,-0.001
2.563,-0.005
2.564,0.0003
2.565,0.0105
2.566,0.003
2.567,-0.001
2.568,0.0025
2.569,0.0014
2.57,-0.0016
2.571,-0.0006
2.572,-0.0047
2.573,-0.0025
2.574,-0.003
2.575,-0.0025
2.576,-0.0019
2.577,-0.0032
2.578,0.001
2.579,-0.0006
2.58,-0.0052
2.581,-0.0008
2.582,0.0019
2.583,-0.0014
2.584,-0.0001
2.585,0.0045
2.586,0.0001
2.587,0.0085
2.588,0.0025
2.589,-0.0032
2.59,-0.0023
2.591,-0.005
2.592,-0.0043
2.593,-0.0036
2.594,0.001
2.595,-0.0059
2.596,-0.005
2.597,0.0025
2.598,0.0074
2.599,0.0047
2.6,-0.001
2.601,0.0006
2.602,0.0014
2.603,0.0116
2.604,0.0041
2.605,-0.0054
2.606,0.0058
2.607,0.0014
2.608,-0.0136
2.609,0.0005
2.61,-0.0014
2.611,-0.003
2.612,-0.0045
2.613,-0.0032
2.614,0.0052
2.615,0.0063
2.616,-0.0006
2.617,0.0003
2.618,-0.0005
2.619,-0.0027
2.62,-0.0032
2.621,-0.0014
2.622,-0.0041
2.623,-0.0028
2.624,-0.0006
2.625,-0.0061
2.626,-0.0054
2.627,-0.0021
2.628,0.001
2.629,-0.0017
2.63,-0.0021
2.631,-0.0034
2.632,-0.0006
2.633,0.0005
2.634,0.0023
2.635,0.0003
2.636,0.0005
2.637,-0.0003
2.638,-0.0008
2.639,0.0025
2.64,0.0003
2.641,-0.0017
2.642,-0.0006
2.643,-0.0003
2.644,-0.0023
2.645,-0.001
2.646,-0.0039
2.647,-0.0028
2.648,-0.0017
2.649,0.0028
2.65,0.0074
2.651,0.008
2.652,0.0043
2.653,-0.0008
2.654,0.0094
2.655,0.005
2.656,0.001
2.657,0.0094
2.658,0.0061
2.659,0.0012
2.66,0.0021
2.661,-0.0019
2.662,0.0003
2.663,-0.0043
2.664,-0.0012
2.665,0.0072
2.666,0.0083
2.667,0.005
2.668,0.008
2.669,0.0089
2.67,0.0032
2.671,-0.0037
2.672,-0.0047
2.673,-0.0039
2.674,-0.0078
2.675,-0.0059
2.676,-0.0041
2.677,0.001
2.678,-0.0008
2.679,-0.0039
2.68,-0.0034
2.681,-0.0021
2.682,0.0001
2.683,0.0005
2.684,-0.0021
2.685,0.0019
2.686,0.0016
2.687,-0.0027
2.688,-0.001
2.689,0.0003
2.69,-0.0028
2.691,-0.0032
2.692,-0.0058
2.693,-0.0017
2.694,-0.0005
2.695,0.0008
2.696,0.0005
2.697,0.0016
2.698,0.0005
2.699,0.0006
2.7,0.0008
2.701,0.0027
2.702,-0.0008
2.703,-0.003
2.704,0.0003
2.705,0.0072
2.706,0.0043
2.707,-0.0003
2.708,0.0122
2.709,0.0067
2.71,-0.0048
2.711,-0.0034
2.712,-0.0047
2.713,-0.0036
2.714,-0.0025
2.715,-0.0016
2.716,-0.0006
2.717,0.0034
2.718,0.0041
2.719,-0.0005
2.72,0.0065
2.721,0.0001
2.722,-0.0023
2.723,-0.0016
2.724,-0.0034
2.725,-0.0039
2.726,-0.0012
2.727,-0.0045
2.728,-0.0041
2.729,-0.003
2.73,-0.0056
2.731,-0.0008
2.732,-0.0065
2.733,0.0036
2.734,0.0076
2.735,0.0041
2.736,0.0008
2.737,-0.0021
2.738,-0.003
2.739,-0.0006
2.74,0.0001
2.741,-0.0017
2.742,-0.0023
2.743,0.0039
2.744,0.0032
2.745,-0.0021
2.746,-0.0003
2.747,-0.0034
2.748,0.0005
2.749,0.0028
2.75,0.0041
2.751,0.0003
2.752,0.0058
2.753,0.0005
2.754,-0.003
2.755,-0.0036
2.756,0.0034
2.757,0.0006
2.758,0.0082
2.759,0.0072
2.76,-0.0067
2.761,-0.0006
2.762,-0.0025
2.763,-0.0074
2.764,-0.003
2.765,-0.0017
2.766,-0.0006
2.767,-0.0017
2.768,-0.0027
2.769,0.0001
2.77,0.0058
2.771,0.0019
2.772,-0.0027
2.773,-0.0032
2.774,-0.0005
2.775,-0.0001
2.776,0.003
2.777,-0.0032
2.778,-0.0023
2.779,-0.0016
2.78,0.0023
2.781,0.0005
2.782,-0.0027
2.783,-0.0043
2.784,-0.0019
2.785,-0.0016
2.786,0.0047
2.787,0.0131
2.788,-0.0017
2.789,-0.0078
2.79,-0.0059
2.791,-0.0043
2.792,-0.0058
2.793,-0.0017
2.794,-0.0028
2.795,-0.0061
2.796,-0.0052
2.797,0.0012
2.798,0.0036
2.799,0.0014
2.8,0.0047
2.801,0.0016
2.802,0.001
2.803,-0.0003
2.804,-0.0034
2.805,-0.0016
2.806,-0.0005
2.807,0.0021
2.808,0.0003
2.809,-0.0043
2.81,-0.0037
2.811,0.0058
2.812,0.0045
2.813,-0.0016
2.814,-0.0005
2.815,0.0065
2.816,-0.0037
2.817,0.0113
2.818,0.0052
2.819,-0.0003
2.82,0.0047
2.821,0.0003
2.822,-0.001
2.823,-0.0021
2.824,-0.001
2.825,-0.0001
2.826,-0.0028
2.827,-0.0005
2.828,-0.0012
2.829,-0.0058
2.83,-0.0027
2.831,-0.0043
2.832,0.0003
2.833,-0.0003
2.834,0.0025
2.835,0.0012
2.836,0.0008
2.837,-0.0003
2.838,0.0008
2.839,-0.0025
2.84,-0.007
2.841,-0.0052
2.842,-0.0047
2.843,-0.0014
2.844,-0.0027
2.845,0.0012
2.846,0.0008
2.847,-0.0005
2.848,-0.0032
2.849,0.0025
2.85,0.0032
2.851,0.0054
2.852,0.0072
2.853,0.0041
2.854,-0.0021
2.855,-0.0014
2.856,-0.0008
2.857,-0.0016
2.858,0.0087
2.859,0.0012
2.86,0.0052
2.861,0.0136
2.862,0.0125
2.863,-0.0027
2.864,-0.0005
2.865,-0.0065
2.866,-0.0083
2.867,-0.0034
2.868,-0.0048
2.869,-0.0036
2.87,0.0025
2.871,0.0014
2.872,-0.0016
2.873,-0.0006
2.874,0.0017
2.875,-0.0021
2.876,-0.0027
2.877,0.0005
2.878,0.001
2.879,-0.0014
2.88,-0.0027
2.881,0.0028
2.882,0.005
2.883,0.0032
2.884,0.0027
2.885,-0.0001
2.886,0.0003
2.887,-0.0019
2.888,-0.0065
2.889,-0.0021
2.89,-0.0005
2.891,-0.0001
2.892,-0.0023
2.893,-0.0019
2.894,-0.0045
2.895,-0.0034
2.896,-0.0061
2.897,-0.0036
2.898,-0.0069
2.899,-0.0006
2.9,0.0003
2.901,0.001
2.902,0.0017
2.903,-0.0001
2.904,0.0056
2.905,0.0017
2.906,-0.0016
2.907,0.0014
2.908,-0.0005
2.909,0.008
2.91,0.0045
2.911,-0.0058
2.912,0.0065
2.913,-0.0017
2.914,-0.0003
2.915,0.0093
2.916,0.0153
2.917,0.012
2.918,0.0149
2.919,0.0047
2.92,0.0006
2.921,-0.0028
2.922,-0.0039
2.923,-0.0069
2.924,-0.0005
2.925,-0.0028
2.926,-0.0021
2.927,-0.0039
2.928,-0.007
2.929,-0.0087
2.93,-0.0041
2.931,-0.0047
2.932,0.0005
2.933,-0.0014
2.934,0.0017
2.935,-0.001
2.936,0.0023
2.937,0.0001
2.938,-0.0027
2.939,0.0008
2.94,0.003
2.941,-0.0008
2.942,-0.0041
2.943,0.001
2.944,-0.0036
2.945,-0.008
2.946,-0.0074
2.947,-0.0008
2.948,0.0001
2.949,0.0025
2.95,0.0047
2.951,0.0052
2.952,0.0058
2.953,0.003
2.954,0.0017
2.955,-0.0014
2.956,-0.0025
2.957,0.0001
2.958,-0.0016
2.959,0.0025
2.96,0.0071
2.961,0.0027
2.962,0.0078
2.963,0.0003
2.964,-0.0067
2.965,-0.0003
2.966,0.0005
2.967,-0.0003
2.968,0.0003
2.969,0.0034
2.97,0.0039
2.971,-0.0006
2.972,-0.0025
2.973,-0.0008
2.974,-0.0032
2.975,-0.0054
2.976,-0.0027
2.977,-0.0008
2.978,-0.0048
2.979,-0.0036
2.98,-0.0014
2.981,-0.0003
2.982,0.0054
2.983,0.0047
2.984,0.0025
2.985,-0.0008
2.986,-0.0027
2.987,0.0025
2.988,0.0006
2.989,-0.0025
2.99,0.0014
2.991,-0.0019
2.992,-0.0032
2.993,-0.0005
2.994,-0.003
2.995,-0.0019
2.996,-0.0059
2.997,-0.0021
2.998,0.0025
2.999,-0.0006
3,0.0032
3.001,0.0056
3.002,-0.0005
3.003,-0.0012
3.004,-0.0005
3.005,0.0041
3.006,0.001
3.007,-0.0006
3.008,-0.003
3.009,0.0014
3.01,0.0001
3.011,0.0021
3.012,0.0025
3.013,0.0021
3.014,0.0036
3.015,0.0028
3.016,-0.0012
3.017,0.0072
3.018,0.0083
3.019,0.0005
3.02,-0.0005
3.021,-0.005
3.022,-0.0043
3.023,-0.0021
3.024,-0.0027
3.025,-0.0032
3.026,-0.0048
3.027,-0.0045
3.028,-0.0041
3.029,-0.0045
3.03,-0.0003
3.031,0.0036
3.032,0.0012
3.033,-0.0001
3.034,-0.0028
3.035,-0.0017
3.036,0.0038
3.037,0.003
3.038,-0.0016
3.039,-0.0047
3.04,-0.0019
3.041,-0.0052
3.042,-0.0021
3.043,0.0025
3.044,0.0006
3.045,0.0001
3.046,-0.0003
3.047,0.001
3.048,0.003
3.049,-0.0019
3.05,-0.0014
3.051,-0.0008
3.052,-0.0014
3.053,-0.0027
3.054,-0.0023
3.055,-0.005
3.056,-0.0047
3.057,0.0008
3.058,0.0047
3.059,-0.0043
3.06,-0.0001
3.061,-0.0012
3.062,-0.0001
3.063,0.0008
3.064,0.0036
3.065,0.0093
3.066,0.01
3.067,0.0038
3.068,0.0014
3.069,0.0036
3.07,-0.001
3.071,-0.0041
3.072,-0.0025
3.073,-0.0012
3.074,0.0001
3.075,-0.0037
3.076,-0.0014
3.077,-0.0045
3.078,-0.0006
3.079,-0.0039
3.08,-0.0017
3.081,-0.0056
3.082,-0.0023
3.083,-0.0001
3.084,0.0038
3.085,0.0014
3.086,0.0045
3.087,0.0017
3.088,-0.0017
3.089,-0.0014
3.09,0.0006
3.091,-0.0012
3.092,-0.0037
3.093,-0.0045
3.094,-0.0027
3.095,-0.0003
3.096,-0.001
3.097,-0.0047
3.098,-0.005
3.099,0.0001
3.1,0.0006
3.101,0.0001
3.102,-0.0016
3.103,0.0017
3.104,0.0005
3.105,0.0008
3.106,-0.0017
3.107,-0.0021
3.108,-0.0023
3.109,0.0014
3.11,0.001
3.111,0.0021
3.112,0.0043
3.113,0.0054
3.114,0.0028
3.115,0.0039
3.116,0.0085
3.117,0.016
3.118,0.0028
3.119,-0.0027
3.12,0.0023
3.121,-0.0021
3.122,-0.0008
3.123,0.0003
3.124,-0.0076
3.125,-0.0047
3.126,-0.0001
3.127,-0.0025
3.128,-0.0047
3.129,-0.0065
3.13,-0.0047
3.131,-0.0052
3.132,-0.0028
3.133,-0.0006
3.134,0.0014
3.135,0.0032
3.136,-0.0001
3.137,0.001
3.138,-0.0008
3.139,-0.0041
3.14,-0.0014
3.141,-0.0017
3.142,0.0001
3.143,-0.0014
3.144,0.0023
3.145,-0.0001
3.146,0.0003
3.147,-0.0052
3.148,-0.003
3.149,0.0032
3.15,0.0056
3.151,0.0003
3.152,0.0021
3.153,0.0003
3.154,0.0019
3.155,-0.0005
3.156,-0.0008
3.157,0.0003
3.158,-0.0001
3.159,0.0017
3.16,0.001
3.161,-0.0032
3.162,-0.0045
3.163,-0.0063
3.164,0.0021
3.165,0.0157
3.166,0.0138
3.167,0.0056
3.168,0.0041
3.169,0.0054
3.17,-0.003
3.171,-0.0063
3.172,-0.0072
3.173,-0.0045
3.174,-0.0037
3.175,-0.0059
3.176,-0.0041
3.177,-0.0036
3.178,0.0016
3.179,-0.0047
3.18,-0.0023
3.181,-0.0016
3.182,0.006
3.183,0.001
3.184,-0.0017
3.185,0.0006
3.186,0.0028
3.187,0.0023
3.188,-0.0008
3.189,-0.0059
3.19,-0.0014
3.191,0.0005
3.192,-0.0047
3.193,-0.0028
3.194,-0.0085
3.195,-0.0078
3.196,-0.0032
3.197,-0.0001
3.198,0.0027
3.199,0.0039
3.2,0.0017
3.201,0.0045
3.202,0.0094
3.203,0.0049
3.204,0.0067
3.205,0.0016
3.206,-0.0017
3.207,0.0001
3.208,0.0017
3.209,0.0005
3.21,0.0027
3.211,-0.0019
3.212,-0.005
3.213,-0.0089
3.214,-0.0061
3.215,0.0014
3.216,0.0093
3.217,0.0063
3.218,0.0147
3.219,0.0136
3.22,0.0067
3.221,0.0003
3.222,-0.0021
3.223,0.0001
3.224,-0.0005
3.225,0.0052
3.226,0.003
3.227,0.0012
3.228,0.0017
3.229,-0.0045
3.23,-0.0052
3.231,-0.0045
3.232,-0.0027
3.233,-0.0045
3.234,-0.0039
3.235,-0.0027
3.236,-0.0039
3.237,-0.0067
3.238,-0.0092
3.239,-0.0074
3.24,-0.0059
3.241,-0.0017
3.242,-0.0012
3.243,0.0005
3.244,-0.0041
3.245,-0.0047
3.246,-0.0041
3.247,-0.0008
3.248,0.0023
3.249,0.0019
3.25,0.0016
3.251,0.0012
3.252,0.0058
3.253,0.0012
3.254,0.0017
3.255,0.0001
3.256,-0.0012
3.257,-0.0034
3.258,-0.0006
3.259,0.0012
3.26,0.0001
3.261,-0.0014
3.262,-0.005
3.263,-0.0047
3.264,-0.0008
3.265,0.0023
3.266,0.0027
3.267,0.0061
3.268,0.0122
3.269,0.0098
3.27,-0.0003
3.271,-0.0016
3.272,-0.0005
3.273,0.0028
3.274,-0.0001
3.275,-0.0028
3.276,-0.0005
3.277,-0.0043
3.278,-0.0025
3.279,-0.0069
3.28,-0.0063
3.281,-0.0008
3.282,0.0061
3.283,0.0052
3.284,0.0012
3.285,0.0019
3.286,0.0052
3.287,0.0008
3.288,0.0003
3.289,-0.0043
3.29,-0.0025
3.291,-0.003
3.292,-0.0027
3.293,-0.0048
3.294,-0.0021
3.295,-0.0047
3.296,0.0001
3.297,0.0019
3.298,-0.0043
3.299,-0.0036
3.3,-0.0014
3.301,-0.0019
3.302,-0.0014
3.303,0.0049
3.304,-0.0043
3.305,-0.0032
3.306,-0.0021
3.307,-0.003
3.308,-0.0003
3.309,0.0005
3.31,0.0012
3.311,0.0006
3.312,-0.0025
3.313,-0.0008
3.314,-0.0021
3.315,0.0006
3.316,0.0019
3.317,0.0082
3.318,0.0091
3.319,0.0215
3.32,0.027
3.321,0.0188
3.322,0.0173
3.323,0.0213
3.324,0.0248
3.325,0.0281
3.326,0.0232
3.327,0.0277
3.328,0.0221
3.329,0.0136
3.33,0.0034
3.331,0.0074
3.332,0.0014
3.333,-0.0157
3.334,-0.0277
3.335,-0.0299
3.336,-0.044
3.337,-0.0459
3.338,-0.0609
3.339,-0.0629
3.34,-0.0501
3.341,-0.0451
3.342,-0.0466
3.343,-0.0534
3.344,-0.0695
3.345,-0.0849
3.346,-0.099
3.347,-0.1118
3.348,-0.1233
3.349,-0.1398
3.35,-0.142
3.351,-0.144
3.352,-0.1312
3.353,-0.1162
3.354,-0.1142
3.355,-0.0867
3.356,-0.0276
3.357,0.0827
3.358,0.188
3.359,0.2015
3.36,0.214
3.361,0.2028
3.362,0.172
3.363,0.1627
3.364,0.1204
3.365,0.1127
3.366,0.0863
3.367,0.0794
3.368,0.1111
3.369,0.1283
3.37,0.1438
3.371,0.1486
3.372,0.1444
3.373,0.1248
3.374,0.1142
3.375,0.1111
3.376,0.1081
3.377,0.0948
3.378,0.0583
3.379,0.0217
3.38,0.0074
3.381,0.0032
3.382,0.0071
3.383,0.0105
3.384,-0.0056
3.385,-0.0204
3.386,-0.0338
3.387,-0.0409
3.388,-0.0563
3.389,-0.0543
3.39,-0.0525
3.391,-0.064
3.392,-0.0744
3.393,-0.0757
3.394,-0.0697
3.395,-0.064
3.396,-0.0631
3.397,-0.0622
3.398,-0.0598
3.399,-0.0636
3.4,-0.0642
3.401,-0.0673
3.402,-0.0656
3.403,-0.0669
3.404,-0.0691
3.405,-0.0664
3.406,-0.0607
3.407,-0.0532
3.408,-0.0523
3.409,-0.0477
3.41,-0.0437
3.411,-0.0352
3.412,-0.0274
3.413,-0.0283
3.414,-0.0219
3.415,-0.0178
3.416,-0.0157
3.417,-0.014
3.418,-0.0107
3.419,-0.0012
3.42,-0.0025
3.421,-0.0036
3.422,0.0113
3.423,0.0093
3.424,-0.0146
3.425,0.0016
3.426,0.0045
3.427,0.0019
3.428,0.0043
3.429,0.0065
3.43,0.0085
3.431,0.0103
3.432,0.0087
3.433,0.0162
3.434,0.0122
3.435,0.0133
3.436,0.01
3.437,0.0091
3.438,0.0045
3.439,0.012
3.44,0.0091
3.441,0.0082
3.442,0.0058
3.443,0.0065
3.444,0.006
3.445,0.0078
3.446,0.0072
3.447,0.0076
3.448,0.0098
3.449,0.006
3.45,0.0114
3.451,0.0122
3.452,0.014
3.453,0.0135
3.454,0.0107
3.455,0.0061
3.456,0.0056
3.457,0.0017
3.458,0.0021
3.459,0.0034
3.46,0.0061
3.461,0.0027
3.462,0.003
3.463,0.0034
3.464,0.0045
3.465,0.0056
3.466,0.0071
3.467,0.0102
3.468,0.0087
3.469,0.0025
3.47,0.0146
3.471,0.0063
3.472,0.0138
3.473,-0.0067
3.474,-0.0096
3.475,-0.0017
3.476,-0.0041
3.477,-0.0019
3.478,-0.0039
3.479,-0.0058
3.48,-0.0041
3.481,-0.0027
3.482,0.0014
3.483,0.0025
3.484,0.0036
3.485,0.0045
3.486,0.0054
3.487,0.0078
3.488,-0.0023
3.489,-0.0036
3.49,-0.0001
3.491,-0.0012
3.492,-0.0021
3.493,0.0006
3.494,0.0014
3.495,-0.0008
3.496,-0.0027
3.497,-0.0021
3.498,0.003
3.499,-0.0072
3.5,-0.0028
3.501,-0.0041
3.502,0.0019
3.503,0.003
3.504,0.0001
3.505,-0.0008
3.506,-0.0001
3.507,0.0006
3.508,-0.0027
3.509,-0.0021
3.51,-0.0048
3.511,-0.0036
3.512,-0.0032
3.513,0.0014
3.514,0.0008
3.515,0.0036
3.516,0.0069
3.517,0.0111
3.518,0.0049
3.519,0.0006
3.52,-0.0017
3.521,0.0083
3.522,0.0016
3.523,0.0177
3.524,0.0067
3.525,-0.0034
3.526,-0.0052
3.527,-0.0036
3.528,-0.0021
3.529,-0.0089
3.53,-0.0028
3.531,0.0005
3.532,0.0034
3.533,0.0025
3.534,0.0001
3.535,0.0008
3.536,0.0027
3.537,0.0045
3.538,0.0017
3.539,-0.0016
3.54,-0.0019
3.541,-0.0023
3.542,-0.0048
3.543,-0.003
3.544,-0.0023
3.545,-0.0036
3.546,-0.0059
3.547,-0.0014
3.548,0.0061
3.549,0.0012
3.55,-0.0016
3.551,0.0025
3.552,0.0003
3.553,0.0021
3.554,-0.001
3.555,-0.0061
3.556,-0.0043
3.557,-0.0037
3.558,-0.0054
3.559,-0.003
3.56,-0.0027
3.561,-0.0037
3.562,-0.0012
3.563,-0.0008
3.564,0.0038
3.565,0.0005
3.566,-0.0001
3.567,-0.0028
3.568,0.0038
3.569,0.0083
3.57,0.0043
3.571,-0.0014
3.572,0.0087
3.573,0.0019
3.574,0.0131
3.575,0.0087
3.576,0.0019
3.577,-0.0016
3.578,-0.0048
3.579,-0.0039
3.58,-0.0048
3.581,0.0008
3.582,-0.0014
3.583,-0.0032
3.584,-0.005
3.585,-0.0012
3.586,0.0021
3.587,0.0008
3.588,-0.0019
3.589,-0.003
3.59,0.0003
3.591,0.0006
3.592,-0.0012
3.593,-0.003
3.594,-0.0023
3.595,-0.0016
3.596,-0.0056
3.597,-0.0005
3.598,0.0028
3.599,0.0034
3.6,0.0017
3.601,0.0041
3.602,0.0028
3.603,0.0039
3.604,0.0036
3.605,-0.0012
3.606,0.0006
3.607,-0.0032
3.608,0.0023
3.609,-0.0016
3.61,-0.001
3.611,-0.0028
3.612,-0.0001
3.613,-0.0047
3.614,0.001
3.615,0.0032
3.616,0.0038
3.617,0.0019
3.618,0.0047
3.619,0.006
3.62,0.0038
3.621,-0.0008
3.622,0.0019
3.623,-0.0037
3.624,0.0003
3.625,0.0056
3.626,0.0074
3.627,0.0069
3.628,0.0153
3.629,0.0142
3.63,0.0039
3.631,-0.0028
3.632,-0.0039
3.633,-0.0028
3.634,-0.0037
3.635,-0.0028
3.636,-0.0021
3.637,-0.0028
3.638,-0.0061
3.639,-0.0043
3.64,-0.0059
3.641,-0.0005
3.642,-0.0027
3.643,-0.0021
3.644,-0.0039
3.645,0.0012
3.646,-0.0021
3.647,-0.0039
3.648,-0.0012
3.649,0.0012
3.65,-0.0001
3.651,0.001
3.652,0.0021
3.653,0.0003
3.654,-0.0037
3.655,0.0025
3.656,0.0065
3.657,0.0012
3.658,-0.0006
3.659,0.0012
3.66,0.0028
3.661,-0.0027
3.662,-0.0048
3.663,-0.003
3.664,-0.0012
3.665,-0.0028
3.666,0.0017
3.667,-0.0027
3.668,0.0012
3.669,-0.0021
3.67,0.001
3.671,-0.0036
3.672,-0.0045
3.673,-0.0063
3.674,0.0021
3.675,0.0056
3.676,0.0204
3.677,0.0144
3.678,0.0052
3.679,-0.003
3.68,-0.0016
3.681,-0.0003
3.682,-0.0014
3.683,-0.0003
3.684,-0.0012
3.685,-0.0003
3.686,0.0021
3.687,-0.0001
3.688,-0.0019
3.689,-0.0001
3.69,-0.0028
3.691,-0.0016
3.692,-0.0028
3.693,-0.0008
3.694,-0.0005
3.695,0.0006
3.696,-0.0001
3.697,0.0001
3.698,-0.0006
3.699,0.0019
3.7,0.0023
3.701,0.0069
3.702,0.0074
3.703,0.0017
3.704,0.001
3.705,-0.0036
3.706,-0.0041
3.707,-0.0025
3.708,-0.0028
3.709,-0.0016
3.71,-0.0012
3.711,-0.003
3.712,0.0025
3.713,-0.0045
3.714,-0.0072
3.715,-0.0032
3.716,-0.0039
3.717,-0.0045
3.718,0.0012
3.719,0.0019
3.72,-0.0014
3.721,-0.0008
3.722,0.003
3.723,0.0006
3.724,0.0019
3.725,0.0089
3.726,0.008
3.727,0.0089
3.728,0.0129
3.729,0.006
3.73,-0.0005
3.731,-0.0012
3.732,-0.0019
3.733,-0.0001
3.734,0.0017
3.735,0.0012
3.736,-0.0054
3.737,-0.0045
3.738,-0.0052
3.739,-0.003
3.74,-0.0048
3.741,-0.003
3.742,-0.0036
3.743,-0.0012
3.744,-0.0034
3.745,-0.0014
3.746,-0.0025
3.747,-0.0006
3.748,0.0034
3.749,0.0061
3.75,0.0006
3.751,0.0028
3.752,-0.0017
3.753,-0.0036
3.754,-0.0019
3.755,-0.0043
3.756,-0.0047
3.757,-0.0019
3.758,-0.0008
3.759,0.0025
3.76,0.0014
3.761,0.0003
3.762,-0.0008
3.763,-0.0054
3.764,-0.0059
3.765,-0.0003
3.766,-0.0025
3.767,-0.0006
3.768,-0.0001
3.769,0.0005
3.77,0.0028
3.771,0.0025
3.772,0.0014
3.773,0.0039
3.774,0.0028
3.775,0.001
3.776,0.0038
3.777,0.0019
3.778,0.0074
3.779,0.0052
3.78,-0.005
3.781,-0.0065
3.782,-0.0052
3.783,-0.0017
3.784,0.0016
3.785,0.0006
3.786,0.0016
3.787,-0.0008
3.788,-0.0001
3.789,0.0005
3.79,-0.0039
3.791,-0.0034
3.792,-0.0067
3.793,-0.0063
3.794,-0.0001
3.795,0.0063
3.796,-0.0012
3.797,0.0017
3.798,0.0008
3.799,0.0016
3.8,-0.0006
3.801,0.0012
3.802,0.0017
3.803,0.0001
3.804,-0.0003
3.805,-0.0006
3.806,-0.0017
3.807,0.0017
3.808,-0.0034
3.809,-0.0016
3.81,-0.0047
3.811,-0.003
3.812,0.0016
3.813,-0.0028
3.814,-0.0034
3.815,-0.0001
3.816,0.0021
3.817,-0.0017
3.818,-0.0005
3.819,-0.0008
3.82,0.0003
3.821,-0.0001
3.822,0.0039
3.823,-0.0027
3.824,-0.0036
3.825,-0.0037
3.826,-0.003
3.827,0.0085
3.828,0.0036
3.829,0.0111
3.83,0.0043
3.831,-0.0041
3.832,0.0061
3.833,0.0021
3.834,0.0032
3.835,0.0021
3.836,0.0012
3.837,0.0003
3.838,-0.0089
3.839,-0.0005
3.84,-0.0037
3.841,-0.0008
3.842,-0.0036
3.843,-0.0043
3.844,-0.0021
3.845,-0.0003
3.846,-0.0047
3.847,0.0016
3.848,0.0008
3.849,0.003
3.85,-0.0003
3.851,0.0054
3.852,0.0016
3.853,0.0021
3.854,0.0003
3.855,-0.0003
3.856,0.001
3.857,0.0041
3.858,0.0021
3.859,-0.0005
3.86,-0.0023
3.861,-0.003
3.862,-0.0048
3.863,-0.0067
3.864,-0.0045
3.865,-0.0032
3.866,-0.0025
3.867,-0.001
3.868,0.0023
3.869,0.0001
3.87,0.0021
3.871,-0.0005
3.872,-0.0037
3.873,-0.0034
3.874,-0.003
3.875,-0.0005
3.876,-0.0016
3.877,-0.0023
3.878,0.0019
3.879,0.0014
3.88,0.0065
3.881,0.0127
3.882,0.0003
3.883,-0.0052
3.884,0.0063
3.885,0.0049
3.886,-0.0019
3.887,0.0016
3.888,0.0005
3.889,-0.0025
3.89,-0.0052
3.891,-0.0045
3.892,-0.0023
3.893,-0.0028
3.894,-0.0047
3.895,-0.0019
3.896,-0.0006
3.897,-0.0037
3.898,-0.0027
3.899,-0.0052
3.9,-0.0019
3.901,0.0008
3.902,0.0034
3.903,0.0038
3.904,-0.0008
3.905,-0.0027
3.906,-0.0032
3.907,-0.0005
3.908,-0.0001
3.909,-0.0023
3.91,0.0016
3.911,-0.0017
3.912,-0.0048
3.913,-0.0037
3.914,-0.0019
3.915,0.0021
3.916,0.0076
3.917,0.0038
3.918,0.0005
3.919,0.0036
3.92,0.0019
3.921,0.0023
3.922,-0.0028
3.923,-0.0034
3.924,-0.0039
3.925,-0.0001
3.926,-0.0014
3.927,-0.0008
3.928,-0.0005
3.929,0.0016
3.93,-0.001
3.931,0.0038
3.932,0.0133
3.933,0.012
3.934,0.0008
3.935,0.0052
3.936,0.0065
3.937,0.0005
3.938,-0.0074
3.939,-0.0083
3.94,-0.0019
3.941,-0.0027
3.942,-0.0005
3.943,-0.001
3.944,0.0021
3.945,0.0049
3.946,-0.0027
3.947,-0.0016
3.948,-0.0006
3.949,0.0003
3.95,-0.0005
3.951,-0.0012
3.952,-0.003
3.953,-0.0048
3.954,-0.0021
3.955,-0.0017
3.956,-0.003
3.957,-0.005
3.958,-0.0061
3.959,-0.0006
3.96,0.0001
3.961,0.0019
3.962,0.0025
3.963,0.0019
3.964,-0.0005
3.965,0.0017
3.966,-0.0003
3.967,0.0001
3.968,0.0049
3.969,0.003
3.97,0.0025
3.971,0.0028
3.972,-0.0014
3.973,-0.0008
3.974,-0.0012
3.975,0.001
3.976,-0.001
3.977,-0.0028
3.978,0.0021
3.979,-0.0019
3.98,0.0056
3.981,0.0113
3.982,0.0103
3.983,0.0058
3.984,-0.0017
3.985,-0.0008
3.986,-0.0017
3.987,0.0039
3.988,0.0032
3.989,-0.0014
3.99,-0.0008
3.991,-0.0025
3.992,0.0008
3.993,-0.0034
3.994,-0.0072
3.995,-0.0069
3.996,-0.0065
3.997,-0.0019
3.998,-0.0025
3.999,0.0003
4,0.0016
4.001,0.0019
4.002,0.0065
4.003,0.0021
4.004,0.0016
4.005,-0.0017
4.006,-0.0039
4.007,-0.0001
4.008,-0.0034
4.009,-0.003
4.01,-0.0019
4.011,-0.0016
4.012,-0.0005
4.013,-0.0032
4.014,0.0017
4.015,-0.0001
4.016,-0.0032
4.017,-0.0005
4.018,0.0028
4.019,0.0006
4.02,0.0034
4.021,-0.0008
4.022,-0.0014
4.023,-0.0017
4.024,-0.0021
4.025,-0.0017
4.026,0.0001
4.027,-0.0025
4.028,0.0008
4.029,-0.0037
4.03,-0.0041
4.031,-0.0052
4.032,0.0005
4.033,0.0012
4.034,0.0019
4.035,-0.0027
4.036,-0.0021
4.037,0.003
4.038,-0.0045
4.039,-0.0094
4.04,0.0008
4.041,0.0021
4.042,0.001
4.043,0.0067
4.044,0.0076
4.045,0.0179
4.046,0.0083
4.047,0.0072
4.048,0.0105
4.049,0.0014
4.05,-0.0047
4.051,-0.0036
4.052,-0.0045
4.053,-0.0017
4.054,-0.0025
4.055,-0.0078
4.056,-0.0072
4.057,-0.0028
4.058,-0.0056
4.059,-0.0069
4.06,-0.0027
4.061,-0.0032
4.062,-0.0056
4.063,-0.0005
4.064,-0.001
4.065,0.0008
4.066,0.0014
4.067,0.0001
4.068,0.0032
4.069,0.0021
4.07,0.001
4.071,-0.0023
4.072,-0.0034
4.073,0.0008
4.074,0.0003
4.075,-0.0001
4.076,0.0003
4.077,0.0006
4.078,0.001
4.079,-0.0023
4.08,-0.0023
4.081,0.0016
4.082,0.0091
4.083,0.0058
4.084,0.019
4.085,0.0135
4.086,0.0052
4.087,-0.0023
4.088,-0.0063
4.089,-0.0028
4.09,-0.0061
4.091,-0.0032
4.092,0.0014
4.093,-0.0043
4.094,0.001
4.095,-0.0036
4.096,-0.0041
4.097,-0.0014
4.098,-0.0027
4.099,-0.0014
4.1,-0.0017
4.101,-0.0021
4.102,-0.0039
4.103,-0.0006
4.104,0.0025
4.105,-0.0021
4.106,-0.0003
4.107,0.0036
4.108,0.0012
4.109,0.0025
4.11,0.0005
4.111,0.0008
4.112,-0.0039
4.113,0.0005
4.114,-0.0012
4.115,0.0001
4.116,-0.0003
4.117,-0.0023
4.118,-0.0012
4.119,-0.0016
4.12,0.003
4.121,-0.0032
4.122,-0.0039
4.123,0.0014
4.124,0.006
4.125,0.0054
4.126,0.0003
4.127,0.0008
4.128,-0.001
4.129,0.0017
4.13,0.005
4.131,0.0065
4.132,0.0078
4.133,0.014
4.134,0.0076
4.135,0.0052
4.136,0.0136
4.137,-0.0034
4.138,-0.0155
4.139,-0.0089
4.14,-0.0069
4.141,-0.0014
4.142,0.0003
4.143,-0.0041
4.144,-0.0054
4.145,-0.0043
4.146,-0.0076
4.147,-0.0027
4.148,-0.0072
4.149,-0.0032
4.15,-0.0025
4.151,0.0038
4.152,0.0014
4.153,-0.0008
4.154,-0.0003
4.155,-0.0047
4.156,-0.0008
4.157,-0.0012
4.158,0.001
4.159,-0.001
4.16,-0.0036
4.161,-0.0061
4.162,-0.0076
4.163,-0.0034
4.164,0.0049
4.165,0.006
4.166,0.003
4.167,0.0003
4.168,0.001
4.169,0.0032
4.17,0.0014
4.171,-0.0005
4.172,-0.0089
4.173,-0.0028
4.174,-0.0017
4.175,0.0012
4.176,0.0058
4.177,0.0065
4.178,0.0012
4.179,-0.0034
4.18,-0.0016
4.181,0.0012
4.182,-0.0001
4.183,-0.0025
4.184,0.0045
4.185,0.0157
4.186,0.0142
4.187,0.0047
4.188,-0.0014
4.189,-0.0025
4.19,-0.0016
4.191,-0.0043
4.192,-0.0019
4.193,-0.0058
4.194,-0.0063
4.195,-0.0006
4.196,-0.0028
4.197,-0.0047
4.198,-0.0041
4.199,0.0032
4.2,0.0041
4.201,0.0032
4.202,0.0025
4.203,-0.0028
4.204,0.0005
4.205,-0.0014
4.206,0.0003
4.207,-0.001
4.208,-0.0014
4.209,-0.0025
4.21,-0.0059
4.211,-0.0028
4.212,0.0034
4.213,0.0006
4.214,-0.0001
4.215,0.0006
4.216,-0.0012
4.217,-0.003
4.218,-0.0047
4.219,0.0019
4.22,0.0028
4.221,-0.0012
4.222,-0.0019
4.223,0.0056
4.224,0.0047
4.225,0.0038
4.226,0.0094
4.227,0.0147
4.228,0.0223
4.229,0.0213
4.23,0.0259
4.231,0.0367
4.232,0.0411
4.233,0.0292
4.234,0.0197
4.235,0.0186
4.236,0.0175
4.237,0.0204
4.238,0.0102
4.239,-0.0103
4.24,-0.0371
4.241,-0.0477
4.242,-0.0572
4.243,-0.0601
4.244,-0.0627
4.245,-0.0651
4.246,-0.0541
4.247,-0.04
4.248,-0.0418
4.249,-0.0569
4.25,-0.075
4.251,-0.0871
4.252,-0.1024
4.253,-0.1125
4.254,-0.1363
4.255,-0.1458
4.256,-0.1488
4.257,-0.1513
4.258,-0.149
4.259,-0.129
4.26,-0.1103
4.261,-0.0786
4.262,-0.0136
4.263,0.1078
4.264,0.1905
4.265,0.2356
4.266,0.222
4.267,0.2096
4.268,0.1759
4.269,0.1451
4.27,0.1358
4.271,0.1274
4.272,0.1043
4.273,0.0973
4.274,0.1035
4.275,0.1323
4.276,0.1479
4.277,0.1431
4.278,0.1473
4.279,0.1277
4.28,0.11
4.281,0.1068
4.282,0.1039
4.283,0.0852
4.284,0.0402
4.285,0.0085
4.286,-0.0043
4.287,-0.0081
4.288,-0.0047
4.289,-0.0142
4.29,-0.0171
4.291,-0.0092
4.292,-0.0261
4.293,-0.046
4.294,-0.0539
4.295,-0.0563
4.296,-0.0541
4.297,-0.0682
4.298,-0.07
4.299,-0.0717
4.3,-0.0642
4.301,-0.0519
4.302,-0.0601
4.303,-0.0645
4.304,-0.0658
4.305,-0.0623
4.306,-0.0656
4.307,-0.0726
4.308,-0.0735
4.309,-0.0775
4.31,-0.0706
4.311,-0.0697
4.312,-0.0673
4.313,-0.0558
4.314,-0.0475
4.315,-0.046
4.316,-0.042
4.317,-0.036
4.318,-0.0327
4.319,-0.0257
4.32,-0.0248
4.321,-0.0241
4.322,-0.0219
4.323,-0.0116
4.324,-0.0102
4.325,-0.0034
4.326,0.0001
4.327,-0.0032
4.328,-0.0041
4.329,0.0023
4.33,-0.0001
4.331,0.0052
4.332,0.0085
4.333,0.0116
4.334,0.0122
4.335,0.0116
4.336,0.0113
4.337,0.0182
4.338,0.0153
4.339,0.0162
4.34,0.0087
4.341,0.0078
4.342,0.0087
4.343,0.0144
4.344,0.0122
4.345,0.0127
4.346,0.0058
4.347,0.0049
4.348,0.0089
4.349,0.0067
4.35,0.0142
4.351,0.0113
4.352,0.0158
4.353,0.0102
4.354,0.008
4.355,0.0047
4.356,0.0041
4.357,0.0069
4.358,0.0093
4.359,0.005
4.36,0.0078
4.361,0.0065
4.362,0.0069
4.363,0.0058
4.364,0.0047
4.365,0.005
4.366,0.0096
4.367,0.0034
4.368,0.0058
4.369,0.008
4.37,0.0061
4.371,0.003
4.372,0.0003
4.373,-0.0001
4.374,0.0012
4.375,0.0032
4.376,-0.0017
4.377,0.0058
4.378,0.0008
4.379,0.0036
4.38,-0.0005
4.381,-0.0012
4.382,0.005
4.383,0.0058
4.384,0.0005
4.385,0.0038
4.386,0.0043
4.387,0.0049
4.388,0.0133
4.389,0.0049
4.39,0.0127
4.391,0.0098
4.392,0.0052
4.393,-0.0005
4.394,0.0003
4.395,-0.0043
4.396,-0.0061
4.397,-0.0034
4.398,-0.0047
4.399,-0.005
4.4,0.0012
4.401,0.0039
4.402,-0.0001
4.403,-0.0008
4.404,0.0025
4.405,-0.0045
4.406,0.0039
4.407,0.005
4.408,0.0021
4.409,-0.0025
4.41,-0.0001
4.411,-0.0023
4.412,-0.0028
4.413,-0.0085
4.414,-0.0047
4.415,-0.0028
4.416,-0.001
4.417,-0.0005
4.418,0.0041
4.419,0.0047
4.42,-0.0005
4.421,0.0001
4.422,-0.003
4.423,-0.0014
4.424,-0.0001
4.425,-0.0032
4.426,-0.0036
4.427,-0.0039
4.428,-0.0006
4.429,-0.0052
4.43,-0.0021
4.431,-0.0005
4.432,0.0008
4.433,0.0005
4.434,0.0032
4.435,0.0021
4.436,-0.0019
4.437,-0.0008
4.438,-0.0005
4.439,0.0038
4.44,0.0032
4.441,0.0045
4.442,0.0114
4.443,0.0206
4.444,0.0094
4.445,-0.001
4.446,-0.0078
4.447,-0.0043
4.448,-0.0054
4.449,-0.0025
4.45,-0.0052
4.451,-0.0012
4.452,0.0027
4.453,0.0008
4.454,0.0003
4.455,-0.0059
4.456,-0.0036
4.457,-0.0058
4.458,-0.0039
4.459,0.0017
4.46,0.001
4.461,-0.0065
4.462,-0.0114
4.463,-0.0069
4.464,-0.0012
4.465,0.0027
4.466,0.0072
4.467,-0.001
4.468,-0.0021
4.469,0.0008
4.47,0.0017
4.471,0.001
4.472,0.0032
4.473,0.0027
4.474,-0.003
4.475,-0.0023
4.476,-0.0017
4.477,-0.0023
4.478,-0.0039
4.479,-0.0043
4.48,-0.0047
4.481,0.0008
4.482,0.0001
4.483,0.0006
4.484,-0.0025
4.485,0.0003
4.486,0.0006
4.487,-0.0045
4.488,-0.0059
4.489,0.0016
4.49,0.0045
4.491,-0.0019
4.492,-0.0027
4.493,0.0089
4.494,0.0105
4.495,-0.003
4.496,0.0061
4.497,0.0012
4.498,-0.0032
4.499,0.0008
4.5,-0.0076
4.501,-0.0019
4.502,-0.001
4.503,0.0017
4.504,-0.0006
4.505,-0.0045
4.506,-0.0039
4.507,-0.0058
4.508,-0.0019
4.509,-0.0032
4.51,-0.0019
4.511,0.0008
4.512,0.0058
4.513,0.0025
4.514,0.0019
4.515,-0.0019
4.516,0.0005
4.517,-0.0027
4.518,0.0036
4.519,0.0063
4.52,0.0039
4.521,0.0017
4.522,-0.0001
4.523,0.0017
4.524,0.0001
4.525,-0.0023
4.526,-0.001
4.527,0.0017
4.528,0.0036
4.529,-0.0005
4.53,0.0008
4.531,0.0021
4.532,0.0049
4.533,0.0014
4.534,0.0036
4.535,0.0025
4.536,0.0021
4.537,-0.0005
4.538,-0.005
4.539,0.0006
4.54,0.0025
4.541,0.003
4.542,0.0114
4.543,0.0125
4.544,0.0023
4.545,-0.0017
4.546,-0.0052
4.547,-0.0019
4.548,0.001
4.549,0.0038
4.55,-0.0037
4.551,-0.0028
4.552,-0.0001
4.553,0.0006
4.554,-0.0016
4.555,-0.001
4.556,0.0008
4.557,-0.0008
4.558,0.0005
4.559,-0.0017
4.56,-0.0014
4.561,-0.0025
4.562,0.0008
4.563,-0.0054
4.564,-0.0045
4.565,-0.0037
4.566,-0.0016
4.567,-0.0048
4.568,-0.003
4.569,0.0032
4.57,0.0056
4.571,-0.0014
4.572,-0.0023
4.573,0.0034
4.574,0.0056
4.575,0.0038
4.576,-0.0006
4.577,-0.0045
4.578,-0.0048
4.579,-0.008
4.58,-0.0059
4.581,-0.0003
4.582,0.0054
4.583,0.0016
4.584,0.001
4.585,0.0005
4.586,-0.0001
4.587,0.0032
4.588,-0.001
4.589,-0.0027
4.59,-0.0037
4.591,-0.0025
4.592,0.0045
4.593,-0.0025
4.594,0.0114
4.595,0.0094
4.596,-0.0034
4.597,-0.0017
4.598,0.0027
4.599,0.0067
4.6,-0.0017
4.601,-0.0006
4.602,-0.0016
4.603,-0.0061
4.604,0.0014
4.605,-0.0016
4.606,-0.0025
4.607,-0.0065
4.608,-0.0043
4.609,-0.001
4.61,-0.0005
4.611,-0.0078
4.612,-0.0048
4.613,-0.0021
4.614,0.0054
4.615,0.0124
4.616,0.0078
4.617,0.0021
4.618,0.0043
4.619,0.001
4.62,0.0041
4.621,0.0003
4.622,-0.003
4.623,-0.0034
4.624,-0.0072
4.625,-0.0048
4.626,-0.0006
4.627,-0.0058
4.628,-0.0025
4.629,-0.0019
4.63,-0.0003
4.631,-0.0048
4.632,0.0034
4.633,0.0023
4.634,0.0014
4.635,0.0041
4.636,0.0017
4.637,-0.0005
4.638,-0.0023
4.639,0.0008
4.64,-0.0019
4.641,-0.0008
4.642,-0.0041
4.643,0.0028
4.644,-0.0001
4.645,0.0138
4.646,0.0078
4.647,0.006
4.648,-0.0056
4.649,-0.0041
4.65,-0.0028
4.651,0.0006
4.652,0.0017
4.653,-0.0032
4.654,-0.0023
4.655,-0.0063
4.656,-0.0102
4.657,-0.0039
4.658,0.0036
4.659,0.0006
4.66,-0.0039
4.661,-0.0047
4.662,0.0006
4.663,0.0012
4.664,0.003
4.665,-0.0021
4.666,-0.0027
4.667,-0.0045
4.668,0.0006
4.669,0.0039
4.67,0.0008
4.671,-0.0054
4.672,-0.0047
4.673,-0.0025
4.674,0.0021
4.675,-0.001
4.676,0.0017
4.677,0.003
4.678,-0.0021
4.679,-0.0027
4.68,-0.0058
4.681,-0.0074
4.682,-0.005
4.683,0.0019
4.684,0.0069
4.685,0.0041
4.686,0.0049
4.687,0.0102
4.688,0.0039
4.689,-0.0017
4.69,-0.0056
4.691,-0.0074
4.692,-0.0045
4.693,-0.0027
4.694,0.0058
4.695,-0.0054
4.696,0.0142
4.697,0.0063
4.698,-0.0008
4.699,0.0014
4.7,0.0034
4.701,0.0052
4.702,0.0003
4.703,-0.0041
4.704,-0.0028
4.705,0.0006
4.706,-0.0005
4.707,-0.0014
4.708,-0.0023
4.709,0.0034
4.71,0.0012
4.711,-0.0006
4.712,-0.005
4.713,-0.0102
4.714,-0.0027
4.715,-0.0017
4.716,-0.0063
4.717,-0.0023
4.718,0.0078
4.719,0.0038
4.72,0.0049
4.721,0.0038
4.722,0.0008
4.723,-0.0037
4.724,-0.0045
4.725,-0.0037
4.726,-0.0032
4.727,-0.0001
4.728,-0.0039
4.729,-0.0036
4.73,-0.0005
4.731,0.0016
4.732,0.0027
4.733,0.0067
4.734,0.008
4.735,0.001
4.736,0.0019
4.737,0.0028
4.738,-0.0012
4.739,-0.0034
4.74,-0.0028
4.741,-0.0034
4.742,-0.0006
4.743,-0.003
4.744,-0.0027
4.745,0.0016
4.746,-0.0001
4.747,0.0003
4.748,0.0016
4.749,0.0043
4.75,-0.0014
4.751,0.0111
4.752,0.0056
4.753,0.0006
4.754,-0.0008
4.755,-0.0048
4.756,-0.0037
4.757,-0.0005
4.758,0.0005
4.759,-0.0023
4.76,-0.0047
4.761,-0.0039
4.762,0.0006
4.763,-0.0089
4.764,0.0034
4.765,0.0116
4.766,0.0131
4.767,0.0036
4.768,0.0001
4.769,0.0058
4.77,0.0008
4.771,-0.0001
4.772,-0.0041
4.773,-0.0003
4.774,-0.0021
4.775,-0.0078
4.776,-0.007
4.777,0.0032
4.778,0.0076
4.779,0.0008
4.78,-0.0076
4.781,-0.0087
4.782,-0.0037
4.783,-0.0028
4.784,0.0028
4.785,0.0067
4.786,0.0005
4.787,-0.0003
4.788,-0.001
4.789,0.0008
4.79,0.0039
4.791,0.0001
4.792,-0.0012
4.793,-0.0034
4.794,-0.0016
4.795,-0.0005
4.796,0.003
4.797,0.0017
4.798,0.008
4.799,0.0164
4.8,0.0016
4.801,0.0036
4.802,0.0054
4.803,0.0071
4.804,-0.0005
4.805,-0.0045
4.806,-0.0056
4.807,-0.0045
4.808,-0.0016
4.809,-0.0025
4.81,-0.0017
4.811,-0.001
4.812,-0.0005
4.813,-0.0036
4.814,0.0003
4.815,0.0016
4.816,0.0076
4.817,0.0036
4.818,-0.0034
4.819,0.0012
4.82,0.0005
4.821,-0.0003
4.822,-0.0021
4.823,-0.0039
4.824,-0.0012
4.825,-0.0025
4.826,-0.0056
4.827,-0.0045
4.828,-0.0019
4.829,0.0006
4.83,0.0008
4.831,-0.0023
4.832,0.0039
4.833,0.0012
4.834,0.0005
4.835,0.0058
4.836,0.0091
4.837,0.0047
4.838,-0.0027
4.839,-0.0076
4.84,-0.0085
4.841,-0.0078
4.842,0.0006
4.843,0.0017
4.844,-0.0032
4.845,-0.0016
4.846,-0.0006
4.847,0.0069
4.848,0.0019
4.849,0.0065
4.85,0.019
4.851,0.0098
4.852,0.0016
4.853,0.0091
4.854,-0.0005
4.855,-0.0039
4.856,-0.005
4.857,-0.008
4.858,-0.007
4.859,-0.0047
4.86,0.0006
4.861,0.0001
4.862,0.0032
4.863,0.0016
4.864,-0.0017
4.865,-0.0069
4.866,-0.0036
4.867,0.0021
4.868,-0.0001
4.869,0.0032
4.87,0.0027
4.871,0.001
4.872,-0.0056
4.873,-0.0065
4.874,0.001
4.875,-0.0039
4.876,-0.0048
4.877,-0.0072
4.878,-0.0003
4.879,-0.003
4.88,-0.0006
4.881,-0.0045
4.882,0.0017
4.883,0.0058
4.884,0.0036
4.885,0.0003
4.886,0.0034
4.887,0.0017
4.888,-0.0006
4.889,-0.0037
4.89,-0.0027
4.891,-0.0052
4.892,-0.0034
4.893,-0.0014
4.894,-0.0056
4.895,-0.0012
4.896,0.0006
4.897,0.0058
4.898,0.016
4.899,0.0056
4.9,0.0069
4.901,0.0103
4.902,0.0114
4.903,0.0045
4.904,-0.0001
4.905,-0.0008
4.906,-0.003
4.907,0.0003
4.908,-0.0028
4.909,-0.0056
4.91,-0.0052
4.911,-0.003
4.912,-0.005
4.913,-0.0039
4.914,-0.0006
4.915,-0.001
4.916,-0.0014
4.917,0.0012
4.918,0.0032
4.919,0.0019
4.92,0.0001
4.921,0.0023
4.922,-0.0003
4.923,-0.0058
4.924,-0.0019
4.925,-0.0001
4.926,0.0017
4.927,0.0001
4.928,-0.0003
4.929,0.001
4.93,-0.0052
4.931,-0.0043
4.932,-0.0003
4.933,-0.001
4.934,0.0065
4.935,-0.0005
4.936,0.0005
4.937,-0.0019
4.938,-0.0027
4.939,-0.0102
4.94,-0.001
4.941,0.0001
4.942,0.0058
4.943,0.0049
4.944,0.0039
4.945,-0.0017
4.946,-0.0025
4.947,-0.0016
4.948,0.003
4.949,0.0125
4.95,0.0058
4.951,-0.0103
4.952,0.0096
4.953,0.0071
4.954,-0.005
4.955,-0.0072
4.956,-0.0012
4.957,0.0006
4.958,0.0023
4.959,-0.0021
4.96,-0.0034
4.961,0.0001
4.962,-0.0078
4.963,-0.0069
4.964,-0.0059
4.965,-0.0052
4.966,0.0032
4.967,0.0021
4.968,0.003
4.969,0.0021
4.97,0.0014
4.971,0.0036
4.972,-0.001
4.973,-0.0041
4.974,-0.0025
4.975,0.0021
4.976,-0.001
4.977,-0.0016
4.978,-0.0003
4.979,-0.0006
4.98,-0.0027
4.981,0.0008
4.982,0.0005
4.983,-0.0006
4.984,-0.0017
4.985,-0.0006
4.986,0.0021
4.987,0.0025
4.988,-0.003
4.989,-0.0023
4.99,0.001
4.991,0.0005
4.992,0.0021
4.993,-0.0025
4.994,-0.0043
4.995,-0.0048
4.996,-0.0036
4.997,0.0025
4.998,-0.0008
4.999,-0.0001
5,0.0114
5.001,0.0164
5.002,0.012
5.003,0.0052
5.004,-0.0008
5.005,-0.0019
5.006,-0.0028
5.007,-0.0037
5.008,-0.003
5.009,-0.0008
5.01,0.001
5.011,-0.0021
5.012,-0.0037
5.013,-0.0034
5.014,-0.0056
5.015,-0.0001
5.016,0.0038
5.017,0.0019
5.018,0.0001
5.019,0.0006
5.02,0.0003
5.021,0.0016
5.022,-0.0023
5.023,0.0043
5.024,0.0016
5.025,0.0039
5.026,0.0001
5.027,0.0006
5.028,-0.0012
5.029,-0.005
5.03,-0.0027
5.031,0.0005
5.032,0.0008
5.033,-0.0003
5.034,0.0052
5.035,0.003
5.036,-0.0003
5.037,-0.0021
5.038,-0.0016
5.039,-0.0012
5.04,0.0001
5.041,-0.0037
5.042,-0.0092
5.043,-0.0054
5.044,-0.0021
5.045,-0.0027
5.046,-0.0043
5.047,-0.0019
5.048,-0.0032
5.049,-0.003
5.05,0.0032
5.051,0.0116
5.052,0.0083
5.053,0.0133
5.054,0.0049
5.055,-0.0008
5.056,0.0021
5.057,0.0012
5.058,-0.0045
5.059,-0.0083
5.06,-0.0078
5.061,-0.0047
5.062,-0.0063
5.063,0.0003
5.064,-0.0025
5.065,-0.0001
5.066,0.0021
5.067,0.0054
5.068,0.006
5.069,0.0032
5.07,0.0008
5.071,-0.0005
5.072,0.0034
5.073,0.0058
5.074,0.0016
5.075,0.001
5.076,-0.0036
5.077,-0.0054
5.078,-0.0003
5.079,0.0003
5.08,-0.0028
5.081,0.001
5.082,0.0014
5.083,0.0027
5.084,0.0006
5.085,-0.0012
5.086,0.0036
5.087,0.0054
5.088,-0.0008
5.089,-0.0016
5.09,0.0038
5.091,0.0032
5.092,0.005
5.093,-0.0012
5.094,-0.0005
5.095,-0.0027
5.096,-0.0045
5.097,-0.0076
5.098,-0.0048
5.099,-0.0025
5.1,-0.0023
5.101,-0.0054
5.102,0.0008
5.103,-0.0019
5.104,0.0105
5.105,-0.0059
5.106,-0.0169
5.107,-0.0028
5.108,-0.0047
5.109,0.0003
5.11,-0.0041
5.111,-0.0028
5.112,-0.0063
5.113,-0.0052
5.114,-0.0003
5.115,0.0043
5.116,0.0003
5.117,0.0025
5.118,0.0006
5.119,-0.0012
5.12,-0.0017
5.121,-0.0005
5.122,-0.0047
5.123,-0.0019
5.124,-0.0006
5.125,-0.0019
5.126,-0.003
5.127,-0.0005
5.128,-0.0008
5.129,-0.0023
5.13,-0.0016
5.131,-0.0003
5.132,0.0023
5.133,0.0027
5.134,-0.0014
5.135,0.0003
5.136,0.0016
5.137,0.0058
5.138,-0.0005
5.139,-0.0045
5.14,-0.0023
5.141,-0.0017
5.142,0.0001
5.143,-0.0037
5.144,-0.0014
5.145,-0.001
5.146,-0.0006
5.147,0.0028
5.148,0.0016
5.149,0.0012
5.15,0.0016
5.151,0.0021
5.152,-0.0005
5.153,0.0041
5.154,0.0047
5.155,0.0016
5.156,0.0054
5.157,0.0058
5.158,-0.0012
5.159,-0.0021
5.16,0.0006
5.161,-0.0001
5.162,-0.0054
5.163,-0.0048
5.164,-0.0043
5.165,0.003
5.166,0.0039
5.167,0.0012
5.168,-0.0012
5.169,-0.0005
5.17,-0.0023
5.171,-0.0041
5.172,-0.0058
5.173,-0.007
5.174,-0.0019
5.175,0.0027
5.176,0.0008
5.177,-0.0019
5.178,-0.0023
5.179,0.0008
5.18,-0.0019
5.181,-0.0001
5.182,0.0025
5.183,0.0005
5.184,0.0047
5.185,0.0142
5.186,0.0155
5.187,0.019
5.188,0.0223
5.189,0.0213
5.19,0.0298
5.191,0.0287
5.192,0.0316
5.193,0.0213
5.194,0.0146
5.195,0.0061
5.196,0.0028
5.197,-0.0001
5.198,-0.014
5.199,-0.0281
5.2,-0.0373
5.201,-0.0455
5.202,-0.0528
5.203,-0.0572
5.204,-0.0422
5.205,-0.0362
5.206,-0.027
5.207,-0.0319
5.208,-0.0545
5.209,-0.0706
5.21,-0.0973
5.211,-0.1295
5.212,-0.1253
5.213,-0.1371
5.214,-0.1477
5.215,-0.1508
5.216,-0.1596
5.217,-0.1517
5.218,-0.1297
5.219,-0.1149
5.22,-0.0907
5.221,-0.042
5.222,0.0631
5.223,0.1684
5.224,0.2092
5.225,0.2217
5.226,0.2105
5.227,0.1797
5.228,0.1517
5.229,0.1264
5.23,0.1187
5.231,0.1118
5.232,0.118
5.233,0.1352
5.234,0.1508
5.235,0.1651
5.236,0.1609
5.237,0.157
5.238,0.1321
5.239,0.116
5.24,0.1131
5.241,0.1105
5.242,0.0741
5.243,0.0268
5.244,0.008
5.245,0.0023
5.246,-0.0028
5.247,0.0019
5.248,-0.0109
5.249,-0.0226
5.25,-0.0332
5.251,-0.0428
5.252,-0.0515
5.253,-0.0536
5.254,-0.0457
5.255,-0.0528
5.256,-0.0638
5.257,-0.0578
5.258,-0.0523
5.259,-0.0539
5.26,-0.0525
5.261,-0.0592
5.262,-0.0603
5.263,-0.0728
5.264,-0.0711
5.265,-0.0755
5.266,-0.0768
5.267,-0.0757
5.268,-0.0678
5.269,-0.0587
5.27,-0.0722
5.271,-0.0558
5.272,-0.0623
5.273,-0.0603
5.274,-0.0548
5.275,-0.0466
5.276,-0.0391
5.277,-0.0404
5.278,-0.0319
5.279,-0.0263
5.28,-0.0233
5.281,-0.0206
5.282,-0.0114
5.283,-0.003
5.284,-0.0041
5.285,0.0008
5.286,0.0017
5.287,0.001
5.288,0.0032
5.289,-0.0001
5.29,0.0069
5.291,0.006
5.292,0.0052
5.293,0.0091
5.294,0.0085
5.295,0.0067
5.296,0.0083
5.297,0.008
5.298,0.0058
5.299,0.012
5.3,0.0111
5.301,0.0103
5.302,0.0082
5.303,0.01
5.304,0.0138
5.305,0.012
5.306,0.0125
5.307,0.0113
5.308,0.0182
5.309,0.0232
5.31,0.0147
5.311,0.0091
5.312,0.0061
5.313,0.0071
5.314,0.0094
5.315,0.0056
5.316,0.0089
5.317,0.0083
5.318,0.01
5.319,0.0103
5.32,0.01
5.321,0.0038
5.322,0.001
5.323,0.0067
5.324,0.0014
5.325,0.0047
5.326,0.0016
5.327,0.0021
5.328,0.0054
5.329,0.0067
5.33,0.0005
5.331,0.0014
5.332,0.0021
5.333,0.0043
5.334,0.0049
5.335,0.0093
5.336,0.0054
5.337,0.0058
5.338,0.0045
5.339,0.0017
5.34,-0.0001
5.341,0.001
5.342,0.0008
5.343,0.0001
5.344,0.0014
5.345,0.0019
5.346,-0.0014
5.347,-0.0045
5.348,-0.0034
5.349,0.0023
5.35,-0.0001
5.351,0.0006
5.352,-0.0012
5.353,0.0019
5.354,0.0025
5.355,0.0014
5.356,0.0001
5.357,0.0071
5.358,0.008
5.359,0.0052
5.36,0.0144
5.361,0.0008
5.362,-0.012
5.363,-0.0005
5.364,0.001
5.365,-0.0003
5.366,-0.0014
5.367,-0.0003
5.368,-0.0012
5.369,-0.0021
5.37,-0.0045
5.371,-0.0037
5.372,-0.0019
5.373,-0.0025
5.374,-0.0052
5.375,-0.0085
5.376,-0.0034
5.377,-0.0001
5.378,-0.0019
5.379,-0.0036
5.38,-0.0012
5.381,0.001
5.382,-0.0045
5.383,-0.0037
5.384,0.0025
5.385,0.0032
5.386,0.0025
5.387,0.0006
5.388,-0.0012
5.389,0.0005
5.39,-0.0008
5.391,-0.0005
5.392,-0.0016
5.393,-0.0012
5.394,-0.0001
5.395,0.0032
5.396,0.0045
5.397,0.0017
5.398,0.0006
5.399,0.0039
5.4,-0.0016
5.401,-0.0023
5.402,-0.0017
5.403,-0.0012
5.404,-0.0028
5.405,-0.0025
5.406,-0.0016
5.407,-0.0047
5.408,0.0016
5.409,0.0006
5.41,0.0063
5.411,0.0116
5.412,0.0041
5.413,-0.0028
5.414,-0.0037
5.415,-0.0045
5.416,-0.0023
5.417,-0.0028
5.418,0.0028
5.419,-0.001
5.42,-0.0016
5.421,-0.0034
5.422,-0.0028
5.423,-0.0016
5.424,-0.0012
5.425,-0.0023
5.426,-0.0019
5.427,-0.0037
5.428,-0.0036
5.429,-0.0028
5.43,-0.001
5.431,0.0005
5.432,-0.001
5.433,0.0019
5.434,0.0008
5.435,-0.0041
5.436,0.0005
5.437,-0.0001
5.438,-0.0039
5.439,-0.0027
5.44,0.0005
5.441,0.0025
5.442,-0.0032
5.443,-0.0008
5.444,-0.003
5.445,0.0003
5.446,-0.0041
5.447,-0.0058
5.448,0.0017
5.449,0.0028
5.45,-0.0001
5.451,0.0045
5.452,0.0021
5.453,-0.0001
5.454,-0.0019
5.455,-0.0014
5.456,0.0003
5.457,-0.003
5.458,0.0036
5.459,0.0082
5.46,0.0058
5.461,0.0036
5.462,0.0054
5.463,0.0098
5.464,0.0082
5.465,0.0006
5.466,-0.0027
5.467,-0.0056
5.468,-0.0028
5.469,-0.0021
5.47,-0.0014
5.471,0.0019
5.472,0.0038
5.473,0.0032
5.474,0.0036
5.475,-0.0006
5.476,0.0021
5.477,-0.0025
5.478,-0.0056
5.479,-0.0028
5.48,-0.0052
5.481,-0.0021
5.482,0.0025
5.483,0.0056
5.484,0.0039
5.485,0.0072
5.486,0.0041
5.487,0.0003
5.488,-0.003
5.489,-0.0043
5.49,-0.007
5.491,-0.0045
5.492,-0.0063
5.493,-0.0017
5.494,0.0085
5.495,0.0071
5.496,0.0058
5.497,0.0069
5.498,-0.001
5.499,-0.0001
5.5,-0.0047
5.501,-0.0023
5.502,-0.0045
5.503,-0.0012
5.504,0.0045
5.505,0.0006
5.506,-0.0027
5.507,-0.0045
5.508,-0.0016
5.509,-0.0054
5.51,0.0001
5.511,-0.0037
5.512,-0.0019
5.513,-0.005
5.514,0.0001
5.515,0.0019
5.516,-0.005
5.517,0.0014
5.518,0.0021
5.519,0.0014
5.52,0.0116
5.521,0.0131
5.522,0.0063
5.523,-0.0021
5.524,-0.001
5.525,-0.0019
5.526,0.0008
5.527,-0.0016
5.528,0.0006
5.529,-0.0012
5.53,-0.0017
5.531,-0.0034
5.532,-0.0047
5.533,-0.0034
5.534,-0.0037
5.535,-0.0019
5.536,-0.0052
5.537,-0.0041
5.538,-0.0045
5.539,-0.0019
5.54,-0.0012
5.541,0.0019
5.542,0.0023
5.543,0.0012
5.544,0.003
5.545,0.0045
5.546,0.0003
5.547,-0.0016
5.548,-0.0043
5.549,-0.003
5.55,-0.0017
5.551,0.001
5.552,0.0014
5.553,0.0054
5.554,0.0041
5.555,-0.0028
5.556,-0.0058
5.557,0.0006
5.558,-0.0001
5.559,-0.0037
5.56,-0.003
5.561,0.0072
5.562,0.0028
5.563,0.0041
5.564,0.0125
5.565,0.0114
5.566,0.0023
5.567,0.0034
5.568,0.0001
5.569,0.001
5.57,0.0001
5.571,-0.0023
5.572,-0.0001
5.573,-0.0047
5.574,-0.0041
5.575,-0.0025
5.576,-0.0037
5.577,-0.0016
5.578,0.003
5.579,0.0012
5.58,-0.0027
5.581,-0.005
5.582,-0.0019
5.583,0.0043
5.584,0.0052
5.585,0.0028
5.586,0.0006
5.587,0.0012
5.588,-0.0058
5.589,-0.003
5.59,-0.0023
5.591,-0.0045
5.592,-0.0063
5.593,-0.0045
5.594,-0.0039
5.595,-0.0006
5.596,-0.0048
5.597,0.0003
5.598,0.0021
5.599,0.0039
5.6,0.0023
5.601,0.001
5.602,0.0023
5.603,0.0034
5.604,0.006
5.605,0.0005
5.606,-0.0065
5.607,-0.0037
5.608,-0.0061
5.609,-0.0054
5.61,-0.0001
5.611,0.0005
5.612,0.01
5.613,0.0032
5.614,0.0043
5.615,0.01
5.616,0.003
5.617,-0.0016
5.618,0.0008
5.619,-0.003
5.62,0.0032
5.621,0.0025
5.622,0.0047
5.623,0.0065
5.624,0.0034
5.625,-0.0039
5.626,-0.0089
5.627,-0.0025
5.628,-0.0017
5.629,-0.0039
5.63,-0.0021
5.631,-0.0065
5.632,-0.0059
5.633,-0.0005
5.634,-0.0012
5.635,0.0006
5.636,0.0001
5.637,-0.0016
5.638,0.0017
5.639,-0.0005
5.64,0.0023
5.641,-0.0012
5.642,0.001
5.643,-0.0001
5.644,-0.0012
5.645,-0.0016
5.646,-0.0023
5.647,-0.001
5.648,-0.0017
5.649,0.0008
5.65,0.0041
5.651,0.0021
5.652,-0.0021
5.653,-0.0027
5.654,-0.0014
5.655,-0.001
5.656,-0.003
5.657,-0.0005
5.658,-0.0001
5.659,0.0014
5.66,0.0001
5.661,-0.0016
5.662,-0.0003
5.663,0.0032
5.664,0.0019
5.665,0.008
5.666,0.0155
5.667,0.0003
5.668,-0.0019
5.669,0.0001
5.67,-0.0017
5.671,-0.0001
5.672,-0.0045
5.673,-0.0058
5.674,-0.0047
5.675,-0.0058
5.676,-0.0048
5.677,-0.0021
5.678,-0.0045
5.679,-0.0006
5.68,-0.0025
5.681,-0.003
5.682,0.0021
5.683,0.0039
5.684,0.0034
5.685,0.0028
5.686,0.0032
5.687,0.001
5.688,-0.0017
5.689,-0.0074
5.69,-0.005
5.691,-0.0043
5.692,0.0003
5.693,0.0047
5.694,0.003
5.695,0.0034
5.696,-0.0008
5.697,0.0008
5.698,0.0021
5.699,-0.001
5.7,-0.0006
5.701,-0.0003
5.702,0.0001
5.703,-0.0014
5.704,-0.0016
5.705,0.0025
5.706,-0.0014
5.707,-0.0001
5.708,0.0003
5.709,-0.0036
5.71,0.003
5.711,0.0021
5.712,-0.0037
5.713,0.0003
5.714,0.0041
5.715,0.0047
5.716,0.0078
5.717,0.0162
5.718,0.0078
5.719,-0.0025
5.72,-0.0012
5.721,-0.0047
5.722,-0.0036
5.723,-0.0027
5.724,-0.0036
5.725,-0.0043
5.726,-0.0036
5.727,-0.0081
5.728,-0.0063
5.729,-0.0047
5.73,0.0008
5.731,0.0016
5.732,0.0021
5.733,0.0027
5.734,0.0032
5.735,0.0028
5.736,0.0032
5.737,-0.0006
5.738,-0.003
5.739,-0.0034
5.74,0.0021
5.741,-0.0017
5.742,-0.0036
5.743,-0.0041
5.744,-0.0025
5.745,0.0021
5.746,0.0003
5.747,0.0008
5.748,-0.0025
5.749,-0.0021
5.75,0.0017
5.751,-0.0016
5.752,0.0006
5.753,0.0017
5.754,-0.0001
5.755,-0.0041
5.756,-0.0074
5.757,-0.0005
5.758,0.0005
5.759,-0.0005
5.76,0.012
5.761,0.0065
5.762,-0.0017
5.763,-0.0001
5.764,0.0043
5.765,0.0003
5.766,-0.0008
5.767,0.0003
5.768,0.0052
5.769,0.0173
5.77,0.0124
5.771,0.008
5.772,0.0012
5.773,-0.0023
5.774,-0.0034
5.775,-0.0043
5.776,-0.007
5.777,-0.003
5.778,0.0023
5.779,-0.001
5.78,-0.0054
5.781,-0.007
5.782,-0.0058
5.783,-0.0027
5.784,0.0001
5.785,0.0027
5.786,0.006
5.787,0.0021
5.788,0.0008
5.789,-0.0005
5.79,-0.0001
5.791,0.0056
5.792,0.0032
5.793,0.0025
5.794,0.0019
5.795,-0.0025
5.796,0.0003
5.797,-0.003
5.798,-0.0008
5.799,-0.0036
5.8,-0.0025
5.801,-0.0021
5.802,-0.0023
5.803,-0.001
5.804,0.0014
5.805,-0.0001
5.806,-0.0014
5.807,-0.0016
5.808,-0.0037
5.809,-0.0036
5.81,-0.0017
5.811,-0.0032
5.812,-0.0047
5.813,-0.0017
5.814,-0.0008
5.815,0.003
5.816,0.0105
5.817,0.0162
5.818,0.0071
5.819,0.006
5.82,-0.0019
5.821,0.003
5.822,-0.0034
5.823,-0.0058
5.824,-0.0005
5.825,0.0041
5.826,0.0072
5.827,-0.0012
5.828,-0.0023
5.829,-0.0034
5.83,-0.0005
5.831,0.0023
5.832,0.0016
5.833,-0.0037
5.834,-0.0032
5.835,-0.0014
5.836,-0.0008
5.837,-0.0032
5.838,-0.0019
5.839,-0.0047
5.84,0.001
5.841,0.0003
5.842,-0.0019
5.843,-0.0037
5.844,-0.0032
5.845,-0.0037
5.846,-0.0034
5.847,-0.0047
5.848,-0.0019
5.849,0.0016
5.85,0.0003
5.851,0.0058
5.852,0.008
5.853,0.0017
5.854,0.0025
5.855,-0.0028
5.856,-0.001
5.857,0.0008
5.858,0.0014
5.859,0.0001
5.86,-0.0059
5.861,-0.0003
5.862,-0.001
5.863,-0.0043
5.864,-0.0037
5.865,0.0006
5.866,-0.001
5.867,0.0065
5.868,0.0076
5.869,0.0168
5.87,0.0056
5.871,-0.0019
5.872,-0.0032
5.873,-0.0067
5.874,-0.0034
5.875,-0.0025
5.876,-0.0034
5.877,-0.0027
5.878,-0.0005
5.879,0.0001
5.88,-0.0005
5.881,0.0012
5.882,-0.0012
5.883,0.0001
5.884,0.0021
5.885,0.0032
5.886,-0.0008
5.887,0.0038
5.888,0.0069
5.889,0.0017
5.89,0.0012
5.891,-0.0045
5.892,0.0008
5.893,-0.0037
5.894,-0.0006
5.895,-0.0012
5.896,-0.0025
5.897,-0.0047
5.898,-0.0036
5.899,-0.0047
5.9,-0.005
5.901,-0.003
5.902,0.0012
5.903,0.0017
5.904,-0.001
5.905,-0.0023
5.906,0.0028
5.907,-0.0017
5.908,-0.0012
5.909,0.0039
5.91,0.0021
5.911,0.0027
5.912,0.0054
5.913,0.0021
5.914,-0.001
5.915,-0.003
5.916,0.0006
5.917,0.0017
5.918,0.0072
5.919,0.0094
5.92,0.01
5.921,0.0082
5.922,0.0109
5.923,0.0034
5.924,-0.0091
5.925,-0.0041
5.926,-0.0056
5.927,-0.0043
5.928,-0.0032
5.929,-0.0043
5.93,-0.0052
5.931,-0.0025
5.932,-0.0048
5.933,-0.0041
5.934,-0.0036
5.935,-0.0054
5.936,-0.0037
5.937,-0.0005
5.938,-0.0027
5.939,-0.0054
5.94,-0.0012
5.941,-0.0039
5.942,0.0016
5.943,0.0054
5.944,0.0049
5.945,0.0043
5.946,0.0016
5.947,-0.003
5.948,0.0027
5.949,0.0019
5.95,0.0001
5.951,-0.0017
5.952,0.0034
5.953,-0.0012
5.954,-0.0043
5.955,-0.0037
5.956,-0.007
5.957,-0.0048
5.958,-0.0028
5.959,-0.0017
5.96,-0.0036
5.961,-0.0021
5.962,-0.0003
5.963,-0.0021
5.964,-0.0036
5.965,-0.0021
5.966,-0.0016
5.967,0.005
5.968,0.0034
5.969,0.0067
5.97,0.0098
5.971,0.0102
5.972,0.0158
5.973,0.0182
5.974,0.0067
5.975,0.0017
5.976,0.0003
5.977,-0.001
5.978,-0.0021
5.979,-0.001
5.98,-0.0001
5.981,-0.0047
5.982,-0.0054
5.983,-0.0076
5.984,-0.0122
5.985,-0.0078
5.986,-0.0072
5.987,-0.0017
5.988,0.0021
5.989,0.0003
5.99,0.0034
5.991,0.0061
5.992,0.0094
5.993,0.0034
5.994,0.001
5.995,0.0017
5.996,0.0036
5.997,0.0017
5.998,0.0034
5.999,0.003
6,-0.0001
6.001,-0.0012
6.002,-0.0023
6.003,-0.0056
6.004,-0.0017
6.005,-0.0021
6.006,0.003
6.007,-0.0003
6.008,0.0003
6.009,-0.0003
6.01,-0.0078
6.011,-0.0021
6.012,0.0008
6.013,-0.0037
6.014,-0.0078
6.015,-0.0025
6.016,-0.0006
6.017,0.0025
6.018,0.0006
6.019,0.0069
6.02,0.0144
6.021,0.0074
6.022,0.0158
6.023,0.008
6.024,0.001
6.025,-0.0054
6.026,-0.0047
6.027,-0.0069
6.028,-0.0063
6.029,-0.0069
6.03,-0.0085
6.031,-0.001
6.032,0.0047
6.033,-0.0003
6.034,-0.0012
6.035,-0.0005
6.036,0.0003
6.037,-0.0003
6.038,0.0016
6.039,-0.0001
6.04,-0.0025
6.041,-0.0021
6.042,-0.0048
6.043,-0.0045
6.044,0.001
6.045,-0.0012
6.046,-0.0006
6.047,-0.0025
6.048,-0.0052
6.049,-0.0019
6.05,0.0012
6.051,-0.0008
6.052,0.0017
6.053,0.0072
6.054,0.008
6.055,-0.0023
6.056,-0.0067
6.057,-0.0054
6.058,-0.0019
6.059,-0.0008
6.06,0.0021
6.061,0.003
6.062,0.0023
6.063,0.0001
6.064,-0.0005
6.065,0.0001
6.066,0.0017
6.067,0.003
6.068,0.0008
6.069,0.005
6.07,0.0023
6.071,0.008
6.072,-0.0045
6.073,0.012
6.074,0.0054
6.075,-0.0006
6.076,-0.0061
6.077,-0.0045
6.078,-0.0001
6.079,-0.0069
6.08,-0.0058
6.081,-0.0069
6.082,-0.0019
6.083,-0.001
6.084,-0.0017
6.085,-0.001
6.086,0.0052
6.087,0.0028
6.088,0.0113
6.089,0.0102
6.09,0.0131
6.091,0.014
6.092,0.018
6.093,0.0219
6.094,0.0237
6.095,0.0255
6.096,0.0283
6.097,0.0237
6.098,0.018
6.099,0.0158
6.1,0.0113
6.101,0.0082
6.102,0.0008
6.103,-0.0144
6.104,-0.0298
6.105,-0.0439
6.106,-0.0493
6.107,-0.0576
6.108,-0.0651
6.109,-0.0638
6.11,-0.0554
6.111,-0.0451
6.112,-0.0464
6.113,-0.0429
6.114,-0.0554
6.115,-0.0803
6.116,-0.0909
6.117,-0.1004
6.118,-0.1092
6.119,-0.1334
6.12,-0.1429
6.121,-0.1398
6.122,-0.1369
6.123,-0.1182
6.124,-0.1206
6.125,-0.0874
6.126,-0.0349
6.127,0.0422
6.128,0.1552
6.129,0.2002
6.13,0.2138
6.131,0.2262
6.132,0.1925
6.133,0.1823
6.134,0.1356
6.135,0.1103
6.136,0.0873
6.137,0.0803
6.138,0.0741
6.139,0.1028
6.14,0.1079
6.141,0.1317
6.142,0.136
6.143,0.1242
6.144,0.1277
6.145,0.1116
6.146,0.1028
6.147,0.1003
6.148,0.0735
6.149,0.0342
6.15,0.008
6.151,0.0032
6.152,-0.001
6.153,0.0028
6.154,-0.0006
6.155,-0.0168
6.156,-0.0374
6.157,-0.0349
6.158,-0.042
6.159,-0.0486
6.16,-0.0547
6.161,-0.0492
6.162,-0.0607
6.163,-0.0711
6.164,-0.0752
6.165,-0.0691
6.166,-0.0658
6.167,-0.0688
6.168,-0.0623
6.169,-0.0631
6.17,-0.0653
6.171,-0.0587
6.172,-0.0649
6.173,-0.0574
6.174,-0.0565
6.175,-0.0481
6.176,-0.0514
6.177,-0.0583
6.178,-0.0499
6.179,-0.0532
6.18,-0.0482
6.181,-0.0418
6.182,-0.0362
6.183,-0.0308
6.184,-0.0219
6.185,-0.0208
6.186,-0.0175
6.187,-0.0083
6.188,-0.0048
6.189,-0.0081
6.19,-0.0052
6.191,-0.0061
6.192,-0.0037
6.193,-0.0045
6.194,-0.0039
6.195,0.0017
6.196,0.0056
6.197,0.0023
6.198,0.0054
6.199,0.0038
6.2,0.0071
6.201,0.0039
6.202,0.0067
6.203,0.0093
6.204,0.0103
6.205,0.0118
6.206,0.0076
6.207,0.0071
6.208,0.0076
6.209,0.0072
6.21,0.0076
6.211,0.0103
6.212,0.0138
6.213,0.0107
6.214,0.0069
6.215,0.0102
6.216,0.0124
6.217,0.0127
6.218,0.0116
6.219,0.0069
6.22,0.005
6.221,0.0078
6.222,0.0043
6.223,0.0118
6.224,0.0151
6.225,0.0142
6.226,0.0021
6.227,0.0171
6.228,0.003
6.229,0.0049
6.23,0.0032
6.231,0.0017
6.232,0.0005
6.233,0.0039
6.234,0.005
6.235,0.006
6.236,0.0014
6.237,0.0038
6.238,-0.0016
6.239,-0.0034
6.24,-0.0028
6.241,-0.0045
6.242,0.001
6.243,0.0049
6.244,0.0067
6.245,0.0036
6.246,0.0008
6.247,0.0032
6.248,0.0045
6.249,0.0006
6.25,0.0039
6.251,0.0027
6.252,0.0054
6.253,-0.0003
6.254,0.0072
6.255,0.0023
6.256,-0.0023
6.257,-0.0016
6.258,-0.0008
6.259,0.001
6.26,-0.0047
6.261,-0.0025
6.262,-0.003
6.263,-0.0048
6.264,-0.0021
6.265,-0.0025
6.266,-0.0012
6.267,0.0016
6.268,-0.001
6.269,0.0045
6.27,0.0006
6.271,0.0082
6.272,0.0052
6.273,-0.0037
6.274,0.0008
6.275,0.0065
6.276,0.0012
6.277,0.0017
6.278,0.0074
6.279,0.0158
6.28,0.0056
6.281,0.0069
6.282,-0.0016
6.283,-0.0027
6.284,0.0003
6.285,0.003
6.286,-0.001
6.287,0.0028
6.288,0.0034
6.289,-0.0061
6.29,-0.0102
6.291,-0.0041
6.292,-0.0052
6.293,-0.0043
6.294,0.0003
6.295,0.001
6.296,-0.0012
6.297,-0.0017
6.298,-0.0012
6.299,0.0027
6.3,0.0039
6.301,-0.0003
6.302,-0.003
6.303,-0.0063
6.304,-0.0003
6.305,-0.001
6.306,-0.0048
6.307,-0.0094
6.308,-0.0063
6.309,-0.0058
6.31,-0.0034
6.311,-0.0047
6.312,-0.0019
6.313,0.0006
6.314,0.0025
6.315,0.0005
6.316,0.0041
6.317,-0.0034
6.318,-0.0001
6.319,0.0028
6.32,-0.0017
6.321,0.0039
6.322,0.0001
6.323,-0.0005
6.324,-0.0016
6.325,-0.001
6.326,0.0074
6.327,0.0063
6.328,0.003
6.329,0.006
6.33,0.005
6.331,0.0125
6.332,-0.0027
6.333,-0.0136
6.334,0.0005
6.335,-0.0014
6.336,-0.003
6.337,-0.0016
6.338,-0.0003
6.339,-0.0063
6.34,-0.003
6.341,0.0019
6.342,-0.0045
6.343,-0.0052
6.344,-0.0091
6.345,-0.0028
6.346,-0.0005
6.347,-0.0012
6.348,0.0034
6.349,0.0003
6.35,-0.0036
6.351,-0.0003
6.352,-0.0006
6.353,-0.0034
6.354,-0.0008
6.355,0.0017
6.356,0.001
6.357,-0.0032
6.358,-0.0063
6.359,-0.008
6.36,-0.0025
6.361,-0.0047
6.362,-0.0065
6.363,-0.0059
6.364,-0.0021
6.365,0.0025
6.366,0.003
6.367,0.0047
6.368,0.008
6.369,0.001
6.37,0.0019
6.371,0.0028
6.372,0.0005
6.373,0.0058
6.374,0.0039
6.375,-0.0023
6.376,-0.0017
6.377,0.0067
6.378,0.0032
6.379,0.0135
6.38,0.0147
6.381,0.0063
6.382,0.0006
6.383,-0.0003
6.384,0.0025
6.385,0.0049
6.386,0.0041
6.387,0.0023
6.388,0.0005
6.389,-0.0001
6.39,0.0003
6.391,-0.0019
6.392,0.0008
6.393,-0.0003
6.394,-0.0036
6.395,-0.0063
6.396,-0.0067
6.397,-0.0027
6.398,0.0028
6.399,0.0036
6.4,-0.0027
6.401,-0.0003
6.402,0.0005
6.403,-0.0014
6.404,-0.0058
6.405,-0.0041
6.406,-0.0054
6.407,-0.0012
6.408,0.0005
6.409,-0.0019
6.41,-0.0016
6.411,0.0012
6.412,0.0047
6.413,-0.0023
6.414,-0.0052
6.415,-0.0025
6.416,0.0016
6.417,0.0023
6.418,0.0005
6.419,0.0036
6.42,-0.0016
6.421,0.0017
6.422,0.0023
6.423,0.0006
6.424,-0.0048
6.425,-0.0056
6.426,-0.0016
6.427,0.0003
6.428,0.0098
6.429,0.003
6.43,0.0142
6.431,0.0098
6.432,0.0003
6.433,-0.0008
6.434,-0.0041
6.435,0.0028
6.436,-0.0017
6.437,0.0039
6.438,0.0001
6.439,-0.0045
6.44,-0.005
6.441,-0.0078
6.442,-0.0054
6.443,-0.0023
6.444,-0.0019
6.445,-0.0054
6.446,-0.0058
6.447,-0.0047
6.448,0.001
6.449,-0.003
6.45,-0.0008
6.451,0.0082
6.452,0.0116
6.453,0.0083
6.454,0.0014
6.455,0.0005
6.456,0.0012
6.457,0.0019
6.458,-0.0027
6.459,-0.007
6.46,-0.0043
6.461,-0.0039
6.462,-0.0017
6.463,0.0038
6.464,0.0016
6.465,-0.0003
6.466,-0.0034
6.467,0.0005
6.468,0.0028
6.469,0.0025
6.47,0.0014
6.471,-0.0005
6.472,-0.0037
6.473,-0.0083
6.474,-0.0078
6.475,-0.0027
6.476,-0.0021
6.477,0.0006
6.478,0.0063
6.479,0.0116
6.48,0.0083
6.481,0.0052
6.482,0.0136
6.483,0.0147
6.484,0.0045
6.485,-0.0023
6.486,-0.0012
6.487,0.0021
6.488,-0.0008
6.489,-0.0036
6.49,-0.0043
6.491,-0.005
6.492,-0.0032
6.493,-0.005
6.494,0.0001
6.495,0.0019
6.496,-0.0025
6.497,-0.0063
6.498,-0.003
6.499,-0.0072
6.5,-0.0034
6.501,-0.003
6.502,-0.0034
6.503,-0.0014
6.504,-0.0025
6.505,-0.0006
6.506,-0.0014
6.507,0.0023
6.508,-0.0032
6.509,-0.0025
6.51,-0.0043
6.511,-0.0048
6.512,0.0014
6.513,0.0006
6.514,-0.0016
6.515,0.003
6.516,0.0025
6.517,0.0041
6.518,0.0054
6.519,0.0032
6.52,0.0021
6.521,0.001
6.522,0.0028
6.523,-0.0005
6.524,-0.0001
6.525,-0.0028
6.526,-0.0032
6.527,-0.0058
6.528,-0.0023
6.529,-0.0016
6.53,0.0027
6.531,0.0122
6.532,0.0109
6.533,0.0049
6.534,-0.003
6.535,-0.0001
6.536,0.0008
6.537,-0.0016
6.538,-0.0008
6.539,-0.0027
6.54,-0.0058
6.541,-0.0019
6.542,-0.0032
6.543,0.0038
6.544,0.0028
6.545,-0.0036
6.546,-0.0028
6.547,0.001
6.548,0.0028
6.549,0.0047
6.55,-0.0027
6.551,-0.0036
6.552,-0.0081
6.553,-0.0041
6.554,-0.0048
6.555,-0.0016
6.556,0.0028
6.557,-0.0023
6.558,-0.0041
6.559,-0.0023
6.56,-0.0028
6.561,0.0027
6.562,0.0065
6.563,0.0019
6.564,-0.005
6.565,-0.0005
6.566,-0.0028
6.567,-0.0006
6.568,-0.0069
6.569,-0.0012
6.57,-0.0005
6.571,-0.001
6.572,0.0021
6.573,0.0016
6.574,0.0019
6.575,0.0006
6.576,-0.0005
6.577,-0.003
6.578,-0.0027
6.579,0.0006
6.58,-0.0001
6.581,0.0041
6.582,0.0047
6.583,-0.0027
6.584,0.0125
6.585,0.0103
6.586,0.0003
6.587,0.0021
6.588,0.0005
6.589,-0.0039
6.59,-0.0052
6.591,-0.0017
6.592,-0.005
6.593,-0.0059
6.594,-0.0032
6.595,-0.0008
6.596,-0.003
6.597,-0.0036
6.598,-0.0041
6.599,0.0043
6.6,0.0054
6.601,-0.0003
6.602,-0.0012
6.603,0.0034
6.604,-0.0023
6.605,0.003
6.606,-0.0032
6.607,-0.0008
6.608,0.0014
6.609,0.0032
6.61,0.0027
6.611,0.001
6.612,0.0034
6.613,-0.0036
6.614,0.0014
6.615,0.0023
6.616,-0.0001
6.617,0.0006
6.618,-0.0012
6.619,0.0019
6.62,0.0003
6.621,-0.001
6.622,-0.0061
6.623,-0.0043
6.624,-0.0061
6.625,-0.0045
6.626,-0.0048
6.627,-0.0027
6.628,0.0001
6.629,0.0005
6.63,0.0014
6.631,-0.0034
6.632,0.0061
6.633,0.0102
6.634,0.0113
6.635,-0.0058
6.636,-0.0034
6.637,0.0032
6.638,0.0052
6.639,-0.0003
6.64,-0.0019
6.641,-0.0034
6.642,-0.0021
6.643,-0.001
6.644,-0.0021
6.645,-0.005
6.646,-0.0059
6.647,-0.0067
6.648,-0.0045
6.649,-0.0027
6.65,-0.0045
6.651,-0.0017
6.652,0.0058
6.653,0.0025
6.654,0.0016
6.655,0.0006
6.656,-0.005
6.657,-0.0012
6.658,-0.0058
6.659,-0.0027
6.66,-0.0078
6.661,-0.0032
6.662,0.0063
6.663,0.0076
6.664,0.0041
6.665,0.0008
6.666,0.0038
6.667,0.0028
6.668,-0.0028
6.669,0.0072
6.67,0.0032
6.671,0.0067
6.672,-0.0012
6.673,-0.0061
6.674,-0.0052
6.675,0.0005
6.676,-0.0017
6.677,-0.0012
6.678,-0.0017
6.679,-0.0069
6.68,-0.0036
6.681,-0.0059
6.682,-0.0016
6.683,0.0069
6.684,0.0034
6.685,0.0204
6.686,0.0133
6.687,0.0023
6.688,-0.0037
6.689,-0.0092
6.69,-0.001
6.691,0.0005
6.692,0.0017
6.693,0.0052
6.694,0.0019
6.695,0.0028
6.696,-0.0017
6.697,-0.0025
6.698,-0.0003
6.699,-0.0008
6.7,-0.0003
6.701,-0.0041
6.702,-0.0045
6.703,-0.0014
6.704,-0.0041
6.705,0.0016
6.706,0.014
6.707,0.0012
6.708,-0.0037
6.709,-0.0023
6.71,-0.0036
6.711,-0.0047
6.712,-0.008
6.713,-0.005
6.714,-0.0059
6.715,-0.0052
6.716,-0.0045
6.717,-0.0012
6.718,-0.0017
6.719,0.0034
6.72,0.0039
6.721,0.0083
6.722,0.0078
6.723,0.0045
6.724,0.0049
6.725,-0.0014
6.726,0.0014
6.727,-0.0027
6.728,-0.0048
6.729,-0.0054
6.73,-0.0048
6.731,-0.0054
6.732,-0.003
6.733,0.0025
6.734,0.0125
6.735,0.003
6.736,0.0019
6.737,0.0098
6.738,0.0006
6.739,-0.0105
6.74,0.003
6.741,-0.0061
6.742,-0.0045
6.743,0.006
6.744,0.0019
6.745,-0.0065
6.746,-0.0032
6.747,-0.0003
6.748,-0.003
6.749,-0.0037
6.75,0.0032
6.751,-0.0052
6.752,-0.0019
6.753,0.0093
6.754,0.0078
6.755,0.0038
6.756,0.0003
6.757,-0.0008
6.758,0.0001
6.759,-0.0045
6.76,-0.0052
6.761,-0.0014
6.762,0.0005
6.763,-0.0014
6.764,-0.0087
6.765,-0.0078
6.766,-0.005
6.767,-0.001
6.768,0.0028
6.769,-0.0005
6.77,0.0014
6.771,-0.0003
6.772,0.0021
6.773,0.0008
6.774,0.0005
6.775,-0.0014
6.776,-0.0003
6.777,0.0005
6.778,-0.0003
6.779,0.0016
6.78,0.005
6.781,0.0017
6.782,0.0039
6.783,0.0036
6.784,0.0056
6.785,0.006
6.786,0.0093
6.787,0.0113
6.788,0.0056
6.789,-0.0069
6.79,-0.005
6.791,-0.0034
6.792,0.001
6.793,-0.0003
6.794,-0.0037
6.795,0.0019
6.796,0.001
6.797,-0.0054
6.798,0.0003
6.799,-0.0005
6.8,-0.001
6.801,-0.0028
6.802,0.001
6.803,0.0006
6.804,0.0028
6.805,-0.0017
6.806,0.0001
6.807,0.0006
6.808,-0.0006
6.809,-0.0067
6.81,-0.0043
6.811,-0.005
6.812,-0.0069
6.813,-0.0025
6.814,-0.0019
6.815,0.0005
6.816,0.0001
6.817,0.0021
6.818,-0.0021
6.819,-0.0048
6.82,0.0017
6.821,0.0063
6.822,-0.0012
6.823,-0.0003
6.824,0.0043
6.825,-0.0014
6.826,-0.0006
6.827,0.0069
6.828,0.006
6.829,-0.0005
6.83,0.0036
6.831,0.0058
6.832,-0.0017
6.833,0.0012
6.834,-0.0045
6.835,-0.0017
6.836,0.0107
6.837,0.0162
6.838,0.0146
6.839,0.001
6.84,-0.0081
6.841,-0.0065
6.842,-0.005
6.843,-0.0063
6.844,-0.0052
6.845,0.0027
6.846,0.0017
6.847,0.0045
6.848,0.0021
6.849,-0.0032
6.85,-0.0014
6.851,0.0005
6.852,0.001
6.853,-0.0014
6.854,0.0017
6.855,0.008
6.856,0.0016
6.857,-0.0109
6.858,-0.0091
6.859,-0.0008
6.86,-0.0052
6.861,-0.0065
6.862,-0.003
6.863,-0.0041
6.864,-0.0032
6.865,0.0014
6.866,-0.0043
6.867,-0.0036
6.868,-0.0041
6.869,0.0054
6.87,0.0094
6.871,0.006
6.872,0.0049
6.873,-0.0001
6.874,0.0008
6.875,-0.0032
6.876,-0.007
6.877,-0.0076
6.878,-0.0081
6.879,-0.0019
6.88,0.0005
6.881,0.0027
6.882,0.0045
6.883,0.0063
6.884,0.0025
6.885,0.0043
6.886,0.0067
6.887,0.0127
6.888,0.0103
6.889,0.005
6.89,-0.0052
6.891,0.0083
6.892,0.0028
6.893,-0.0054
6.894,0.0021
6.895,-0.0019
6.896,-0.0054
6.897,-0.0065
6.898,-0.0016
6.899,0.003
6.9,0.0023
6.901,0.003
6.902,-0.0016
6.903,-0.0034
6.904,-0.005
6.905,0.0005
6.906,0.0027
6.907,0.0021
6.908,0.0027
6.909,0.0043
6.91,-0.0003
6.911,-0.0034
6.912,-0.0017
6.913,-0.0014
6.914,-0.0083
6.915,-0.0092
6.916,-0.0065
6.917,-0.0008
6.918,0.0014
6.919,0.0008
6.92,0.0003
6.921,0.0019
6.922,0.0023
6.923,-0.0019
6.924,-0.0047
6.925,-0.0023
6.926,0.0008
6.927,-0.0019
6.928,-0.0061
6.929,-0.0023
6.93,-0.0027
6.931,-0.0039
6.932,0.0006
6.933,0.0038
6.934,0.0032
6.935,0.0045
6.936,0.0014
6.937,0.0017
6.938,0.008
6.939,0.0016
6.94,0.0039
6.941,0.0109
6.942,0.0063
6.943,-0.0028
6.944,-0.0017
6.945,-0.0028
6.946,0.0001
6.947,-0.0027
6.948,-0.0019
6.949,0.0019
6.95,0.0052
6.951,0.0034
6.952,-0.0039
6.953,-0.0048
6.954,-0.0039
6.955,-0.0063
6.956,-0.0041
6.957,0.0005
6.958,-0.0014
6.959,-0.0065
6.96,-0.0032
6.961,-0.0014
6.962,0.0014
6.963,-0.0019
6.964,-0.0061
6.965,-0.0023
6.966,0.001
6.967,0.0052
6.968,0.0047
6.969,0.0014
6.97,0.0001
6.971,0.0021
6.972,-0.0014
6.973,-0.0027
6.974,-0.0047
6.975,-0.0043
6.976,-0.001
6.977,0.0017
6.978,0.0021
6.979,0.0003
6.98,-0.0043
6.981,-0.001
6.982,-0.0005
6.983,0.0034
6.984,0.0001
6.985,0.0023
6.986,0.0034
6.987,0.0087
6.988,0.0076
6.989,0.0109
6.99,0.0047
6.991,-0.0037
6.992,-0.0048
6.993,0.0001
6.994,-0.0008
6.995,0.01
6.996,0.0144
6.997,0.0021
6.998,-0.0028
6.999,-0.0014
7,0.0054
7.001,0.0089
7.002,0.0122
7.003,0.0113
7.004,0.014
7.005,0.0147
7.006,0.0263
7.007,0.0312
7.008,0.0298
7.009,0.031
7.01,0.025
7.011,0.0171
7.012,0.0102
7.013,0.0074
7.014,0.005
7.015,-0.0065
7.016,-0.0314
7.017,-0.042
7.018,-0.0515
7.019,-0.0603
7.02,-0.0682
7.021,-0.0514
7.022,-0.036
7.023,-0.034
7.024,-0.0468
7.025,-0.0684
7.026,-0.0832
7.027,-0.0911
7.028,-0.1178
7.029,-0.1284
7.03,-0.138
7.031,-0.1528
7.032,-0.1607
7.033,-0.1535
7.034,-0.1557
7.035,-0.1295
7.036,-0.1118
7.037,-0.0825
7.038,-0.0162
7.039,0.0429
7.04,0.17
7.041,0.2246
7.042,0.2411
7.043,0.226
7.044,0.1852
7.045,0.1479
7.046,0.1367
7.047,0.1264
7.048,0.1171
7.049,0.1087
7.05,0.1317
7.051,0.1526
7.052,0.1588
7.053,0.1645
7.054,0.1594
7.055,0.1451
7.056,0.1149
7.057,0.1032
7.058,0.0997
7.059,0.064
7.06,0.021
7.061,0.0038
7.062,-0.0014
7.063,-0.0061
7.064,-0.0103
7.065,-0.0221
7.066,-0.0186
7.067,-0.0347
7.068,-0.0376
7.069,-0.0455
7.07,-0.0526
7.071,-0.046
7.072,-0.0481
7.073,-0.0609
7.074,-0.0691
7.075,-0.0647
7.076,-0.0634
7.077,-0.06
7.078,-0.0678
7.079,-0.0609
7.08,-0.0693
7.081,-0.0726
7.082,-0.0796
7.083,-0.0768
7.084,-0.0808
7.085,-0.077
7.086,-0.0708
7.087,-0.0651
7.088,-0.055
7.089,-0.0543
7.09,-0.0503
7.091,-0.0318
7.092,-0.0343
7.093,-0.0367
7.094,-0.0213
7.095,-0.0193
7.096,-0.0211
7.097,-0.0195
7.098,-0.018
7.099,-0.0193
7.1,-0.0133
7.101,-0.0122
7.102,-0.0052
7.103,-0.0043
7.104,0.0082
7.105,0.01
7.106,0.0017
7.107,0.0032
7.108,0.0045
7.109,0.008
7.11,0.0047
7.111,0.0116
7.112,0.0089
7.113,0.0049
7.114,0.0027
7.115,0.0072
7.116,0.0054
7.117,0.0105
7.118,0.0111
7.119,0.0116
7.12,0.0078
7.121,0.0111
7.122,0.0153
7.123,0.0125
7.124,0.0149
7.125,0.0171
7.126,0.0116
7.127,0.0094
7.128,0.01
7.129,0.0105
7.13,0.0032
7.131,0.0041
7.132,0.0069
7.133,0.0109
7.134,0.0087
7.135,0.0105
7.136,0.0136
7.137,0.0175
7.138,0.0142
7.139,0.0072
7.14,0.0021
7.141,0.0071
7.142,0.0155
7.143,0.0188
7.144,0.0076
7.145,0.0001
7.146,-0.0012
7.147,-0.0001
7.148,0.0032
7.149,0.0041
7.15,0.0014
7.151,0.0021
7.152,-0.008
7.153,-0.0039
7.154,-0.0005
7.155,-0.0083
7.156,-0.0034
7.157,0.003
7.158,0.0006
7.159,0.0122
7.16,0.0105
7.161,0.0001
7.162,-0.0012
7.163,-0.0072
7.164,-0.0016
7.165,0.0054
7.166,0.0045
7.167,0.0102
7.168,0.0155
7.169,0.0136
7.17,0.008
7.171,0.001
7.172,0.0001
7.173,-0.0039
7.174,-0.0047
7.175,-0.0028
7.176,-0.0047
7.177,-0.0063
7.178,-0.0096
7.179,-0.0092
7.18,-0.012
7.181,-0.0085
7.182,-0.0034
7.183,0.0012
7.184,0.003
7.185,0.0069
7.186,0.0056
7.187,0.0034
7.188,0.0061
7.189,0.0005
7.19,0.0028
7.191,0.0021
7.192,-0.0032
7.193,0.003
7.194,0.0105
7.195,0.0096
7.196,0.0069
7.197,-0.0006
7.198,-0.0076
7.199,-0.0067
7.2,0.0008
7.201,0.0058
7.202,0.0012
7.203,0.0052
7.204,-0.0032
7.205,-0.0043
7.206,-0.0014
7.207,-0.0078
7.208,-0.007
7.209,-0.0032
7.21,0.003
7.211,0.0006
7.212,-0.0001
7.213,0.0061
7.214,0.0021
7.215,-0.0001
7.216,-0.0047
7.217,-0.0003
7.218,0.0003
7.219,-0.001
7.22,0.0021
7.221,0.0025
7.222,-0.0025
7.223,-0.0043
7.224,-0.0048
7.225,-0.001
7.226,-0.0034
7.227,-0.0047
7.228,-0.0019
7.229,0.0023
7.23,0.0017
7.231,0.005
7.232,-0.001
7.233,0.0047
7.234,-0.0023
7.235,0.0005
7.236,-0.0052
7.237,-0.003
7.238,0.0003
7.239,-0.0016
7.24,-0.0054
7.241,-0.0067
7.242,-0.0045
7.243,-0.0014
7.244,0.0032
7.245,-0.005
7.246,0.0052
7.247,0.0012
7.248,-0.0048
7.249,-0.0037
7.25,0.0074
7.251,0.0149
7.252,0.019
7.253,0.0054
7.254,-0.0001
7.255,-0.0017
7.256,-0.0092
7.257,-0.0105
7.258,-0.0094
7.259,0.0008
7.26,-0.0005
7.261,-0.0039
7.262,-0.0006
7.263,-0.0056
7.264,-0.0028
7.265,-0.0036
7.266,-0.0014
7.267,0.0049
7.268,0.0041
7.269,-0.0012
7.27,0.0034
7.271,-0.0048
7.272,-0.0016
7.273,0.0014
7.274,0.0023
7.275,0.0114
7.276,0.003
7.277,-0.0048
7.278,-0.0039
7.279,-0.0012
7.28,0.0012
7.281,-0.0041
7.282,-0.0023
7.283,0.0072
7.284,0.0085
7.285,0.0025
7.286,0.0014
7.287,0.0023
7.288,0.0014
7.289,-0.0061
7.29,-0.0032
7.291,0.0071
7.292,0.003
7.293,-0.0023
7.294,-0.0034
7.295,0.0136
7.296,0.0113
7.297,0.0047
7.298,0.0107
7.299,-0.0058
7.3,-0.0124
7.301,-0.0023
7.302,-0.0041
7.303,0.0041
7.304,-0.0034
7.305,-0.0021
7.306,-0.0032
7.307,0.0047
7.308,0.0056
7.309,-0.0028
7.31,0.005
7.311,-0.0019
7.312,-0.0047
7.313,-0.0054
7.314,0.003
7.315,0.0019
7.316,-0.001
7.317,0.0036
7.318,-0.0021
7.319,0.0032
7.32,0.0027
7.321,-0.0043
7.322,-0.0016
7.323,-0.0091
7.324,-0.0081
7.325,-0.0127
7.326,-0.0036
7.327,-0.0001
7.328,-0.0058
7.329,-0.0008
7.33,0.0038
7.331,0.0014
7.332,0.0006
7.333,-0.0056
7.334,-0.0048
7.335,-0.001
7.336,-0.0043
7.337,-0.0048
7.338,0.0036
7.339,0.0047
7.34,-0.0032
7.341,0.0017
7.342,-0.0047
7.343,-0.0006
7.344,-0.0008
7.345,-0.0016
7.346,0.0087
7.347,0.0012
7.348,0.0107
7.349,0.0047
7.35,-0.0032
7.351,0.0017
7.352,-0.0028
7.353,-0.0005
7.354,-0.0012
7.355,-0.0006
7.356,-0.0001
7.357,-0.0039
7.358,-0.0043
7.359,-0.003
7.36,-0.0041
7.361,-0.003
7.362,-0.0041
7.363,0.0005
7.364,0.0038
7.365,0.0043
7.366,0.0016
7.367,0.0082
7.368,-0.0003
7.369,0.0008
7.37,-0.0001
7.371,-0.0028
7.372,0.0012
7.373,-0.0041
7.374,0.0021
7.375,0.0028
7.376,0.0036
7.377,0.0054
7.378,0.001
7.379,-0.0006
7.38,-0.003
7.381,-0.0043
7.382,-0.0039
7.383,-0.0043
7.384,0.0005
7.385,-0.0014
7.386,-0.0019
7.387,-0.0065
7.388,-0.0021
7.389,-0.0027
7.39,-0.0039
7.391,-0.007
7.392,-0.0059
7.393,-0.0041
7.394,0.0014
7.395,0.0087
7.396,0.0109
7.397,0.0171
7.398,0.008
7.399,0.0114
7.4,-0.0056
7.401,0.0113
7.402,0.0003
7.403,-0.0017
7.404,-0.0036
7.405,-0.0019
7.406,-0.0005
7.407,-0.0072
7.408,-0.0107
7.409,-0.0186
7.41,-0.0136
7.411,-0.0052
7.412,-0.0019
7.413,-0.001
7.414,0.0074
7.415,0.0131
7.416,0.0019
7.417,-0.0056
7.418,0.0012
7.419,0.0023
7.42,0.0012
7.421,-0.0017
7.422,0.001
7.423,0.0017
7.424,0.0071
7.425,-0.0019
7.426,-0.0054
7.427,-0.0065
7.428,-0.0016
7.429,-0.0043
7.43,-0.0019
7.431,-0.0058
7.432,-0.0025
7.433,-0.0043
7.434,-0.0005
7.435,-0.0028
7.436,0.0003
7.437,-0.0025
7.438,0.0032
7.439,0.0008
7.44,0.0016
7.441,-0.0017
7.442,-0.0012
7.443,-0.0039
7.444,-0.0016
7.445,0.0045
7.446,0.005
7.447,0.0027
7.448,0.008
7.449,0.0034
7.45,-0.0036
7.451,0.0103
7.452,0.0043
7.453,-0.0012
7.454,0.0005
7.455,-0.001
7.456,0.0003
7.457,-0.0008
7.458,-0.0041
7.459,-0.0091
7.46,-0.01
7.461,-0.0043
7.462,-0.0065
7.463,0.001
7.464,0.006
7.465,0.0032
7.466,0.0025
7.467,-0.0014
7.468,0.0019
7.469,-0.0012
7.47,0.0005
7.471,-0.005
7.472,-0.0058
7.473,0.0005
7.474,0.0012
7.475,0.0005
7.476,0.001
7.477,-0.0047
7.478,-0.0008
7.479,-0.0054
7.48,0.0016
7.481,0.0043
7.482,0.005
7.483,-0.0019
7.484,0.0008
7.485,0.0049
7.486,0.001
7.487,-0.0008
7.488,-0.0003
7.489,-0.0041
7.49,0.0005
7.491,0.0049
7.492,0.001
7.493,-0.0045
7.494,-0.0083
7.495,-0.0065
7.496,0.0017
7.497,0.005
7.498,0.0061
7.499,0.0111
7.5,0.0065
7.501,0.0058
7.502,0.008
7.503,0.0155
7.504,0.0105
7.505,0.0096
7.506,0.0005
7.507,-0.003
7.508,-0.0063
7.509,-0.0072
7.51,-0.0027
7.511,-0.0067
7.512,-0.0045
7.513,-0.0027
7.514,-0.007
7.515,-0.0043
7.516,0.0032
7.517,0.0021
7.518,0.005
7.519,0.0041
7.52,0.0001
7.521,-0.0037
7.522,-0.0005
7.523,-0.0061
7.524,-0.0023
7.525,-0.0005
7.526,-0.0048
7.527,-0.01
7.528,-0.0025
7.529,-0.0016
7.53,-0.0006
7.531,-0.0014
7.532,-0.0021
7.533,0.0025
7.534,0.012
7.535,0.0107
7.536,0.0023
7.537,-0.001
7.538,-0.0001
7.539,-0.001
7.54,-0.0003
7.541,-0.001
7.542,-0.0005
7.543,0.0001
7.544,-0.0016
7.545,-0.0028
7.546,-0.007
7.547,-0.0076
7.548,-0.0052
7.549,0.0023
7.55,0.0102
7.551,0.001
7.552,0.0021
7.553,0.0146
7.554,0.0063
7.555,-0.0072
7.556,0.0019
7.557,-0.003
7.558,0.0074
7.559,0.0034
7.56,-0.005
7.561,-0.0083
7.562,-0.0054
7.563,-0.0045
7.564,-0.0037
7.565,-0.0016
7.566,0.0017
7.567,0.0036
7.568,0.0008
7.569,0.0041
7.57,0.0063
7.571,0.0043
7.572,-0.0014
7.573,-0.0037
7.574,-0.003
7.575,-0.0025
7.576,-0.0019
7.577,-0.0058
7.578,-0.0054
7.579,-0.0085
7.58,-0.0039
7.581,-0.007
7.582,-0.0008
7.583,-0.0001
7.584,0.0052
7.585,0.0006
7.586,0.0001
7.587,0.0017
7.588,0.0041
7.589,0.0038
7.59,-0.0025
7.591,-0.0052
7.592,-0.0028
7.593,-0.005
7.594,-0.0017
7.595,0.0014
7.596,0.0008
7.597,0.0054
7.598,0.0072
7.599,0.0043
7.6,-0.0019
7.601,0.0105
7.602,0.005
7.603,0.0001
7.604,0.0136
7.605,0.0045
7.606,-0.0037
7.607,-0.0023
7.608,-0.0063
7.609,-0.0052
7.61,-0.0041
7.611,-0.0012
7.612,-0.0039
7.613,-0.0063
7.614,-0.0041
7.615,-0.0036
7.616,-0.0054
7.617,0.0019
7.618,0.0049
7.619,0.0076
7.62,0.0001
7.621,0.005
7.622,0.0023
7.623,-0.0001
7.624,-0.0023
7.625,-0.0028
7.626,-0.0047
7.627,0.0005
7.628,0.0023
7.629,-0.0034
7.63,-0.0012
7.631,-0.0006
7.632,0.0012
7.633,-0.0016
7.634,-0.0048
7.635,-0.0027
7.636,0.0036
7.637,0.0027
7.638,-0.0014
7.639,-0.0052
7.64,-0.0006
7.641,-0.005
7.642,0.0012
7.643,-0.0012
7.644,-0.0019
7.645,-0.0014
7.646,0.0043
7.647,-0.0027
7.648,-0.0017
7.649,-0.0058
7.65,-0.0045
7.651,-0.0083
7.652,0.0019
7.653,0.0124
7.654,0.0164
7.655,0.0052
7.656,0.0038
7.657,-0.0003
7.658,0.0133
7.659,0.0078
7.66,-0.0037
7.661,-0.0023
7.662,0.0017
7.663,-0.0017
7.664,-0.0096
7.665,-0.0047
7.666,-0.0056
7.667,-0.0032
7.668,-0.0039
7.669,0.0023
7.67,-0.0001
7.671,-0.0023
7.672,-0.0017
7.673,-0.0036
7.674,-0.0008
7.675,-0.0021
7.676,-0.0025
7.677,0.003
7.678,-0.0023
7.679,0.0023
7.68,-0.0008
7.681,0.0019
7.682,0.0032
7.683,-0.0037
7.684,-0.0008
7.685,0.0019
7.686,0.0043
7.687,-0.001
7.688,-0.0005
7.689,-0.0036
7.69,-0.0052
7.691,-0.0065
7.692,0.0005
7.693,0.0034
7.694,0.0006
7.695,-0.005
7.696,-0.0028
7.697,-0.001
7.698,-0.0005
7.699,0.0001
7.7,0.0047
7.701,0.0072
7.702,0.0041
7.703,0.0025
7.704,0.0049
7.705,0.0045
7.706,0.01
7.707,-0.0016
7.708,-0.0131
7.709,-0.0027
7.71,0.0014
7.711,-0.0047
7.712,-0.0058
7.713,-0.0067
7.714,-0.0039
7.715,-0.0016
7.716,-0.0037
7.717,0.0038
7.718,0.0067
7.719,0.0003
7.72,0.0043
7.721,0.0021
7.722,0.0003
7.723,0.0021
7.724,-0.0006
7.725,-0.001
7.726,0.0003
7.727,-0.0036
7.728,-0.0048
7.729,-0.0027
7.73,-0.0016
7.731,0.001
7.732,-0.0008
7.733,0.0012
7.734,0.0014
7.735,0.0001
7.736,0.0036
7.737,0.0091
7.738,0.0006
7.739,-0.005
7.74,-0.0059
7.741,-0.005
7.742,-0.0027
7.743,-0.0048
7.744,-0.0043
7.745,-0.0087
7.746,-0.0048
7.747,-0.0036
7.748,0.0016
7.749,0.0021
7.75,0.0003
7.751,-0.0036
7.752,0.0028
7.753,0.0083
7.754,0.0105
7.755,0.0208
7.756,0.0193
7.757,0.0071
7.758,-0.0012
7.759,-0.0027
7.76,-0.0039
7.761,-0.005
7.762,-0.0107
7.763,-0.0058
7.764,-0.0048
7.765,-0.0056
7.766,-0.0048
7.767,0.0027
7.768,0.0017
7.769,0.0008
7.77,0.0016
7.771,0.0023
7.772,-0.0039
7.773,0.0001
7.774,-0.0006
7.775,-0.0025
7.776,-0.0006
7.777,0.001
7.778,-0.0023
7.779,0.0008
7.78,0.0012
7.781,-0.0037
7.782,-0.0005
7.783,-0.001
7.784,-0.0005
7.785,0.0019
7.786,0.0016
7.787,0.0043
7.788,0.0025
7.789,-0.0008
7.79,0.0019
7.791,0.003
7.792,-0.0025
7.793,-0.0063
7.794,-0.0001
7.795,-0.0076
7.796,0.0016
7.797,0.0005
7.798,-0.0006
7.799,-0.0076
7.8,-0.003
7.801,0.0045
7.802,0.0074
7.803,-0.0016
7.804,-0.0006
7.805,0.0069
7.806,-0.0001
7.807,0.0138
7.808,0.0158
7.809,0.0067
7.81,-0.0016
7.811,-0.0001
7.812,0.0012
7.813,-0.0023
7.814,-0.008
7.815,-0.003
7.816,-0.0021
7.817,0.0003
7.818,-0.0067
7.819,-0.0058
7.82,-0.0034
7.821,0.0005
7.822,0.0107
7.823,0.0063
7.824,-0.0005
7.825,-0.0016
7.826,-0.0048
7.827,0.0063
7.828,0.0078
7.829,-0.0072
7.83,-0.0092
7.831,-0.0037
7.832,0.0045
7.833,0.0001
7.834,0.0041
7.835,0.003
7.836,0.0019
7.837,0.001
7.838,0.0019
7.839,0.006
7.84,-0.001
7.841,-0.0019
7.842,-0.0043
7.843,-0.0005
7.844,0.0001
7.845,-0.0005
7.846,0.0001
7.847,-0.0054
7.848,-0.0076
7.849,-0.0094
7.85,-0.0037
7.851,-0.003
7.852,0.006
7.853,0.0049
7.854,0.008
7.855,0.0091
7.856,0.0082
7.857,0.0036
7.858,0.0028
7.859,0.0144
7.86,-0.0072
7.861,-0.0043
7.862,-0.0017
7.863,0.0006
7.864,-0.0059
7.865,-0.0039
7.866,-0.0094
7.867,-0.0045
7.868,-0.003
7.869,0.001
7.87,-0.0001
7.871,-0.0034
7.872,-0.0043
7.873,-0.0016
7.874,-0.0072
7.875,-0.0065
7.876,-0.0003
7.877,-0.0043
7.878,-0.0005
7.879,0.0014
7.88,-0.0005
7.881,-0.0056
7.882,-0.0074
7.883,-0.0056
7.884,-0.0017
7.885,-0.0041
7.886,-0.0019
7.887,0.0043
7.888,0.0071
7.889,0.0047
7.89,0.0008
7.891,0.0014
7.892,-0.0017
7.893,-0.0034
7.894,0.0012
7.895,0.0006
7.896,-0.001
7.897,-0.0056
7.898,-0.0061
7.899,-0.0034
7.9,-0.0001
7.901,0.0003
7.902,0.0065
7.903,0.0056
7.904,0.0096
7.905,0.0036
7.906,-0.0003
7.907,0.0072
7.908,0.0043
7.909,0.0052
7.91,-0.0005
7.911,-0.0027
7.912,0.0019
7.913,0.0038
7.914,0.001
7.915,-0.0003
7.916,0.0028
7.917,0.0074
7.918,0.003
7.919,0.0114
7.92,0.0103
7.921,0.0071
7.922,0.0021
7.923,-0.0025
7.924,-0.0065
7.925,-0.0072
7.926,-0.0054
7.927,-0.0023
7.928,-0.0085
7.929,-0.0045
7.93,-0.0067
7.931,-0.0085
7.932,-0.0041
7.933,-0.0025
7.934,0.005
7.935,0.0083
7.936,0.0074
7.937,0.0047
7.938,-0.0028
7.939,-0.0037
7.94,-0.0083
7.941,-0.0059
7.942,-0.0052
7.943,0.001
7.944,0.005
7.945,0.012
7.946,0.0056
7.947,-0.0001
7.948,-0.0039
7.949,-0.0034
7.95,-0.0052
7.951,-0.0014
7.952,0.0032
7.953,0.0027
7.954,0.0111
7.955,0.0223
7.956,0.019
7.957,0.0204
7.958,0.0244
7.959,0.0305
7.96,0.0453
7.961,0.0473
7.962,0.0309
7.963,0.0199
7.964,0.0138
7.965,0.0083
7.966,0.0034
7.967,-0.001
7.968,-0.016
7.969,-0.0341
7.97,-0.0462
7.971,-0.0572
7.972,-0.0552
7.973,-0.0607
7.974,-0.059
7.975,-0.0395
7.976,-0.0316
7.977,-0.0484
7.978,-0.0638
7.979,-0.0779
7.98,-0.0944
7.981,-0.1187
7.982,-0.1219
7.983,-0.1367
7.984,-0.1446
7.985,-0.1469
7.986,-0.1447
7.987,-0.1468
7.988,-0.1266
7.989,-0.1132
7.99,-0.0816
7.991,-0.0166
7.992,0.1048
7.993,0.1876
7.994,0.2026
7.995,0.2434
7.996,0.2061
7.997,0.1724
7.998,0.1416
7.999,0.1323
8,0.1239
8.001,0.1008
8.002,0.0938
8.003,0.1127
8.004,0.1299
8.005,0.1455
8.006,0.1502
8.007,0.1508
8.008,0.138
8.009,0.1263
8.01,0.1156
8.011,0.1061
8.012,0.0973
8.013,0.057
8.014,0.0168
8.015,0.0012
8.016,0.006
8.017,0.0102
8.018,-0.0016
8.019,-0.0122
8.02,-0.0283
8.021,-0.0371
8.022,-0.0558
8.023,-0.0629
8.024,-0.0563
8.025,-0.0583
8.026,-0.0675
8.027,-0.079
8.028,-0.0715
8.029,-0.0702
8.03,-0.0618
8.031,-0.0651
8.032,-0.0601
8.033,-0.0629
8.034,-0.0653
8.035,-0.066
8.036,-0.0655
8.037,-0.0686
8.038,-0.0737
8.039,-0.0704
8.04,-0.0699
8.041,-0.0625
8.042,-0.0556
8.043,-0.0547
8.044,-0.0554
8.045,-0.0439
8.046,-0.0422
8.047,-0.0347
8.048,-0.0334
8.049,-0.0199
8.05,-0.0144
8.051,-0.0094
8.052,-0.008
8.053,-0.0012
8.054,0.0023
8.055,0.0034
8.056,-0.0058
8.057,-0.0069
8.058,-0.0059
8.059,-0.0048
8.06,0.0103
8.061,0.0082
8.062,0.0182
8.063,0.0201
8.064,0.0151
8.065,0.0107
8.066,0.0067
8.067,0.0056
8.068,0.0067
8.069,0.0116
8.07,0.0071
8.071,0.0162
8.072,0.0151
8.073,0.014
8.074,0.0169
8.075,0.0124
8.076,0.0116
8.077,0.0094
8.078,0.0076
8.079,0.0107
8.08,0.0069
8.081,0.0102
8.082,0.0098
8.083,0.0052
8.084,0.0058
8.085,0.0085
8.086,0.0072
8.087,0.0069
8.088,0.0058
8.089,0.0076
8.09,0.0028
8.091,0.0034
8.092,0.005
8.093,0.0038
8.094,0.0041
8.095,0.0045
8.096,0.0063
8.097,0.0038
8.098,0.0036
8.099,0.0017
8.1,0.0058
8.101,0.0085
8.102,0.0061
8.103,0.0083
8.104,0.0056
8.105,0.003
8.106,0.0019
8.107,0.0012
8.108,-0.0001
8.109,-0.0001
8.11,0.0028
8.111,0.0085
8.112,0.0045
8.113,0.0146
8.114,0.0078
8.115,0.0067
8.116,0.0034
8.117,0.0025
8.118,0.0034
8.119,0.001
8.12,0.0032
8.121,0.0014
8.122,0.0045
8.123,-0.0017
8.124,-0.0025
8.125,-0.0032
8.126,-0.0037
8.127,-0.0019
8.128,-0.0025
8.129,-0.0012
8.13,0.001
8.131,-0.0045
8.132,-0.0083
8.133,-0.0065
8.134,-0.0034
8.135,-0.0039
8.136,0.0036
8.137,0.0138
8.138,0.0071
8.139,0.0036
8.14,0.0003
8.141,0.0012
8.142,0.0003
8.143,-0.0021
8.144,-0.0043
8.145,-0.0048
8.146,-0.0005
8.147,-0.0032
8.148,-0.0019
8.149,-0.0023
8.15,-0.0019
8.151,-0.0001
8.152,0.0054
8.153,0.0032
8.154,0.0038
8.155,-0.0019
8.156,0.0003
8.157,-0.0016
8.158,-0.0047
8.159,-0.0063
8.16,-0.0067
8.161,-0.007
8.162,-0.0001
8.163,0.0049
8.164,0.0169
8.165,0.0019
8.166,-0.0041
8.167,0.0014
8.168,-0.0003
8.169,0.0012
8.17,0.0025
8.171,-0.001
8.172,0.0001
8.173,-0.0008
8.174,-0.0036
8.175,-0.0076
8.176,-0.0054
8.177,-0.0048
8.178,0.0021
8.179,-0.0006
8.18,-0.0081
8.181,-0.0072
8.182,-0.0063
8.183,-0.0039
8.184,-0.0032
8.185,0.003
8.186,0.0038
8.187,0.0091
8.188,0.0045
8.189,0.0039
8.19,-0.0012
8.191,-0.0058
8.192,-0.0076
8.193,-0.0037
8.194,-0.0041
8.195,-0.0028
8.196,-0.0056
8.197,-0.0006
8.198,0.0012
8.199,-0.0032
8.2,-0.0005
8.201,0.0041
8.202,0.0072
8.203,0.0045
8.204,0.0021
8.205,-0.001
8.206,-0.003
8.207,0.0027
8.208,0.0019
8.209,-0.0019
8.21,-0.0014
8.211,-0.0052
8.212,0.0005
8.213,-0.0034
8.214,-0.0052
8.215,-0.0034
8.216,-0.0072
8.217,-0.0039
8.218,0.003
8.219,0.006
8.22,0.0014
8.221,-0.001
8.222,0.0012
8.223,-0.0034
8.224,0.0061
8.225,0.0049
8.226,-0.0012
8.227,0.0045
8.228,0.0054
8.229,-0.003
8.23,-0.0063
8.231,-0.0054
8.232,-0.0008
8.233,-0.0016
8.234,-0.0008
8.235,-0.0041
8.236,-0.0047
8.237,-0.0063
8.238,-0.003
8.239,0.0012
8.24,0.0063
8.241,0.0045
8.242,0.0001
8.243,0.0017
8.244,-0.0006
8.245,-0.0019
8.246,-0.0016
8.247,0.0027
8.248,-0.0012
8.249,0.0021
8.25,0.0034
8.251,0.0014
8.252,0.0025
8.253,0.0043
8.254,0.0016
8.255,0.0012
8.256,-0.0043
8.257,-0.0021
8.258,0.0025
8.259,-0.0006
8.26,-0.0012
8.261,-0.0025
8.262,0.0006
8.263,0.001
8.264,-0.0001
8.265,0.0025
8.266,0.0043
8.267,0.0036
8.268,0.0067
8.269,0.0129
8.27,0.0193
8.271,0.0069
8.272,0.0014
8.273,-0.0003
8.274,-0.0078
8.275,-0.0065
8.276,-0.0054
8.277,-0.0087
8.278,-0.0058
8.279,-0.0103
8.28,-0.0063
8.281,-0.007
8.282,-0.0025
8.283,-0.0043
8.284,-0.0027
8.285,-0.003
8.286,0.0001
8.287,0.0021
8.288,0.0039
8.289,0.005
8.29,0.003
8.291,-0.0001
8.292,-0.0063
8.293,0.0001
8.294,-0.0023
8.295,0.003
8.296,0.0025
8.297,0.0019
8.298,-0.0032
8.299,-0.0014
8.3,0.0017
8.301,0.0034
8.302,-0.0012
8.303,-0.0017
8.304,0.0021
8.305,-0.0012
8.306,-0.0025
8.307,-0.0063
8.308,-0.003
8.309,-0.0017
8.31,-0.0028
8.311,-0.0054
8.312,-0.0028
8.313,-0.0037
8.314,-0.0052
8.315,-0.001
8.316,0.0047
8.317,0.0116
8.318,0.0107
8.319,0.0083
8.32,0.0122
8.321,0.0127
8.322,0.0032
8.323,-0.0036
8.324,-0.0047
8.325,-0.0036
8.326,-0.0045
8.327,0.0001
8.328,0.0025
8.329,0.0017
8.33,-0.0058
8.331,-0.0067
8.332,-0.0021
8.333,0.0003
8.334,0.001
8.335,-0.0008
8.336,0.0049
8.337,0.0087
8.338,0.0025
8.339,0.0017
8.34,-0.0005
8.341,-0.0023
8.342,-0.0005
8.343,-0.0056
8.344,-0.0131
8.345,-0.0061
8.346,-0.0016
8.347,-0.0039
8.348,-0.0061
8.349,-0.0043
8.35,-0.0012
8.351,-0.0017
8.352,-0.0005
8.353,0.0008
8.354,-0.0012
8.355,0.003
8.356,0.0014
8.357,-0.0061
8.358,-0.0072
8.359,-0.0043
8.36,-0.0016
8.361,-0.0008
8.362,0.0014
8.363,0.0047
8.364,0.0043
8.365,0.0049
8.366,0.0122
8.367,0.0052
8.368,0.0116
8.369,0.0124
8.37,0.0071
8.371,0.0008
8.372,0.0016
8.373,-0.0006
8.374,0.0012
8.375,-0.0083
8.376,-0.007
8.377,-0.0059
8.378,-0.0048
8.379,-0.0039
8.38,0.0025
8.381,-0.0016
8.382,-0.0008
8.383,0.001
8.384,0.0041
8.385,0.0025
8.386,0.0001
8.387,0.0023
8.388,-0.0005
8.389,-0.0047
8.39,-0.0041
8.391,-0.0028
8.392,-0.0016
8.393,-0.0036
8.394,-0.0039
8.395,0.0001
8.396,-0.0012
8.397,-0.0043
8.398,-0.0063
8.399,-0.0045
8.4,-0.0027
8.401,0.0001
8.402,-0.0034
8.403,-0.0003
8.404,0.0001
8.405,0.0036
8.406,0.0023
8.407,0.0085
8.408,0.0021
8.409,-0.0019
8.41,-0.0012
8.411,0.0006
8.412,-0.0012
8.413,-0.0028
8.414,-0.0005
8.415,-0.0037
8.416,0.0005
8.417,-0.0001
8.418,0.0023
8.419,0.0019
8.42,0.0082
8.421,-0.0021
8.422,-0.0034
8.423,0.0001
8.424,-0.0056
8.425,-0.0027
8.426,0.0001
8.427,-0.0023
8.428,-0.0045
8.429,-0.0027
8.43,-0.0058
8.431,-0.0063
8.432,-0.0008
8.433,0.0014
8.434,0.0019
8.435,-0.0037
8.436,0.0078
8.437,0.0028
8.438,0.0014
8.439,0.0001
8.44,-0.001
8.441,-0.0021
8.442,0.0028
8.443,0.0001
8.444,0.0025
8.445,-0.0014
8.446,-0.0019
8.447,0.0012
8.448,-0.0016
8.449,-0.0028
8.45,0.0023
8.451,0.0028
8.452,-0.0003
8.453,0.0025
8.454,0.0021
8.455,0.0008
8.456,-0.0012
8.457,-0.0008
8.458,-0.0048
8.459,-0.0072
8.46,-0.0021
8.461,-0.0054
8.462,-0.0059
8.463,-0.0008
8.464,-0.0003
8.465,-0.0098
8.466,0.0006
8.467,0.0019
8.468,0.003
8.469,0.0063
8.47,0.0072
8.471,-0.0048
8.472,0.0135
8.473,0.0063
8.474,-0.0003
8.475,0.0017
8.476,-0.0037
8.477,-0.0054
8.478,-0.0069
8.479,-0.0081
8.48,-0.0047
8.481,-0.0014
8.482,-0.0043
8.483,0.0021
8.484,0.0096
8.485,0.0047
8.486,0.0019
8.487,-0.0037
8.488,-0.003
8.489,-0.0048
8.49,-0.0017
8.491,-0.0034
8.492,-0.0047
8.493,-0.005
8.494,-0.0012
8.495,-0.0008
8.496,-0.0005
8.497,0.0006
8.498,0.0049
8.499,0.0076
8.5,0.0052
8.501,-0.0008
8.502,-0.0001
8.503,-0.0023
8.504,0.001
8.505,-0.0021
8.506,-0.0048
8.507,-0.0016
8.508,0.0054
8.509,-0.0037
8.51,-0.0048
8.511,-0.0081
8.512,-0.0052
8.513,-0.008
8.514,-0.0023
8.515,-0.0001
8.516,0.0017
8.517,0.0028
8.518,0.006
8.519,0.0032
8.52,0.0078
8.521,0.0122
8.522,0.0049
8.523,0.0078
8.524,0.005
8.525,-0.0006
8.526,-0.0059
8.527,-0.0027
8.528,0.0005
8.529,-0.0023
8.53,-0.0078
8.531,-0.007
8.532,-0.0065
8.533,-0.0008
8.534,-0.0016
8.535,0.0017
8.536,0.0012
8.537,-0.0005
8.538,-0.0037
8.539,-0.0025
8.54,-0.0005
8.541,0.003
8.542,0.0017
8.543,0.0038
8.544,-0.0019
8.545,0.0005
8.546,-0.0017
8.547,-0.0036
8.548,0.0008
8.549,0.0003
8.55,-0.001
8.551,-0.0041
8.552,-0.0014
8.553,0.0012
8.554,-0.0036
8.555,-0.003
8.556,-0.0069
8.557,-0.0045
8.558,-0.0014
8.559,-0.0034
8.56,-0.0023
8.561,0.0032
8.562,0.001
8.563,-0.0023
8.564,-0.0041
8.565,0.001
8.566,0.0056
8.567,0.005
8.568,0.0065
8.569,0.0038
8.57,0.0113
8.571,0.0034
8.572,0.0063
8.573,0.0109
8.574,0.0052
8.575,-0.0063
8.576,0.0019
8.577,0.0005
8.578,-0.0008
8.579,-0.0043
8.58,-0.0032
8.581,-0.0041
8.582,0.0005
8.583,-0.0019
8.584,-0.0027
8.585,-0.0032
8.586,-0.005
8.587,-0.0012
8.588,0.0012
8.589,0.0016
8.59,-0.0012
8.591,-0.0001
8.592,-0.0027
8.593,-0.0006
8.594,-0.0014
8.595,0.0016
8.596,-0.0027
8.597,-0.0054
8.598,-0.0008
8.599,0.0023
8.6,0.0006
8.601,0.001
8.602,0.0023
8.603,0.0043
8.604,-0.0006
8.605,-0.0025
8.606,-0.0019
8.607,-0.0036
8.608,-0.0012
8.609,0.0019
8.61,0.0039
8.611,0.0058
8.612,0.0003
8.613,-0.0019
8.614,-0.0037
8.615,-0.0094
8.616,-0.0072
8.617,-0.0067
8.618,-0.001
8.619,0.008
8.62,0.0164
8.621,0.0266
8.622,0.0089
8.623,-0.0032
8.624,0.0078
8.625,0.0017
8.626,-0.0037
8.627,-0.0054
8.628,-0.0069
8.629,-0.0056
8.63,-0.0067
8.631,-0.0056
8.632,-0.0047
8.633,-0.0001
8.634,0.0056
8.635,0.0034
8.636,-0.0028
8.637,-0.0021
8.638,-0.0028
8.639,-0.0047
8.64,-0.0078
8.641,-0.0005
8.642,-0.0054
8.643,-0.0045
8.644,-0.0021
8.645,0.0049
8.646,0.0039
8.647,0.0032
8.648,-0.0006
8.649,0.0027
8.65,0.0071
8.651,0.0065
8.652,-0.001
8.653,0.0001
8.654,-0.0008
8.655,0.0038
8.656,-0.0003
8.657,0.0005
8.658,-0.0014
8.659,-0.0032
8.66,-0.0016
8.661,-0.0019
8.662,-0.0023
8.663,-0.0085
8.664,-0.0058
8.665,-0.0034
8.666,0.0019
8.667,0.0038
8.668,0.0043
8.669,0.0027
8.67,0.0021
8.671,0.0054
8.672,0.0041
8.673,-0.0005
8.674,0.0091
8.675,-0.0087
8.676,-0.0111
8.677,-0.0001
8.678,-0.0021
8.679,-0.0003
8.68,-0.0019
8.681,-0.0063
8.682,-0.005
8.683,-0.0039
8.684,-0.0006
8.685,0.0023
8.686,-0.0005
8.687,0.0003
8.688,0.0025
8.689,0.0019
8.69,-0.0037
8.691,-0.0016
8.692,-0.001
8.693,-0.0016
8.694,-0.001
8.695,-0.0043
8.696,-0.003
8.697,-0.0019
8.698,-0.0001
8.699,-0.0012
8.7,-0.0005
8.701,0.0014
8.702,0.0016
8.703,-0.0016
8.704,-0.0036
8.705,-0.0039
8.706,-0.005
8.707,-0.0052
8.708,-0.001
8.709,0.006
8.71,-0.0025
8.711,0.0032
8.712,0.0061
8.713,0.0016
8.714,-0.0025
8.715,-0.0017
8.716,0.0058
8.717,0.0087
8.718,0.0096
8.719,0.0005
8.72,0.0065
8.721,0.0072
8.722,0.0039
8.723,0.003
8.724,-0.0016
8.725,0.0109
8.726,0.0091
8.727,-0.0059
8.728,-0.008
8.729,-0.0061
8.73,-0.0012
8.731,0.0063
8.732,0.0076
8.733,0.0041
8.734,0.003
8.735,0.0021
8.736,0.003
8.737,0.0071
8.738,0.0032
8.739,0.0014
8.74,-0.0017
8.741,-0.0012
8.742,-0.0045
8.743,-0.0076
8.744,-0.0072
8.745,-0.0069
8.746,-0.005
8.747,-0.0058
8.748,-0.0076
8.749,-0.0089
8.75,-0.0074
8.751,-0.0089
8.752,-0.0087
8.753,-0.0059
8.754,-0.001
8.755,0.0036
8.756,0.0017
8.757,0.0056
8.758,0.008
8.759,0.0093
8.76,0.0054
8.761,0.0021
8.762,0.0025
8.763,0.0005
8.764,-0.0052
8.765,0.0005
8.766,-0.0003
8.767,0.0003
8.768,0.0021
8.769,-0.0017
8.77,-0.003
8.771,0.0021
8.772,-0.0016
8.773,0.003
8.774,0.0125
8.775,-0.0052
8.776,0.0116
8.777,0.005
8.778,-0.005
8.779,-0.0032
8.78,-0.0048
8.781,-0.0063
8.782,0.0005
8.783,0.0016
8.784,0.0005
8.785,0.0014
8.786,-0.0032
8.787,0.0008
8.788,-0.0014
8.789,-0.0019
8.79,-0.0014
8.791,-0.0008
8.792,-0.0021
8.793,-0.0008
8.794,-0.0028
8.795,-0.0032
8.796,-0.0021
8.797,-0.0023
8.798,-0.001
8.799,-0.0028
8.8,-0.0023
8.801,-0.0056
8.802,0.0014
8.803,0.0083
8.804,0.0056
8.805,0.0032
8.806,-0.0021
8.807,-0.0039
8.808,-0.0021
8.809,0.0041
8.81,0.0034
8.811,0.0012
8.812,-0.0006
8.813,0.0012
8.814,0.0017
8.815,0.0005
8.816,0.0036
8.817,0.0016
8.818,0.0019
8.819,0.0008
8.82,0.0054
8.821,0.0036
8.822,-0.0034
8.823,-0.0096
8.824,-0.0124
8.825,-0.01
8.826,0.0016
8.827,0.0065
8.828,0.0201
8.829,0.0146
8.83,0.003
8.831,0.0166
8.832,0.0184
8.833,0.0201
8.834,0.0244
8.835,0.034
8.836,0.0374
8.837,0.0342
8.838,0.0272
8.839,0.0151
8.84,0.0135
8.841,0.006
8.842,0.0019
8.843,-0.0142
8.844,-0.0296
8.845,-0.0396
8.846,-0.0488
8.847,-0.0603
8.848,-0.0739
8.849,-0.0684
8.85,-0.0569
8.851,-0.0464
8.852,-0.0424
8.853,-0.0459
8.854,-0.0561
8.855,-0.0739
8.856,-0.0907
8.857,-0.1107
8.858,-0.1186
8.859,-0.1405
8.86,-0.1493
8.861,-0.1519
8.862,-0.1495
8.863,-0.1251
8.864,-0.122
8.865,-0.1013
8.866,-0.0611
8.867,0.014
8.868,0.1475
8.869,0.2021
8.87,0.2185
8.871,0.2336
8.872,0.1927
8.873,0.1803
8.874,0.1464
8.875,0.1127
8.876,0.1025
8.877,0.0931
8.878,0.1015
8.879,0.1092
8.88,0.1162
8.881,0.135
8.882,0.1523
8.883,0.1471
8.884,0.1328
8.885,0.12
8.886,0.1083
8.887,0.1048
8.888,0.0823
8.889,0.0378
8.89,0.0061
8.891,0.0005
8.892,-0.0047
8.893,0.0001
8.894,-0.0127
8.895,-0.0166
8.896,-0.0343
8.897,-0.0374
8.898,-0.0462
8.899,-0.0541
8.9,-0.0612
8.901,-0.0547
8.902,-0.0607
8.903,-0.0662
8.904,-0.0711
8.905,-0.0607
8.906,-0.0539
8.907,-0.0651
8.908,-0.0666
8.909,-0.0598
8.91,-0.0658
8.911,-0.0669
8.912,-0.064
8.913,-0.0667
8.914,-0.0708
8.915,-0.0715
8.916,-0.064
8.917,-0.0548
8.918,-0.0537
8.919,-0.0504
8.92,-0.0475
8.921,-0.0391
8.922,-0.0334
8.923,-0.0325
8.924,-0.0261
8.925,-0.0243
8.926,-0.0219
8.927,-0.0103
8.928,-0.0219
8.929,-0.0023
8.93,-0.0048
8.931,-0.0072
8.932,-0.0006
8.933,0.0014
8.934,0.0032
8.935,0.0016
8.936,0.003
8.937,0.0017
8.938,0.0052
8.939,0.0085
8.94,0.0036
8.941,0.0082
8.942,0.0105
8.943,0.0052
8.944,0.0071
8.945,0.014
8.946,0.0094
8.947,0.0102
8.948,0.0094
8.949,0.0113
8.95,0.0144
8.951,0.0149
8.952,0.0153
8.953,0.0157
8.954,0.0219
8.955,0.0135
8.956,0.0056
8.957,0.0085
8.958,0.0094
8.959,0.0118
8.96,0.0049
8.961,-0.0016
8.962,-0.0008
8.963,0.0014
8.964,0.0008
8.965,0.0027
8.966,0.0054
8.967,0.0021
8.968,0.0052
8.969,0.0056
8.97,0.0105
8.971,0.018
8.972,0.0131
8.973,0.0067
8.974,0.0027
8.975,0.0034
8.976,0.008
8.977,0.0098
8.978,0.0142
8.979,0.008
8.98,0.012
8.981,0.0036
8.982,0.0047
8.983,-0.0003
8.984,0.0082
8.985,0.0071
8.986,0.0021
8.987,0.0067
8.988,0.006
8.989,0.0006
8.99,0.0109
8.991,0.0124
8.992,0.0001
8.993,0.0017
8.994,-0.0118
8.995,0.0047
8.996,0.0025
8.997,0.0005
8.998,-0.0014
8.999,0.0003
9,-0.0041
9.001,-0.0054
9.002,-0.0043
9.003,-0.001
9.004,-0.0019
9.005,-0.0028
9.006,-0.0021
