0,-0.0397
0.001,-0.0421
0.002,-0.0487
0.003,-0.0466
0.004,-0.0302
0.005,-0.0148
0.006,-0.0208
0.007,-0.041
0.008,-0.0543
0.009,-0.0664
0.01,-0.0774
0.011,-0.0794
0.012,-0.0813
0.013,-0.0796
0.014,-0.084
0.015,-0.08
0.016,-0.0715
0.017,-0.0637
0.018,-0.0587
0.019,-0.0542
0.02,-0.0417
0.021,-0.0399
0.022,-0.0349
0.023,-0.0305
0.024,-0.0238
0.025,-0.0203
0.026,-0.0124
0.027,-0.0054
0.028,-0.0009
0.029,-0.0001
0.03,-0.004
0.031,-0.0058
0.032,-0.0027
0.033,0.0024
0.034,0.0019
0.035,0.0024
0.036,0.0041
0.037,0.0044
0.038,0.0076
0.039,0.0055
0.04,0.0112
0.041,0.0136
0.042,0.0129
0.043,0.0134
0.044,0.0152
0.045,0.018
0.046,0.0134
0.047,0.009
0.048,0.0096
0.049,0.0099
0.05,0.0112
0.051,0.0116
0.052,0.0127
0.053,0.0184
0.054,0.0207
0.055,0.0277
0.056,0.0416
0.057,0.0557
0.058,0.0392
0.059,0.0239
0.06,0.0057
0.061,0.0033
0.062,-0.0032
0.063,-0.0093
0.064,-0.0111
0.065,-0.0128
0.066,-0.0113
0.067,-0.0126
0.068,-0.0091
0.069,-0.0102
0.07,-0.0073
0.071,-0.0045
0.072,-0.0038
0.073,-0.006
0.074,-0.0042
0.075,-0.0011
0.076,0.0006
0.077,0.0039
0.078,0.0052
0.079,0.0024
0.08,-0.0011
0.081,-0.0032
0.082,0.003
0.083,0.0021
0.084,0.0077
0.085,0.0099
0.086,0.0081
0.087,0.0112
0.088,0.0107
0.089,0.0061
0.09,0.0055
0.091,0.0083
0.092,0.0096
0.093,0.0065
0.094,0.0044
0.095,0.0033
0.096,0.0022
0.097,-0.0023
0.098,-0.0029
0.099,-0.0023
0.1,-0.0029
0.101,-0.0005
0.102,-0.0053
0.103,-0.0021
0.104,0.0041
0.105,0.0087
0.106,0.0211
0.107,0.0229
0.108,0.0279
0.109,0.0354
0.11,0.0314
0.111,0.0229
0.112,0.0105
0.113,-0.0011
0.114,-0.0115
0.115,-0.0183
0.116,-0.0243
0.117,-0.0276
0.118,-0.0206
0.119,-0.0197
0.12,-0.0157
0.121,-0.0179
0.122,-0.0197
0.123,-0.0179
0.124,-0.0128
0.125,-0.0109
0.126,-0.004
0.127,-0.0031
0.128,-0.0038
0.129,-0.0016
0.13,0.0002
0.131,-0.0054
0.132,-0.0001
0.133,0.0004
0.134,-0.0001
0.135,0.0004
0.136,0
0.137,0.0022
0.138,0.0011
0.139,0
0.14,0.0048
0.141,0.0143
0.142,0.0266
0.143,0.0184
0.144,0.0109
0.145,0.0068
0.146,0.0057
0.147,-0.0021
0.148,-0.0031
0.149,-0.0021
0.15,-0.0045
0.151,-0.0053
0.152,-0.0058
0.153,-0.0031
0.154,-0.0025
0.155,0.0048
0.156,0.0098
0.157,0.0237
0.158,0.0378
0.159,0.0506
0.16,0.0323
0.161,0.0154
0.162,0
0.163,-0.01
0.164,-0.0192
0.165,-0.0175
0.166,-0.028
0.167,-0.0239
0.168,-0.0205
0.169,-0.0172
0.17,-0.0162
0.171,-0.0172
0.172,-0.0164
0.173,-0.0111
0.174,-0.0065
0.175,-0.0047
0.176,-0.0031
0.177,0.0002
0.178,0.0024
0.179,0.0004
0.18,-0.0053
0.181,-0.006
0.182,-0.0007
0.183,-0.0012
0.184,0.0032
0.185,0.0015
0.186,-0.0018
0.187,0.0013
0.188,-0.0042
0.189,0.0011
0.19,-0.0007
0.191,0.0063
0.192,0.0054
0.193,0.0094
0.194,0.0072
0.195,0.009
0.196,0.0085
0.197,0.0022
0.198,0.003
0.199,-0.0009
0.2,-0.0003
0.201,-0.0034
0.202,-0.0029
0.203,-0.0005
0.204,0.0013
0.205,-0.0056
0.206,0.0055
0.207,0.013
0.208,0.0336
0.209,0.0484
0.21,0.035
0.211,0.0182
0.212,0.0072
0.213,-0.0029
0.214,-0.0047
0.215,-0.013
0.216,-0.0144
0.217,-0.0157
0.218,-0.0122
0.219,-0.0133
0.22,-0.0142
0.221,-0.0115
0.222,-0.0122
0.223,-0.0084
0.224,-0.0078
0.225,-0.0047
0.226,0.0004
0.227,-0.0029
0.228,-0.0034
0.229,0.0039
0.23,0.003
0.231,0.0002
0.232,0.0059
0.233,0.0037
0.234,0.0032
0.235,-0.0012
0.236,0.0039
0.237,0.0033
0.238,0.0002
0.239,-0.0036
0.24,-0.0003
0.241,0.0019
0.242,0.0046
0.243,0.005
0.244,0.0061
0.245,0.0068
0.246,0.0043
0.247,0.001
0.248,0.0013
0.249,-0.0012
0.25,-0.0001
0.251,-0.0016
0.252,0.0015
0.253,-0.0047
0.254,-0.002
0.255,-0.0001
0.256,-0.0025
0.257,0.009
0.258,0.014
0.259,0.0336
0.26,0.0469
0.261,0.0445
0.262,0.0246
0.263,0.0059
0.264,-0.0062
0.265,-0.0172
0.266,-0.0192
0.267,-0.0173
0.268,-0.019
0.269,-0.0175
0.27,-0.0188
0.271,-0.0177
0.272,-0.0188
0.273,-0.0197
0.274,-0.0113
0.275,-0.0102
0.276,-0.0073
0.277,-0.01
0.278,-0.006
0.279,-0.0007
0.28,0.0011
0.281,0.0043
0.282,-0.0031
0.283,-0.0001
0.284,0.0083
0.285,0.005
0.286,0.0099
0.287,0.0109
0.288,0.0132
0.289,0.0032
0.29,-0.0009
0.291,-0.002
0.292,-0.0031
0.293,-0.006
0.294,0.0024
0.295,0.0013
0.296,0.0004
0.297,-0.006
0.298,-0.002
0.299,-0.0012
0.3,-0.0058
0.301,-0.004
0.302,0.0022
0.303,0.0046
0.304,0.0039
0.305,0.0021
0.306,0.0013
0.307,0.0032
0.308,0.0116
0.309,0.02
0.31,0.037
0.311,0.059
0.312,0.0442
0.313,0.0255
0.314,0.0087
0.315,-0.0023
0.316,-0.0043
0.317,-0.0062
0.318,-0.0111
0.319,-0.0155
0.32,-0.0195
0.321,-0.0206
0.322,-0.0217
0.323,-0.0168
0.324,-0.0141
0.325,-0.01
0.326,-0.0184
0.327,-0.0106
0.328,-0.0135
0.329,-0.0032
0.33,-0.01
0.331,-0.0089
0.332,-0.0078
0.333,-0.0009
0.334,-0.0036
0.335,-0.0043
0.336,0.0026
0.337,0.009
0.338,0.0165
0.339,0.0074
0.34,0.0039
0.341,0.005
0.342,0.0059
0.343,0.0013
0.344,0.0037
0.345,0.003
0.346,-0.0016
0.347,-0.0047
0.348,-0.002
0.349,-0.0007
0.35,0.0006
0.351,-0.0032
0.352,-0.002
0.353,-0.0071
0.354,0.0032
0.355,0.0017
0.356,0.0057
0.357,0.0057
0.358,-0.0003
0.359,0.0099
0.36,0.014
0.361,0.0275
0.362,0.033
0.363,0.0445
0.364,0.0489
0.365,0.0367
0.366,0.0184
0.367,-0.0036
0.368,-0.0124
0.369,-0.015
0.37,-0.0173
0.371,-0.0239
0.372,-0.026
0.373,-0.0241
0.374,-0.0159
0.375,-0.0203
0.376,-0.019
0.377,-0.013
0.378,-0.0027
0.379,-0.004
0.38,-0.0124
0.381,-0.0113
0.382,-0.0142
0.383,-0.0097
0.384,-0.0104
0.385,-0.0051
0.386,0.0011
0.387,0.0119
0.388,0.0105
0.389,0.0092
0.39,0.0057
0.391,0.0024
0.392,-0.0025
0.393,-0.0034
0.394,-0.0027
0.395,-0.0005
0.396,-0.0011
0.397,0.0021
0.398,0.0004
0.399,-0.0029
0.4,0.0002
0.401,-0.0025
0.402,-0.0007
0.403,-0.0011
0.404,0.0035
0.405,0.003
0.406,0.0024
0.407,0.0019
0.408,0.0006
0.409,0.0019
0.41,0.0088
0.411,0.0118
0.412,0.0257
0.413,0.0358
0.414,0.0229
0.415,0.0114
0.416,0.001
0.417,-0.0058
0.418,-0.017
0.419,-0.0184
0.42,-0.0172
0.421,-0.0137
0.422,-0.0126
0.423,-0.0155
0.424,-0.0091
0.425,-0.0016
0.426,-0.0065
0.427,-0.0056
0.428,-0.0016
0.429,0.0006
0.43,-0.0027
0.431,-0.0058
0.432,-0.002
0.433,0.0055
0.434,0.0044
0.435,-0.0047
0.436,-0.0058
0.437,-0.0001
0.438,0.0028
0.439,0.0037
0.44,-0.0003
0.441,0.005
0.442,0.0068
0.443,0.0099
0.444,0.0048
0.445,-0.0014
0.446,0.0026
0.447,-0.0027
0.448,-0.0032
0.449,-0.0038
0.45,-0.0011
0.451,-0.0034
0.452,-0.0012
0.453,-0.0001
0.454,0.0002
0.455,-0.0016
0.456,0.003
0.457,0.0076
0.458,0.007
0.459,-0.0009
0.46,-0.0025
0.461,0.005
0.462,0.0174
0.463,0.029
0.464,0.0365
0.465,0.0542
0.466,0.0374
0.467,0.013
0.468,-0.0095
0.469,-0.0243
0.47,-0.0217
0.471,-0.0194
0.472,-0.0172
0.473,-0.0152
0.474,-0.0206
0.475,-0.0157
0.476,-0.0172
0.477,-0.0159
0.478,-0.0124
0.479,-0.0113
0.48,-0.0104
0.481,-0.0095
0.482,-0.0054
0.483,-0.0001
0.484,-0.0034
0.485,-0.004
0.486,-0.0034
0.487,-0.0047
0.488,-0.0016
0.489,0.003
0.49,0.0011
0.491,0.0063
0.492,0.0044
0.493,0.005
0.494,0.0066
0.495,0.0063
0.496,0.0094
0.497,0.0032
0.498,0.0022
0.499,0.0015
0.5,0.0054
0.501,0.0059
0.502,0.0041
0.503,0.0013
0.504,0.001
0.505,-0.0012
0.506,0.005
0.507,0.0096
0.508,0.0072
0.509,0.0019
0.51,0.0035
0.511,0.0041
0.512,0.0098
0.513,0.0151
0.514,0.0253
0.515,0.0418
0.516,0.0174
0.517,0.0143
0.518,0.0055
0.519,-0.0023
0.52,-0.0095
0.521,-0.0117
0.522,-0.0177
0.523,-0.0159
0.524,-0.0175
0.525,-0.0161
0.526,-0.012
0.527,-0.0086
0.528,-0.0075
0.529,-0.0025
0.53,-0.0071
0.531,-0.0128
0.532,-0.012
0.533,-0.0115
0.534,-0.0133
0.535,-0.0117
0.536,-0.0042
0.537,0.0015
0.538,-0.0034
0.539,0.003
0.54,0.0087
0.541,0.0094
0.542,0.0019
0.543,0.001
0.544,0.0074
0.545,0.0033
0.546,0.0087
0.547,0.0024
0.548,0
0.549,0.0039
0.55,0.0021
0.551,-0.0023
0.552,-0.0007
0.553,0.0017
0.554,0.0021
0.555,0
0.556,0.0019
0.557,0.0044
0.558,0.0052
0.559,0.0026
0.56,0.0037
0.561,0.0013
0.562,-0.0032
0.563,0.007
0.564,0.0055
0.565,0.026
0.566,0.0348
0.567,0.0162
0.568,0.009
0.569,0.0024
0.57,-0.0117
0.571,-0.0062
0.572,-0.0078
0.573,-0.0034
0.574,-0.0075
0.575,-0.0135
0.576,-0.0168
0.577,-0.0177
0.578,-0.0168
0.579,-0.0161
0.58,-0.0183
0.581,-0.008
0.582,-0.0005
0.583,-0.0018
0.584,-0.0078
0.585,-0.0067
0.586,-0.0076
0.587,-0.0012
0.588,-0.0005
0.589,0.0048
0.59,0.0015
0.591,0.0046
0.592,0.013
0.593,0.0165
0.594,0.0154
0.595,0.0085
0.596,0
0.597,-0.0078
0.598,-0.0049
0.599,-0.0113
0.6,-0.0089
0.601,-0.0051
0.602,-0.0005
0.603,-0.0011
0.604,0.0006
0.605,0.0002
0.606,-0.0001
0.607,0.0026
0.608,0
0.609,-0.0011
0.61,0.0035
0.611,0.0068
0.612,0.005
0.613,0.0032
0.614,0.0116
0.615,0.0151
0.616,0.0321
0.617,0.0489
0.618,0.029
0.619,0.0156
0.62,0.0035
0.621,-0.0075
0.622,-0.0095
0.623,-0.015
0.624,-0.0166
0.625,-0.0152
0.626,-0.0192
0.627,-0.0131
0.628,-0.012
0.629,-0.015
0.63,-0.0122
0.631,-0.0115
0.632,-0.0045
0.633,0.0019
0.634,0.0059
0.635,-0.0011
0.636,-0.0056
0.637,-0.008
0.638,-0.0073
0.639,-0.004
0.64,-0.0009
0.641,-0.0003
0.642,-0.0058
0.643,-0.002
0.644,0.0055
0.645,0.0046
0.646,0.0019
0.647,0.0011
0.648,0.0004
0.649,0.0022
0.65,0.0017
0.651,-0.0021
0.652,0.0054
0.653,0.0021
0.654,0.0011
0.655,-0.0016
0.656,-0.0056
0.657,-0.0064
0.658,-0.0018
0.659,0.0026
0.66,0.011
0.661,0.0099
0.662,0.0088
0.663,0.0028
0.664,-0.0001
0.665,0.0119
0.666,0.0136
0.667,0.024
0.668,0.039
0.669,0.033
0.67,0.0239
0.671,0.0156
0.672,0.0052
0.673,-0.0071
0.674,-0.0087
0.675,-0.0162
0.676,-0.023
0.677,-0.0241
0.678,-0.0274
0.679,-0.0265
0.68,-0.0256
0.681,-0.0181
0.682,-0.0152
0.683,-0.0161
0.684,-0.0184
0.685,-0.0192
0.686,-0.013
0.687,-0.0106
0.688,-0.0053
0.689,0.001
0.69,0.0033
0.691,0.0041
0.692,0.0103
0.693,0.0063
0.694,0.0055
0.695,0.0118
0.696,0.0094
0.697,-0.0007
0.698,0.0033
0.699,0.0094
0.7,0.0037
0.701,0.0066
0.702,0.0094
0.703,0.0054
0.704,0.0032
0.705,0.0013
0.706,0.0032
0.707,0.0048
0.708,0.0061
0.709,0.0083
0.71,0.0021
0.711,-0.0007
0.712,0.0033
0.713,-0.0005
0.714,-0.0023
0.715,-0.0042
0.716,0.0054
0.717,0.0094
0.718,0.0279
0.719,0.0304
0.72,0.0233
0.721,0.0079
0.722,-0.0021
0.723,-0.004
0.724,-0.0056
0.725,-0.0071
0.726,-0.0139
0.727,-0.0104
0.728,-0.0093
0.729,-0.0102
0.73,-0.0056
0.731,-0.0097
0.732,-0.0135
0.733,-0.0073
0.734,-0.0097
0.735,-0.0027
0.736,0
0.737,-0.0007
0.738,0.0032
0.739,-0.0014
0.74,0.003
0.741,0.0002
0.742,-0.0073
0.743,-0.0084
0.744,-0.0014
0.745,0.0032
0.746,0.0008
0.747,-0.0045
0.748,-0.0091
0.749,-0.0047
0.75,-0.0064
0.751,-0.0018
0.752,0.0013
0.753,-0.0025
0.754,-0.0012
0.755,0
0.756,0.0055
0.757,0.0077
0.758,0.0096
0.759,0.0114
0.76,0.0141
0.761,0.0096
0.762,0.0052
0.763,-0.0032
0.764,-0.0043
0.765,0.0013
0.766,-0.0043
0.767,0.0088
0.768,0.007
0.769,0.0152
0.77,0.0257
0.771,0.0407
0.772,0.0226
0.773,0.0202
0.774,0.0048
0.775,-0.0012
0.776,-0.0067
0.777,-0.0084
0.778,-0.0159
0.779,-0.0172
0.78,-0.0232
0.781,-0.0153
0.782,-0.0162
0.783,-0.0208
0.784,-0.0201
0.785,-0.0131
0.786,-0.0104
0.787,-0.0064
0.788,-0.0086
0.789,-0.0067
0.79,-0.0011
0.791,0.0028
0.792,0.0033
0.793,0.0077
0.794,0.0015
0.795,-0.0025
0.796,-0.0018
0.797,-0.008
0.798,-0.0104
0.799,-0.0051
0.8,-0.0045
0.801,-0.0051
0.802,-0.0023
0.803,0.0043
0.804,-0.0003
0.805,0.0088
0.806,0.0004
0.807,0.0083
0.808,0.0112
0.809,0.0085
0.81,0.0077
0.811,0.007
0.812,0.0052
0.813,0.0046
0.814,0.0063
0.815,0.0017
0.816,0.0043
0.817,0.0048
0.818,0.0132
0.819,0.0293
0.82,0.0493
0.821,0.0467
0.822,0.0299
0.823,0.0189
0.824,0.0129
0.825,0.0074
0.826,0.009
0.827,0.0134
0.828,0.0094
0.829,0.0083
0.83,0.0116
0.831,0.0024
0.832,-0.006
0.833,-0.0093
0.834,-0.0102
0.835,-0.0205
0.836,-0.0245
0.837,-0.0329
0.838,-0.0499
0.839,-0.062
0.84,-0.0686
0.841,-0.0666
0.842,-0.0684
0.843,-0.0701
0.844,-0.0626
0.845,-0.0448
0.846,-0.0377
0.847,-0.0531
0.848,-0.0672
0.849,-0.0543
0.85,-0.0693
0.851,-0.0955
0.852,-0.1133
0.853,-0.1038
0.854,-0.095
0.855,-0.0816
0.856,-0.0695
0.857,-0.0629
0.858,-0.0408
0.859,0.0037
0.86,0.0991
0.861,0.1674
0.862,0.2048
0.863,0.1936
0.864,0.1833
0.865,0.174
0.866,0.1487
0.867,0.1024
0.868,0.064
0.869,0.057
0.87,0.0508
0.871,0.068
0.872,0.0731
0.873,0.0779
0.874,0.0907
0.875,0.079
0.876,0.0824
0.877,0.0856
0.878,0.1062
0.879,0.1088
0.88,0.1017
0.881,0.0685
0.882,0.0352
0.883,0.0136
0.884,0.0174
0.885,0.014
0.886,0.0235
0.887,0.0147
0.888,-0.0148
0.889,-0.0344
0.89,-0.045
0.891,-0.0481
0.892,-0.0629
0.893,-0.0604
0.894,-0.0532
0.895,-0.0554
0.896,-0.0655
0.897,-0.0747
0.898,-0.0763
0.899,-0.0538
0.9,-0.0633
0.901,-0.0545
0.902,-0.0466
0.903,-0.0538
0.904,-0.0737
0.905,-0.0712
0.906,-0.064
0.907,-0.0574
0.908,-0.0514
0.909,-0.0606
0.91,-0.0556
0.911,-0.0391
0.912,-0.0192
0.913,-0.0217
0.914,-0.0338
0.915,-0.036
0.916,-0.034
0.917,-0.0212
0.918,-0.0243
0.919,-0.0194
0.92,0.0032
0.921,0.0063
0.922,0.033
0.923,0.0365
0.924,0.027
0.925,0.0121
0.926,0.0096
0.927,0.0024
0.928,0.0002
0.929,-0.0058
0.93,-0.0113
0.931,-0.013
0.932,-0.0054
0.933,0.0068
0.934,0.0019
0.935,-0.0056
0.936,-0.0043
0.937,-0.0009
0.938,0.0002
0.939,-0.0007
0.94,0.0002
0.941,0.001
0.942,-0.0012
0.943,-0.0058
0.944,-0.004
0.945,0.0044
0.946,0.018
0.947,0.0198
0.948,0.0215
0.949,0.02
0.95,0.024
0.951,0.0229
0.952,0.0059
0.953,0.0035
0.954,0.0101
0.955,0
0.956,-0.0018
0.957,0.0132
0.958,0.0072
0.959,0.0054
0.96,0.0103
0.961,0.0059
0.962,0.0072
0.963,-0.004
0.964,0.0096
0.965,0.0077
0.966,0.0127
0.967,0.0171
0.968,0.013
0.969,0.0079
0.97,0.0191
0.971,0.0235
0.972,0.0195
0.973,0.0306
0.974,0.0381
0.975,0.0176
0.976,0.0088
0.977,0.0063
0.978,-0.0009
0.979,-0.0119
0.98,-0.026
0.981,-0.0241
0.982,-0.0225
0.983,-0.0181
0.984,-0.0086
0.985,-0.0221
0.986,-0.0093
0.987,-0.0043
0.988,-0.0148
0.989,-0.0135
0.99,-0.01
0.991,-0.0021
0.992,0.0008
0.993,0.0035
0.994,0.0076
0.995,0.0068
0.996,0.0063
0.997,0.0044
0.998,0.0039
0.999,-0.0036
1,-0.0115
1.001,-0.0023
1.002,0.0037
1.003,0.007
1.004,0.0041
1.005,0.0013
1.006,0.0088
1.007,0.0079
1.008,0.007
1.009,0.0046
1.01,-0.0069
1.011,-0.0053
1.012,-0.0009
1.013,-0.0021
1.014,0.0039
1.015,0.0187
1.016,0.0167
1.017,0.0112
1.018,0.003
1.019,0.0074
1.02,0.0013
1.021,0.0026
1.022,0.0061
1.023,0.0004
1.024,0.0156
1.025,0.0266
1.026,0.0326
1.027,0.0271
1.028,0.0055
1.029,-0.0032
1.03,-0.0219
1.031,-0.0148
1.032,-0.0126
1.033,-0.0106
1.034,-0.0087
1.035,-0.0137
1.036,-0.0093
1.037,-0.008
1.038,-0.0069
1.039,-0.008
1.04,-0.0031
1.041,0.0015
1.042,-0.0009
1.043,-0.0062
1.044,-0.0152
1.045,-0.0141
1.046,-0.0084
1.047,-0.0034
1.048,-0.0062
1.049,-0.0021
1.05,0.0032
1.051,0.0065
1.052,0.0008
1.053,0
1.054,-0.0005
1.055,0
1.056,-0.0038
1.057,0.0017
1.058,0.0101
1.059,0.0112
1.06,0.0121
1.061,0.0076
1.062,0.0019
1.063,-0.0003
1.064,-0.0036
1.065,0.0021
1.066,0.0043
1.067,-0.002
1.068,-0.0012
1.069,-0.0097
1.07,-0.0064
1.071,0.005
1.072,-0.002
1.073,0.0065
1.074,0.0189
1.075,0.0271
1.076,0.0376
1.077,0.0363
1.078,0.0251
1.079,0.0147
1.08,-0.0003
1.081,-0.0064
1.082,-0.0155
1.083,-0.0305
1.084,-0.0285
1.085,-0.0303
1.086,-0.0287
1.087,-0.0183
1.088,0.0022
1.089,0.011
1.09,-0.0076
1.091,-0.01
1.092,-0.0034
1.093,-0.0135
1.094,-0.0007
1.095,0.0043
1.096,0.0057
1.097,0.0017
1.098,-0.0119
1.099,-0.01
1.1,-0.0117
1.101,-0.0012
1.102,0.0083
1.103,0.0094
1.104,-0.0009
1.105,-0.0021
1.106,0.0039
1.107,0.0096
1.108,0.0066
1.109,0.0076
1.11,0
1.111,-0.0049
1.112,0.0015
1.113,0.009
1.114,0.0021
1.115,0.0085
1.116,0.0061
1.117,0.0068
1.118,0.0022
1.119,0.0017
1.12,0
1.121,-0.0075
1.122,-0.0053
1.123,-0.0064
1.124,0.0088
1.125,0.0242
1.126,0.0141
1.127,0.005
1.128,0.0033
1.129,0.0138
1.13,0.0315
1.131,0.0436
1.132,0.0326
1.133,0.0185
1.134,0.0021
1.135,-0.0089
1.136,-0.015
1.137,-0.0278
1.138,-0.0327
1.139,-0.0252
1.14,-0.0157
1.141,0.0004
1.142,-0.0062
1.143,-0.0162
1.144,-0.0144
1.145,-0.0161
1.146,-0.0086
1.147,-0.0126
1.148,-0.0091
1.149,-0.0239
1.15,-0.0139
1.151,-0.0011
1.152,-0.0093
1.153,-0.0108
1.154,-0.0067
1.155,0.0017
1.156,0.0028
1.157,0.0098
1.158,0.0052
1.159,0.0059
1.16,0.0081
1.161,-0.0021
1.162,-0.0007
1.163,-0.0075
1.164,0.011
1.165,0.0189
1.166,0.0118
1.167,-0.0036
1.168,-0.0016
1.169,0.0076
1.17,-0.0007
1.171,0.0129
1.172,0.0074
1.173,-0.0009
1.174,-0.0058
1.175,0.0167
1.176,0.0262
1.177,0.0469
1.178,0.0495
1.179,0.0275
1.18,0.0187
1.181,0.0054
1.182,-0.0115
1.183,-0.0181
1.184,-0.0201
1.185,-0.0146
1.186,-0.0162
1.187,-0.0206
1.188,-0.0056
1.189,-0.0076
1.19,-0.0205
1.191,-0.0221
1.192,-0.0146
1.193,-0.0023
1.194,0.0059
1.195,-0.0016
1.196,0.0024
1.197,-0.0036
1.198,-0.0093
1.199,-0.0064
1.2,0.0076
1.201,0.0055
1.202,-0.0073
1.203,-0.0056
1.204,0.0019
1.205,0.0032
1.206,-0.0029
1.207,-0.0108
1.208,0.0044
1.209,0.0244
1.21,0.0057
1.211,0.0129
1.212,0.0107
1.213,0.0006
1.214,-0.0086
1.215,-0.0036
1.216,-0.0111
1.217,0.0011
1.218,-0.0038
1.219,-0.0023
1.22,-0.0064
1.221,-0.0029
1.222,0.0004
1.223,-0.0025
1.224,0.0043
1.225,0.007
1.226,0.0094
1.227,0.0072
1.228,0.0174
1.229,0.0279
1.23,0.0101
1.231,0.0077
1.232,0.0055
1.233,-0.0045
1.234,-0.01
1.235,-0.0051
1.236,-0.0095
1.237,-0.0108
1.238,-0.0047
1.239,-0.0058
1.24,-0.0108
1.241,-0.0135
1.242,-0.0111
1.243,-0.0119
1.244,-0.0056
1.245,-0.0097
1.246,-0.0058
1.247,-0.0133
1.248,-0.0203
1.249,-0.0064
1.25,0.0077
1.251,0.0132
1.252,-0.0018
1.253,-0.0078
1.254,-0.006
1.255,-0.0109
1.256,0.0055
1.257,0.0077
1.258,0.0098
1.259,0.0006
1.26,0.0022
1.261,0.0008
1.262,-0.006
1.263,-0.0095
1.264,-0.0038
1.265,0.0114
1.266,0.0092
1.267,0.0032
1.268,0.005
1.269,0.0033
1.27,-0.0071
1.271,-0.0084
1.272,-0.0119
1.273,0.0052
1.274,0.0173
1.275,0.0072
1.276,0.0226
1.277,0.0246
1.278,0.0337
1.279,0.0354
1.28,0.031
1.281,0.0215
1.282,0.0054
1.283,-0.01
1.284,-0.0161
1.285,-0.0106
1.286,0.001
1.287,-0.0216
1.288,-0.012
1.289,0.0028
1.29,-0.0106
1.291,-0.0177
1.292,-0.0067
1.293,-0.0047
1.294,-0.0139
1.295,-0.0122
1.296,-0.0078
1.297,-0.0011
1.298,-0.0122
1.299,-0.0018
1.3,-0.0058
1.301,0.0127
1.302,-0.006
1.303,0.0061
1.304,-0.0049
1.305,-0.019
1.306,-0.0135
1.307,0.0015
1.308,0.0156
1.309,0.0174
1.31,0.0125
1.311,0.011
1.312,-0.0012
1.313,-0.0095
1.314,0.007
1.315,0.0004
1.316,-0.0016
1.317,-0.0034
1.318,-0.0051
1.319,-0.0007
1.32,-0.002
1.321,0.0041
1.322,0.0098
1.323,0.0088
1.324,-0.0014
1.325,-0.0001
1.326,-0.0001
1.327,-0.0012
1.328,0.0158
1.329,0.0037
1.33,0.0103
1.331,0.0244
1.332,0.0445
1.333,0.0204
1.334,0.0109
1.335,-0.0159
1.336,-0.0194
1.337,-0.0225
1.338,-0.0195
1.339,-0.0274
1.34,-0.0153
1.341,-0.0175
1.342,-0.0155
1.343,-0.01
1.344,-0.0018
1.345,-0.0062
1.346,-0.0102
1.347,-0.0067
1.348,0.0057
1.349,-0.0025
1.35,0.0079
1.351,0.0092
1.352,-0.0043
1.353,-0.0062
1.354,0.0021
1.355,0.0065
1.356,0.0105
1.357,0.024
1.358,0.0076
1.359,0.0054
1.36,0.0033
1.361,0.0162
1.362,-0.0054
1.363,-0.0203
1.364,-0.0124
1.365,-0.01
1.366,0.001
1.367,-0.0011
1.368,-0.0065
1.369,-0.0216
1.37,0.0006
1.371,0.0035
1.372,0.0061
1.373,0.0132
1.374,0.0022
1.375,0.0204
1.376,0.0228
1.377,0.0365
1.378,0.0343
1.379,0.0323
1.38,0.0121
1.381,-0.0012
1.382,-0.0133
1.383,-0.0023
1.384,-0.0124
1.385,-0.0216
1.386,-0.0399
1.387,-0.0327
1.388,-0.0173
1.389,0.0048
1.39,0.0019
1.391,0.0044
1.392,-0.0027
1.393,0.0039
1.394,-0.0062
1.395,-0.0153
1.396,-0.0137
1.397,-0.0152
1.398,-0.0111
1.399,-0.0122
1.4,-0.0043
1.401,0.0026
1.402,-0.002
1.403,0.0105
1.404,0.005
1.405,-0.0032
1.406,-0.0018
1.407,0.005
1.408,0.0061
1.409,0.005
1.41,0.0141
1.411,0.0081
1.412,0.0048
1.413,0.0019
1.414,0.0065
1.415,0.0041
1.416,0.0033
1.417,0.0015
1.418,0.001
1.419,0.0026
1.42,0.0039
1.421,0.0043
1.422,0.0032
1.423,0.0074
1.424,0.0158
1.425,0.0046
1.426,-0.015
1.427,-0.0071
1.428,-0.0155
1.429,-0.0034
1.43,-0.0012
1.431,0.0008
1.432,0.0209
1.433,0.0343
1.434,0.0414
1.435,0.0348
1.436,0.0288
1.437,0.0087
1.438,0.0061
1.439,0.0132
1.44,0.0154
1.441,0.0336
1.442,0.0215
1.443,0.0105
1.444,0.0125
1.445,0.0143
1.446,0.0293
1.447,0.0072
1.448,-0.0016
1.449,-0.015
1.45,-0.0173
1.451,-0.002
1.452,0.0162
1.453,-0.0203
1.454,-0.0358
1.455,-0.0501
1.456,-0.0543
1.457,-0.0426
1.458,-0.0391
1.459,-0.0422
1.46,-0.0335
1.461,-0.0256
1.462,-0.0087
1.463,-0.0241
1.464,-0.006
1.465,-0.0036
1.466,-0.0058
1.467,-0.0119
1.468,0.0119
1.469,0.0215
1.47,0.0244
1.471,0.0002
1.472,-0.0093
1.473,-0.0005
1.474,-0.0031
1.475,0.0138
1.476,0.0072
1.477,-0.0069
1.478,-0.0087
1.479,-0.006
1.48,0.0022
1.481,0.0218
1.482,0.0193
1.483,0.0264
1.484,0.033
1.485,0.027
1.486,0.0398
1.487,0.0614
1.488,0.0821
1.489,0.0579
1.49,0.0222
1.491,0.0079
1.492,-0.0049
1.493,-0.0087
1.494,-0.0194
1.495,-0.0289
1.496,-0.0318
1.497,-0.0397
1.498,-0.0228
1.499,-0.0294
1.5,-0.0314
1.501,-0.015
1.502,-0.0172
1.503,-0.0152
1.504,-0.028
1.505,-0.0197
1.506,0.0028
1.507,0.0123
1.508,0.0094
1.509,-0.004
1.51,-0.0064
1.511,-0.0086
1.512,-0.0025
1.513,0.0176
1.514,0.0098
1.515,0.0026
1.516,0.0048
1.517,0.0109
1.518,-0.0056
1.519,-0.0034
1.52,-0.0014
1.521,0.0077
1.522,0.0228
1.523,0.0167
1.524,0.0112
1.525,0.0063
1.526,0.0048
1.527,0.0035
1.528,0.0119
1.529,0.0063
1.53,0.0035
1.531,0.0044
1.532,0.0017
1.533,0.0125
1.534,0.035
1.535,0.0511
1.536,0.0541
1.537,0.0191
1.538,-0.0047
1.539,-0.0175
1.54,-0.0137
1.541,0.0041
1.542,-0.0054
1.543,-0.0203
1.544,-0.0124
1.545,-0.0148
1.546,-0.0082
1.547,0.0019
1.548,0.0074
1.549,0.009
1.55,0.0105
1.551,-0.0018
1.552,-0.0067
1.553,-0.0023
1.554,-0.0091
1.555,-0.0152
1.556,-0.023
1.557,-0.0201
1.558,-0.0098
1.559,-0.0111
1.56,-0.0223
1.561,-0.0148
1.562,-0.0161
1.563,-0.0172
1.564,-0.0161
1.565,-0.0111
1.566,0.0028
1.567,0.0169
1.568,0.0224
1.569,0.0207
1.57,0.0163
1.571,0.0068
1.572,0.0129
1.573,0.0072
1.574,0.0101
1.575,0.0017
1.576,-0.004
1.577,-0.0069
1.578,-0.0042
1.579,-0.0082
1.58,-0.012
1.581,-0.0089
1.582,-0.0043
1.583,0.0052
1.584,0.0119
1.585,0.0304
1.586,0.0438
1.587,0.0462
1.588,0.0262
1.589,0.0021
1.59,-0.0075
1.591,-0.0104
1.592,-0.0183
1.593,-0.0159
1.594,-0.0049
1.595,0.0092
1.596,0
1.597,0.0017
1.598,-0.0119
1.599,-0.01
1.6,-0.0018
1.601,-0.0003
1.602,-0.0098
1.603,-0.0109
1.604,-0.0212
1.605,-0.0199
1.606,-0.0164
1.607,-0.0175
1.608,-0.0106
1.609,-0.0097
1.61,-0.0021
1.611,-0.0133
1.612,-0.0089
1.613,-0.0021
1.614,0.009
1.615,0.0046
1.616,0.0251
1.617,0.0281
1.618,0.0094
1.619,0.0118
1.62,0.0096
1.621,0.0035
1.622,0.0017
1.623,0.0033
1.624,-0.0042
1.625,0.0109
1.626,0.0088
1.627,-0.0003
1.628,0.0046
1.629,0.0032
1.63,-0.0009
1.631,0.0002
1.632,-0.0038
1.633,0.0132
1.634,0.0352
1.635,0.0323
1.636,0.051
1.637,0.0729
1.638,0.0522
1.639,0.0281
1.64,0.0119
1.641,0.0268
1.642,0.0081
1.643,-0.0236
1.644,-0.0364
1.645,-0.056
1.646,-0.0666
1.647,-0.0697
1.648,-0.0668
1.649,-0.0642
1.65,-0.0571
1.651,-0.0371
1.652,-0.0397
1.653,-0.0468
1.654,-0.0578
1.655,-0.08
1.656,-0.077
1.657,-0.0957
1.658,-0.1078
1.659,-0.1232
1.66,-0.1453
1.661,-0.1365
1.662,-0.1232
1.663,-0.1208
1.664,-0.1142
1.665,-0.084
1.666,-0.019
1.667,0.0837
1.668,0.152
1.669,0.1894
1.67,0.2005
1.671,0.1903
1.672,0.181
1.673,0.1557
1.674,0.1172
1.675,0.0964
1.676,0.0901
1.677,0.0845
1.678,0.0896
1.679,0.0848
1.68,0.1064
1.681,0.0947
1.682,0.0982
1.683,0.1031
1.684,0.1127
1.685,0.1097
1.686,0.0964
1.687,0.1183
1.688,0.1095
1.689,0.0909
1.69,0.0544
1.691,0.0072
1.692,-0.0117
1.693,-0.006
1.694,-0.0009
1.695,-0.0247
1.696,-0.0375
1.697,-0.0413
1.698,-0.052
1.699,-0.0551
1.7,-0.058
1.701,-0.0554
1.702,-0.0531
1.703,-0.0553
1.704,-0.0492
1.705,-0.0584
1.706,-0.06
1.707,-0.0615
1.708,-0.0547
1.709,-0.0631
1.71,-0.0688
1.711,-0.0659
1.712,-0.0798
1.713,-0.0778
1.714,-0.0723
1.715,-0.0673
1.716,-0.0569
1.717,-0.0556
1.718,-0.0496
1.719,-0.0553
1.72,-0.0441
1.721,-0.0245
1.722,-0.0324
1.723,-0.0104
1.724,-0.0075
1.725,-0.0153
1.726,-0.0177
1.727,-0.0155
1.728,-0.0095
1.729,-0.0076
1.73,-0.006
1.731,0.0044
1.732,0.0004
1.733,-0.0056
1.734,-0.0119
1.735,-0.004
1.736,0.0112
1.737,0.0444
1.738,0.0301
1.739,0.0517
1.74,0.0478
1.741,0.0301
1.742,0.014
1.743,0.011
1.744,-0.0076
1.745,-0.0197
1.746,-0.0351
1.747,-0.017
1.748,-0.0001
1.749,-0.0067
1.75,-0.0047
1.751,0.0081
1.752,-0.0001
1.753,0.0074
1.754,0.0061
1.755,-0.0051
1.756,-0.0036
1.757,0.0032
1.758,0.0066
1.759,0.0033
1.76,0.0004
1.761,0.0032
1.762,0.0088
1.763,0.0019
1.764,0.001
1.765,0.0066
1.766,0.0074
1.767,0.0055
1.768,0.0125
1.769,0.0079
1.77,0.0136
1.771,0.0158
1.772,0.0163
1.773,0.0081
1.774,0.0184
1.775,-0.0021
1.776,-0.0051
1.777,0.0028
1.778,0.0149
1.779,0.0039
1.78,0.0059
1.781,-0.0032
1.782,0.0083
1.783,0.0098
1.784,0.0002
1.785,-0.0053
1.786,0.0008
1.787,0.0065
1.788,0.0217
1.789,0.046
1.79,0.0429
1.791,0.0162
1.792,0.0196
1.793,0.0358
1.794,-0.0029
1.795,-0.008
1.796,-0.0128
1.797,-0.017
1.798,-0.0053
1.799,-0.0159
1.8,-0.0128
1.801,-0.0098
1.802,-0.0124
1.803,-0.0148
1.804,-0.0214
1.805,-0.0153
1.806,-0.0062
1.807,0.0021
1.808,0.0006
1.809,-0.0007
1.81,-0.0042
1.811,-0.0009
1.812,0.0061
1.813,0.0033
1.814,-0.0007
1.815,-0.006
1.816,-0.0078
1.817,0.0017
1.818,0.0004
1.819,-0.0007
1.82,0.0004
1.821,-0.0005
1.822,-0.0014
1.823,0.0061
1.824,0.009
1.825,0.0081
1.826,-0.0027
1.827,0.0017
1.828,0.0057
1.829,0.0022
1.83,0.0101
1.831,0.0032
1.832,-0.0032
1.833,-0.0009
1.834,0.003
1.835,0.0105
1.836,0.0028
1.837,0.0037
1.838,0.0176
1.839,0.0277
1.84,0.0552
1.841,0.0277
1.842,0.0028
1.843,-0.0133
1.844,-0.0045
1.845,-0.0124
1.846,-0.0148
1.847,-0.0082
1.848,-0.0303
1.849,-0.0333
1.85,-0.0091
1.851,0.007
1.852,-0.0078
1.853,-0.0104
1.854,-0.0128
1.855,-0.0018
1.856,-0.0038
1.857,-0.0056
1.858,-0.0106
1.859,-0.0001
1.86,0.0011
1.861,0.0123
1.862,0.0109
1.863,0.0149
1.864,0.0088
1.865,0.0077
1.866,0.0048
1.867,-0.0036
1.868,-0.0069
1.869,-0.004
1.87,0.0044
1.871,-0.0034
1.872,-0.0084
1.873,-0.0148
1.874,-0.0124
1.875,-0.0009
1.876,0.0074
1.877,0.0118
1.878,0.0022
1.879,-0.0062
1.88,0.0063
1.881,-0.0053
1.882,-0.0097
1.883,-0.0084
1.884,0.0028
1.885,0.0132
1.886,0.0092
1.887,-0.006
1.888,0
1.889,0.0033
1.89,0.0125
1.891,0.009
1.892,0.026
1.893,0.0528
1.894,0.0279
1.895,0.0248
1.896,-0.0078
1.897,-0.0206
1.898,-0.0168
1.899,-0.0062
1.9,-0.0157
1.901,-0.0186
1.902,-0.0161
1.903,-0.0184
1.904,-0.0162
1.905,-0.0102
1.906,-0.0157
1.907,-0.0141
1.908,-0.0216
1.909,-0.0065
1.91,0.0035
1.911,-0.002
1.912,-0.0102
1.913,-0.0146
1.914,-0.0106
1.915,0.0079
1.916,0.0374
1.917,0.0099
1.918,0.0065
1.919,0.0096
1.92,0.0008
1.921,-0.0018
1.922,0.0054
1.923,0.0076
1.924,-0.0025
1.925,0.003
1.926,0.0079
1.927,0.0065
1.928,0.0105
1.929,0.0044
1.93,-0.008
1.931,-0.0064
1.932,0.0101
1.933,0.0123
1.934,0.0063
1.935,0.0008
1.936,-0.0009
1.937,0.0096
1.938,0.0057
1.939,0.007
1.94,0.0059
1.941,0.0229
1.942,0.0398
1.943,0.0288
1.944,0.0228
1.945,0.0026
1.946,-0.0053
1.947,-0.0076
1.948,-0.023
1.949,-0.021
1.95,-0.0119
1.951,-0.0102
1.952,-0.0206
1.953,-0.0219
1.954,-0.0034
1.955,0.0099
1.956,-0.012
1.957,-0.0091
1.958,-0.0117
1.959,-0.0141
1.96,-0.0075
1.961,-0.0054
1.962,-0.0073
1.963,-0.0155
1.964,-0.0111
1.965,0.0066
1.966,-0.0005
1.967,0.0017
1.968,0.0118
1.969,-0.0084
1.97,-0.0109
1.971,0.0011
1.972,0.0121
1.973,0.0061
1.974,0.0006
1.975,-0.0011
1.976,-0.0025
1.977,-0.0093
1.978,-0.0058
1.979,-0.0183
1.98,0.0066
1.981,0.0173
1.982,0.0141
1.983,0.0054
1.984,0.0079
1.985,-0.0042
1.986,0.0024
1.987,0.0004
1.988,0.0022
1.989,0.0079
1.99,-0.0003
1.991,0.0132
1.992,0.0077
1.993,0.0293
1.994,0.0442
1.995,0.02
1.996,0.0105
1.997,-0.0043
1.998,-0.0018
1.999,-0.0089
2,-0.0199
2.001,-0.0098
2.002,-0.0043
2.003,-0.0027
2.004,-0.0192
2.005,-0.0214
2.006,-0.0153
2.007,0.0011
2.008,-0.0054
2.009,-0.0115
2.01,-0.0133
2.011,-0.0051
2.012,-0.0036
2.013,0.0059
2.014,-0.0076
2.015,-0.0021
2.016,0.0094
2.017,0.0019
2.018,-0.0076
2.019,-0.0042
2.02,-0.0009
2.021,-0.0038
2.022,0.0008
2.023,0
2.024,-0.0053
2.025,0.0037
2.026,0.0026
2.027,-0.0076
2.028,-0.0036
2.029,0.0149
2.03,0.0123
2.031,0.0002
2.032,-0.002
2.033,0
2.034,0.0019
2.035,0.0035
2.036,0.011
2.037,-0.0012
2.038,0.0004
2.039,0.0019
2.04,0.0094
2.041,0.0054
2.042,0.0088
2.043,-0.0014
2.044,0.0191
2.045,0.0339
2.046,0.0314
2.047,0.0242
2.048,0.022
2.049,0.0281
2.05,0.0372
2.051,0.0189
2.052,0.0021
2.053,-0.0133
2.054,-0.0274
2.055,-0.0329
2.056,-0.0346
2.057,-0.0271
2.058,-0.0283
2.059,-0.0272
2.06,-0.017
2.061,-0.0265
2.062,-0.0325
2.063,-0.0223
2.064,-0.0155
2.065,-0.0095
2.066,-0.0016
2.067,0.0013
2.068,0.0004
2.069,-0.0003
2.07,0.0004
2.071,-0.0029
2.072,0.0054
2.073,-0.0025
2.074,-0.0016
2.075,0.0048
2.076,-0.006
2.077,-0.0016
2.078,-0.0084
2.079,-0.0023
2.08,0.0079
2.081,0.0229
2.082,0.0169
2.083,0.0041
2.084,0.0024
2.085,0.0099
2.086,0.0112
2.087,0.0123
2.088,0.018
2.089,0.0088
2.09,0.0004
2.091,0.0043
2.092,0.001
2.093,0.0121
2.094,0.0165
2.095,0.037
2.096,0.04
2.097,0.0266
2.098,0.0145
2.099,-0.0054
2.1,-0.0241
2.101,-0.017
2.102,-0.0104
2.103,0.0037
2.104,-0.0201
2.105,-0.017
2.106,-0.0141
2.107,-0.0062
2.108,0.0059
2.109,0.0037
2.11,-0.0023
2.111,-0.0042
2.112,-0.0091
2.113,-0.0106
2.114,-0.0119
2.115,-0.0084
2.116,-0.0073
2.117,-0.0064
2.118,-0.0036
2.119,-0.0012
2.12,-0.0051
2.121,0.0052
2.122,0.0037
2.123,-0.0003
2.124,0.0008
2.125,0.0041
2.126,0.0011
2.127,-0.0091
2.128,-0.0051
2.129,0.001
2.13,0.0134
2.131,0.0052
2.132,-0.0023
2.133,-0.0146
2.134,-0.0064
2.135,0.0041
2.136,-0.0027
2.137,-0.0062
2.138,-0.0005
2.139,0.0087
2.14,0.0098
2.141,-0.0005
2.142,0.0087
2.143,0.0074
2.144,0.0209
2.145,0.0264
2.146,0.038
2.147,0.0455
2.148,0.0414
2.149,0.0229
2.15,0.0043
2.151,-0.0126
2.152,-0.0104
2.153,-0.0164
2.154,-0.0146
2.155,-0.013
2.156,-0.0115
2.157,-0.0128
2.158,-0.0162
2.159,-0.013
2.16,-0.01
2.161,-0.0128
2.162,-0.0071
2.163,-0.0049
2.164,-0.0124
2.165,-0.0095
2.166,-0.0049
2.167,-0.0056
2.168,-0.0049
2.169,0.0026
2.17,0.0017
2.171,-0.0011
2.172,-0.0051
2.173,-0.0029
2.174,0.0074
2.175,-0.0001
2.176,0.0011
2.177,0.0046
2.178,0.0035
2.179,0.0085
2.18,0.0094
2.181,0.0037
2.182,0.0059
2.183,0.0105
2.184,0.0022
2.185,0.0055
2.186,0.0006
2.187,0.0052
2.188,0.0011
2.189,-0.0011
2.19,-0.0043
2.191,-0.0049
2.192,0.0035
2.193,-0.0016
2.194,-0.0005
2.195,0.0074
2.196,0.0065
2.197,0.0185
2.198,0.0369
2.199,0.0297
2.2,0.0231
2.201,0.009
2.202,-0.0001
2.203,-0.0051
2.204,-0.0155
2.205,-0.0142
2.206,-0.0203
2.207,-0.0146
2.208,-0.0014
2.209,-0.0142
2.21,-0.0225
2.211,-0.012
2.212,-0.0133
2.213,-0.0168
2.214,-0.0157
2.215,-0.0065
2.216,-0.0076
2.217,-0.0087
2.218,-0.0058
2.219,-0.0012
2.22,0.0028
2.221,0.005
2.222,0.0055
2.223,0.0037
2.224,0.0065
2.225,0.0061
2.226,0.0057
2.227,0.0019
2.228,-0.0027
2.229,-0.0009
2.23,-0.0003
2.231,-0.0007
2.232,-0.0011
2.233,0.0017
2.234,-0.0025
2.235,0.0013
2.236,0.0088
2.237,0.0077
2.238,0.0068
2.239,0.0096
2.24,0.0004
2.241,-0.0007
2.242,-0.0018
2.243,0.0032
2.244,0.0021
2.245,-0.0064
2.246,0.0107
2.247,0.013
2.248,0.0374
2.249,0.0405
2.25,0.0317
2.251,0.013
2.252,0.0059
2.253,-0.0095
2.254,-0.0115
2.255,-0.017
2.256,-0.0153
2.257,-0.0139
2.258,-0.0179
2.259,-0.0168
2.26,-0.0157
2.261,-0.0108
2.262,-0.008
2.263,-0.0023
2.264,-0.0093
2.265,-0.0102
2.266,-0.0062
2.267,-0.01
2.268,-0.0095
2.269,-0.0051
2.27,0
2.271,0.0019
2.272,-0.0051
2.273,-0.0042
2.274,0.0015
2.275,-0.0023
2.276,0.0022
2.277,0.0092
2.278,0.0028
2.279,-0.0012
2.28,-0.0051
2.281,-0.0018
2.282,0.0026
2.283,0.011
2.284,0.0121
2.285,0.0043
2.286,0.0013
2.287,0.0059
2.288,0.0052
2.289,0.0059
2.29,0.0149
2.291,0.0184
2.292,0.0105
2.293,0.0055
2.294,0.0065
2.295,0.0094
2.296,0.0002
2.297,0.0138
2.298,0.0193
2.299,0.0343
2.3,0.0444
2.301,0.0425
2.302,0.0343
2.303,0.0239
2.304,0.0334
2.305,0.0222
2.306,0.0178
2.307,0
2.308,-0.012
2.309,-0.023
2.31,-0.0291
2.311,-0.0346
2.312,-0.0428
2.313,-0.0353
2.314,-0.0313
2.315,-0.0302
2.316,-0.0291
2.317,-0.0221
2.318,-0.0175
2.319,-0.0168
2.32,-0.0161
2.321,-0.0115
2.322,-0.0109
2.323,-0.0093
2.324,-0.0069
2.325,-0.0009
2.326,-0.0032
2.327,-0.0025
2.328,-0.0058
2.329,0.0037
2.33,0.005
2.331,0.0085
2.332,0.0096
2.333,0.0066
2.334,0.0057
2.335,0.0033
2.336,0.0011
2.337,0.0017
2.338,0.0048
2.339,0.0076
2.34,0.003
2.341,0.0011
2.342,0.0096
2.343,0.013
2.344,0.0052
2.345,0.0081
2.346,0.0035
2.347,0.0026
2.348,0.0083
2.349,0.003
2.35,0.0011
2.351,0.0055
2.352,0.0017
2.353,0.0021
2.354,0.0024
2.355,0.0087
2.356,0.0114
2.357,0.0154
2.358,0.0193
2.359,0.0295
2.36,0.0431
2.361,0.0303
2.362,0.0187
2.363,-0.0038
2.364,-0.0133
2.365,-0.0162
2.366,-0.0188
2.367,-0.0212
2.368,-0.019
2.369,-0.021
2.37,-0.0228
2.371,-0.0212
2.372,-0.0137
2.373,-0.0124
2.374,-0.0113
2.375,-0.0056
2.376,-0.0047
2.377,-0.002
2.378,0.0072
2.379,0.0083
2.38,0.0072
2.381,0.0184
2.382,0.0228
2.383,0.0268
2.384,0.0257
2.385,0.029
2.386,0.0198
2.387,0.0209
2.388,0.0176
2.389,0.0107
2.39,0.0134
2.391,0.0026
2.392,-0.0109
2.393,-0.0201
2.394,-0.0283
2.395,-0.0388
2.396,-0.051
2.397,-0.0558
2.398,-0.0542
2.399,-0.0377
2.4,-0.0355
2.401,-0.0173
2.402,0.0094
2.403,-0.0155
2.404,-0.0448
2.405,-0.0644
2.406,-0.0966
2.407,-0.1182
2.408,-0.1457
2.409,-0.1422
2.41,-0.1261
2.411,-0.1113
2.412,-0.1087
2.413,-0.1016
2.414,-0.0772
2.415,-0.0285
2.416,0.0766
2.417,0.1518
2.418,0.1654
2.419,0.1778
2.42,0.1667
2.421,0.1564
2.422,0.1471
2.423,0.1048
2.424,0.0663
2.425,0.0455
2.426,0.0392
2.427,0.0449
2.428,0.0605
2.429,0.0748
2.43,0.0964
2.431,0.116
2.432,0.1125
2.433,0.1156
2.434,0.1068
2.435,0.1094
2.436,0.1022
2.437,0.0823
2.438,0.042
2.439,0.0132
2.44,0.0081
2.441,0.0224
2.442,0.0182
2.443,0.022
2.444,0.0114
2.445,-0.0047
2.446,-0.0135
2.447,-0.0269
2.448,-0.0353
2.449,-0.0377
2.45,-0.0311
2.451,-0.0331
2.452,-0.0313
2.453,-0.023
2.454,-0.0305
2.455,-0.0292
2.456,-0.0353
2.457,-0.0523
2.458,-0.0692
2.459,-0.0758
2.46,-0.0818
2.461,-0.0873
2.462,-0.0856
2.463,-0.09
2.464,-0.086
2.465,-0.0825
2.466,-0.0701
2.467,-0.0651
2.468,-0.0547
2.469,-0.0479
2.47,-0.0395
2.471,-0.0428
2.472,-0.0358
2.473,-0.0256
2.474,-0.0216
2.475,-0.0155
2.476,-0.0166
2.477,-0.0137
2.478,-0.0073
2.479,-0.008
2.48,-0.0058
2.481,0.0032
2.482,0.0043
2.483,0.0054
2.484,0.0063
2.485,0.0109
2.486,0.0116
2.487,0.0123
2.488,0.0061
2.489,0.0068
2.49,0.0107
2.491,0.0152
2.492,0.0158
2.493,0.0141
2.494,0.0118
2.495,0.0178
2.496,0.0138
2.497,0.0176
2.498,0.0143
2.499,0.0101
2.5,0.0132
2.501,0.0217
2.502,0.0251
2.503,0.0354
2.504,0.0449
2.505,0.046
2.506,0.029
2.507,0.007
2.508,-0.0018
2.509,-0.0097
2.51,-0.012
2.511,-0.0186
2.512,-0.0126
2.513,-0.0071
2.514,-0.0087
2.515,-0.0102
2.516,-0.0034
2.517,0
2.518,-0.0078
2.519,-0.0128
2.52,-0.0007
2.521,0.001
2.522,0.0024
2.523,0.0011
2.524,0.0046
2.525,0.0079
2.526,0.005
2.527,0.0096
2.528,0.0021
2.529,0.003
2.53,0.0021
2.531,0.0061
2.532,0.0068
2.533,0.0035
2.534,0.0017
2.535,-0.0034
2.536,-0.0029
2.537,0.0041
2.538,0.0013
2.539,0.0088
2.54,0.0059
2.541,0.0087
2.542,0.0046
2.543,0.0054
2.544,0.0008
2.545,0.0026
2.546,0.0021
2.547,0.0024
2.548,0.0011
2.549,0.0015
2.55,0.0013
2.551,-0.0043
2.552,0.0081
2.553,0.0136
2.554,0.0251
2.555,0.0416
2.556,0.0438
2.557,0.0257
2.558,0.0088
2.559,-0.0065
2.56,-0.0126
2.561,-0.0217
2.562,-0.0168
2.563,-0.0212
2.564,-0.0172
2.565,-0.0183
2.566,-0.0104
2.567,-0.0133
2.568,-0.0124
2.569,-0.0084
2.57,-0.0031
2.571,-0.0049
2.572,0.0008
2.573,0.0015
2.574,-0.0018
2.575,-0.0036
2.576,0.0048
2.577,0.0013
2.578,-0.0089
2.579,-0.0076
2.58,-0.0042
2.581,-0.0009
2.582,0
2.583,0.0028
2.584,0.0004
2.585,-0.0003
2.586,0.0043
2.587,0.0061
2.588,0.0022
2.589,0.001
2.59,0.0013
2.591,0.0024
2.592,-0.0032
2.593,0.0024
2.594,0.0002
2.595,0.0008
2.596,-0.0036
2.597,0.0037
2.598,-0.0032
2.599,0.0107
2.6,0.0127
2.601,0.0094
2.602,0.0076
2.603,-0.0007
2.604,0.0098
2.605,0.022
2.606,0.0336
2.607,0.0292
2.608,0.0169
2.609,0.0019
2.61,-0.0122
2.611,-0.0141
2.612,-0.019
2.613,-0.0115
2.614,-0.0183
2.615,-0.0217
2.616,-0.0139
2.617,-0.0109
2.618,-0.0155
2.619,-0.0131
2.62,-0.0153
2.621,-0.0051
2.622,0.0024
2.623,-0.0043
2.624,-0.0078
2.625,-0.0045
2.626,-0.0036
2.627,-0.0009
2.628,0.0015
2.629,-0.0007
2.63,0.0039
2.631,-0.0005
2.632,-0.0011
2.633,0.0002
2.634,0.0024
2.635,0.0044
2.636,0.0033
2.637,-0.0007
2.638,0.0026
2.639,-0.0005
2.64,-0.0016
2.641,0.001
2.642,0.0006
2.643,-0.0001
2.644,0
2.645,-0.0001
2.646,0.0004
2.647,-0.0001
2.648,0.0028
2.649,0.0039
2.65,0.0013
2.651,-0.002
2.652,0.0013
2.653,0.0033
2.654,0.009
2.655,0.013
2.656,0.0246
2.657,0.0361
2.658,0.0497
2.659,0.0332
2.66,0.0132
2.661,-0.0001
2.662,-0.0073
2.663,-0.0095
2.664,-0.0155
2.665,-0.0173
2.666,-0.0223
2.667,-0.0148
2.668,-0.0161
2.669,-0.015
2.67,-0.0071
2.671,-0.008
2.672,-0.0016
2.673,-0.0023
2.674,-0.0062
2.675,-0.0043
2.676,-0.0012
2.677,-0.004
2.678,-0.0036
2.679,-0.0005
2.68,0.0033
2.681,0.003
2.682,0.0026
2.683,0.0054
2.684,0.0043
2.685,0.0024
2.686,0.0032
2.687,0.0019
2.688,0
2.689,0.0035
2.69,0.0059
2.691,0.0046
2.692,0.0019
2.693,0.0015
2.694,0.0011
2.695,0.0013
2.696,0
2.697,-0.0023
2.698,-0.0009
2.699,-0.0021
2.7,0.0008
2.701,0.0011
2.702,0.0022
2.703,-0.0009
2.704,-0.0016
2.705,0.0026
2.706,0.0121
2.707,0.0271
2.708,0.0412
2.709,0.0174
2.71,0.0143
2.711,-0.0005
2.712,-0.0139
2.713,-0.021
2.714,-0.0144
2.715,-0.0124
2.716,-0.0142
2.717,-0.0126
2.718,-0.0141
2.719,-0.0073
2.72,-0.0084
2.721,-0.0095
2.722,-0.0124
2.723,-0.006
2.724,-0.0067
2.725,-0.0075
2.726,-0.008
2.727,-0.0011
2.728,-0.0056
2.729,-0.0016
2.73,0.0006
2.731,0.0039
2.732,-0.0005
2.733,-0.0021
2.734,0.0002
2.735,-0.002
2.736,0.0026
2.737,0.0008
2.738,0.0024
2.739,0.0048
2.74,0.0061
2.741,0.0033
2.742,0.0037
2.743,-0.0011
2.744,-0.0029
2.745,-0.0045
2.746,-0.0012
2.747,-0.0034
2.748,0.0028
2.749,0.0055
2.75,0.0032
2.751,-0.0007
2.752,-0.0012
2.753,-0.0007
2.754,0.0035
2.755,0.0098
2.756,0.0173
2.757,0.0123
2.758,0.0226
2.759,0.0348
2.76,0.0431
2.761,0.0356
2.762,0.0151
2.763,0.0002
2.764,-0.0131
2.765,-0.0155
2.766,-0.0177
2.767,-0.0157
2.768,-0.0175
2.769,-0.0192
2.77,-0.0148
2.771,-0.0135
2.772,-0.017
2.773,-0.0159
2.774,-0.013
2.775,-0.0084
2.776,-0.0124
2.777,-0.0023
2.778,-0.0011
2.779,-0.0071
2.78,-0.0038
2.781,-0.0067
2.782,-0.0003
2.783,0.0037
2.784,0.009
2.785,0.0044
2.786,0.0026
2.787,0.0032
2.788,0.0055
2.789,0.0068
2.79,0.0065
2.791,0.0022
2.792,-0.0016
2.793,0.003
2.794,-0.004
2.795,-0.0031
2.796,0.001
2.797,0.0002
2.798,-0.0016
2.799,0.0015
2.8,0.001
2.801,0.0022
2.802,0.0026
2.803,-0.0012
2.804,0.0021
2.805,0.0006
2.806,0.0037
2.807,0.0099
2.808,0.0184
2.809,0.0354
2.81,0.033
2.811,0.0176
2.812,0.0076
2.813,-0.0053
2.814,-0.0102
2.815,-0.0146
2.816,-0.0133
2.817,-0.0122
2.818,-0.0133
2.819,-0.0104
2.82,-0.0113
2.821,-0.012
2.822,-0.0098
2.823,-0.008
2.824,-0.0075
2.825,-0.008
2.826,-0.0056
2.827,-0.0069
2.828,-0.0058
2.829,-0.0016
2.83,-0.0021
2.831,-0.0045
2.832,-0.0014
2.833,0.0024
2.834,0.0011
2.835,0.0054
2.836,0.0037
2.837,0.0004
2.838,0.0017
2.839,0.0013
2.84,0.0002
2.841,-0.0016
2.842,0.0011
2.843,0.0068
2.844,0.0143
2.845,0.0173
2.846,0.0052
2.847,0.0002
2.848,-0.0012
2.849,0.0028
2.85,-0.0007
2.851,-0.0018
2.852,0.0011
2.853,0.0039
2.854,0.0015
2.855,-0.0038
2.856,-0.0053
2.857,-0.0071
2.858,0.0024
2.859,0.0202
2.86,0.037
2.861,0.0304
2.862,0.0163
2.863,0.0035
2.864,-0.0047
2.865,-0.0091
2.866,-0.0131
2.867,-0.0166
2.868,-0.0109
2.869,-0.01
2.87,-0.0128
2.871,-0.0071
2.872,-0.0093
2.873,-0.0111
2.874,-0.0067
2.875,-0.0062
2.876,-0.0058
2.877,-0.0045
2.878,-0.0034
2.879,-0.0023
2.88,-0.002
2.881,-0.0027
2.882,-0.0029
2.883,0.0011
2.884,0.0028
2.885,0.0032
2.886,0.001
2.887,0.0013
2.888,0.0024
2.889,0.0035
2.89,0.0021
2.891,0.0039
2.892,0.0026
2.893,0.0028
2.894,-0.0001
2.895,0.0033
2.896,0.0011
2.897,0.0032
2.898,-0.0011
2.899,0.0028
2.9,0.0052
2.901,0.0039
2.902,0.0035
2.903,0.0017
2.904,0.0065
2.905,0.0033
2.906,0.005
2.907,0.0021
2.908,0.0066
2.909,0.0162
2.91,0.0174
2.911,0.0359
2.912,0.0385
2.913,0.0361
2.914,0.0207
2.915,0.0066
2.916,-0.0062
2.917,-0.0144
2.918,-0.013
2.919,-0.0197
2.92,-0.0186
2.921,-0.0175
2.922,-0.0146
2.923,-0.0137
2.924,-0.013
2.925,-0.0122
2.926,-0.0104
2.927,-0.0098
2.928,-0.0082
2.929,-0.0049
2.93,-0.008
2.931,-0.0069
2.932,-0.0034
2.933,-0.0003
2.934,0.0008
2.935,0.0026
2.936,0.0008
2.937,0.0041
2.938,0.001
2.939,-0.0036
2.94,-0.0018
2.941,0.001
2.942,-0.0003
2.943,0.0028
2.944,0.0017
2.945,0.0028
2.946,0.0061
2.947,0.0081
2.948,0.0046
2.949,0.0033
2.95,0.0061
2.951,0.0065
2.952,0.0024
2.953,0.0037
2.954,0.0041
2.955,0.003
2.956,0.0019
2.957,0.0008
2.958,-0.0038
2.959,-0.0084
2.96,-0.0009
2.961,0.0061
2.962,0.0163
2.963,0.0286
2.964,0.0401
2.965,0.0176
2.966,0.0081
2.967,-0.0007
2.968,-0.0086
2.969,-0.0109
2.97,-0.0131
2.971,-0.0152
2.972,-0.0133
2.973,-0.015
2.974,-0.0164
2.975,-0.0097
2.976,-0.0108
2.977,-0.0097
2.978,-0.0047
2.979,-0.0075
2.98,-0.0051
2.981,-0.0012
2.982,0.0006
2.983,0.0024
2.984,0.0041
2.985,0.0037
2.986,0.0059
2.987,0.0032
2.988,0.0057
2.989,0.0039
2.99,0.0079
2.991,0.0085
2.992,0.0072
2.993,0.0041
2.994,0.0021
2.995,0.0002
2.996,0.0021
2.997,-0.0012
2.998,-0.0034
2.999,-0.0031
3,0.0004
3.001,0
3.002,-0.0062
3.003,0.0002
3.004,-0.0005
3.005,-0.0027
3.006,-0.0021
3.007,-0.0003
3.008,0.0002
3.009,-0.0001
3.01,0.0002
3.011,0.0054
3.012,0.0156
3.013,0.0352
3.014,0.0326
3.015,0.0158
3.016,0.0092
3.017,-0.0009
3.018,-0.0064
3.019,-0.0113
3.02,-0.0098
3.021,-0.0111
3.022,-0.01
3.023,-0.0111
3.024,-0.0082
3.025,-0.0073
3.026,-0.008
3.027,-0.0087
3.028,-0.0069
3.029,-0.0087
3.03,-0.0071
3.031,-0.0038
3.032,-0.0007
3.033,0.0013
3.034,0.0017
3.035,-0.0031
3.036,-0.0012
3.037,-0.0029
3.038,-0.0042
3.039,-0.0054
3.04,0.0008
3.041,0.0017
3.042,0.001
3.043,0.0002
3.044,-0.0003
3.045,0.0028
3.046,0
3.047,0.0004
3.048,0
3.049,-0.0003
3.05,0.0032
3.051,-0.0011
3.052,0.0028
3.053,0.0052
3.054,0.003
3.055,0.0033
3.056,0.0037
3.057,0.0041
3.058,0.0013
3.059,-0.0029
3.06,-0.0001
3.061,0.0015
3.062,0.009
3.063,0.0147
3.064,0.0279
3.065,0.0444
3.066,0.029
3.067,0.0149
3.068,0.0057
3.069,-0.0025
3.07,-0.004
3.071,0
3.072,0.0011
3.073,0.0044
3.074,0.0054
3.075,0.0118
3.076,0.0141
3.077,0.0163
3.078,0.0169
3.079,0.0112
3.08,0.0105
3.081,0.0015
3.082,0.0004
3.083,-0.0007
3.084,-0.0098
3.085,-0.0159
3.086,-0.0261
3.087,-0.0329
3.088,-0.0465
3.089,-0.052
3.09,-0.0503
3.091,-0.0459
3.092,-0.0554
3.093,-0.052
3.094,-0.0553
3.095,-0.0401
3.096,-0.06
3.097,-0.0787
3.098,-0.0811
3.099,-0.0921
3.1,-0.1142
3.101,-0.1409
3.102,-0.1303
3.103,-0.1078
3.104,-0.093
3.105,-0.0796
3.106,-0.0725
3.107,-0.0481
3.108,-0.0124
3.109,0.0592
3.11,0.1517
3.111,0.1793
3.112,0.1918
3.113,0.2029
3.114,0.1927
3.115,0.1833
3.116,0.141
3.117,0.118
3.118,0.0971
3.119,0.0782
3.12,0.061
3.121,0.0559
3.122,0.0511
3.123,0.064
3.124,0.0757
3.125,0.0791
3.126,0.0887
3.127,0.0916
3.128,0.089
3.129,0.0867
3.13,0.0667
3.131,0.0425
3.132,0.0132
3.133,0.0015
3.134,0.005
3.135,0.0081
3.136,0.0052
3.137,-0.0027
3.138,-0.0098
3.139,-0.0208
3.14,-0.0309
3.141,-0.0364
3.142,-0.0446
3.143,-0.0402
3.144,-0.0498
3.145,-0.0532
3.146,-0.0589
3.147,-0.056
3.148,-0.0569
3.149,-0.0576
3.15,-0.0598
3.151,-0.058
3.152,-0.0598
3.153,-0.0626
3.154,-0.0672
3.155,-0.0653
3.156,-0.0637
3.157,-0.0604
3.158,-0.0591
3.159,-0.0553
3.16,-0.052
3.161,-0.045
3.162,-0.039
3.163,-0.038
3.164,-0.0241
3.165,-0.0221
3.166,0.0054
3.167,0.0171
3.168,0.0065
3.169,-0.0097
3.17,-0.0067
3.171,-0.0146
3.172,-0.0122
3.173,-0.0144
3.174,-0.0205
3.175,-0.015
3.176,-0.01
3.177,-0.0086
3.178,-0.0073
3.179,-0.0038
3.18,-0.0027
3.181,-0.0018
3.182,0.001
3.183,0.0017
3.184,0.0039
3.185,0.0057
3.186,0.0076
3.187,0.007
3.188,0.0094
3.189,0.0125
3.19,0.0105
3.191,0.0123
3.192,0.0127
3.193,0.0119
3.194,0.0101
3.195,0.0094
3.196,0.0096
3.197,0.011
3.198,0.0092
3.199,0.0107
3.2,0.0118
3.201,0.0092
3.202,0.0088
3.203,0.0134
3.204,0.0088
3.205,0.0119
3.206,0.0081
3.207,0.0127
3.208,0.0096
3.209,0.0079
3.21,0.0046
3.211,0.0068
3.212,0.0041
3.213,0.0043
3.214,0.0061
3.215,0.0116
3.216,0.0169
3.217,0.0271
3.218,0.0376
3.219,0.0471
3.22,0.0336
3.221,0.0134
3.222,0.0055
3.223,-0.0065
3.224,-0.0131
3.225,-0.0152
3.226,-0.017
3.227,-0.0153
3.228,-0.0168
3.229,-0.0181
3.23,-0.0146
3.231,-0.0135
3.232,-0.0106
3.233,-0.0078
3.234,-0.0054
3.235,-0.0076
3.236,-0.0058
3.237,-0.0027
3.238,-0.0021
3.239,-0.0034
3.24,-0.0003
3.241,-0.0007
3.242,-0.0003
3.243,-0.0007
3.244,-0.0009
3.245,0.0022
3.246,0.0002
3.247,0.0037
3.248,0.0033
3.249,0.0006
3.25,0.0017
3.251,0.005
3.252,0.0054
3.253,0.0072
3.254,0.0017
3.255,0.007
3.256,0.0065
3.257,0.007
3.258,0.0054
3.259,0.0021
3.26,-0.0011
3.261,0.0017
3.262,0.0043
3.263,0.001
3.264,0.0013
3.265,0.0052
3.266,0.0127
3.267,0.0116
3.268,0.0207
3.269,0.0242
3.27,0.0299
3.271,0.0369
3.272,0.0378
3.273,0.0253
3.274,0.0088
3.275,-0.0065
3.276,-0.0166
3.277,-0.0221
3.278,-0.0205
3.279,-0.0249
3.28,-0.0208
3.281,-0.0243
3.282,-0.021
3.283,-0.0201
3.284,-0.0137
3.285,-0.0113
3.286,-0.0152
3.287,-0.0106
3.288,-0.0062
3.289,-0.0034
3.29,-0.0011
3.291,0.0011
3.292,-0.0034
3.293,-0.0065
3.294,-0.0049
3.295,-0.0062
3.296,0.0008
3.297,-0.0001
3.298,0.0008
3.299,0
3.3,0.007
3.301,0.0006
3.302,-0.0001
3.303,0.0052
3.304,0.0046
3.305,0.0052
3.306,0.0024
3.307,0.0011
3.308,0.0015
3.309,0.0004
3.31,0.0061
3.311,0.0054
3.312,0.0032
3.313,0.0026
3.314,0.007
3.315,0.005
3.316,0.0066
3.317,0.0033
3.318,0.0103
3.319,0.0195
3.32,0.0356
3.321,0.0378
3.322,0.0358
3.323,0.0156
3.324,0.0022
3.325,-0.0098
3.326,-0.0164
3.327,-0.0184
3.328,-0.0166
3.329,-0.0216
3.33,-0.0201
3.331,-0.0188
3.332,-0.0153
3.333,-0.0164
3.334,-0.0073
3.335,-0.0038
3.336,-0.0071
3.337,-0.0001
3.338,-0.0011
3.339,-0.0051
3.34,-0.0029
3.341,0.0017
3.342,0.0011
3.343,-0.0051
3.344,-0.0043
3.345,-0.0065
3.346,-0.0071
3.347,-0.0076
3.348,-0.0071
3.349,-0.0047
3.35,-0.0005
3.351,-0.0011
3.352,-0.0023
3.353,0.0046
3.354,0.0055
3.355,0.0065
3.356,0.0072
3.357,0.0033
3.358,-0.0012
3.359,0.0044
3.36,0.0022
3.361,0.0068
3.362,0.0074
3.363,0.0011
3.364,0.0035
3.365,0.0074
3.366,0.0043
3.367,0.0048
3.368,0.0143
3.369,0.0348
3.37,0.0436
3.371,0.0411
3.372,0.0191
3.373,0.0103
3.374,0.0024
3.375,-0.0097
3.376,-0.0119
3.377,-0.0139
3.378,-0.0157
3.379,-0.0173
3.38,-0.0159
3.381,-0.0146
3.382,-0.0135
3.383,-0.0102
3.384,-0.0053
3.385,-0.0098
3.386,-0.0091
3.387,-0.0069
3.388,-0.0064
3.389,-0.0045
3.39,-0.0007
3.391,-0.002
3.392,0.0002
3.393,0.0006
3.394,0.0017
3.395,0.0006
3.396,0.0013
3.397,-0.0029
3.398,0.0015
3.399,0.001
3.4,0.0022
3.401,0.001
3.402,0.0021
3.403,-0.0014
3.404,0.0037
3.405,0.0055
3.406,0.0061
3.407,0.0044
3.408,0.0021
3.409,0.0017
3.41,-0.0011
3.411,-0.0014
3.412,-0.0025
3.413,0.0021
3.414,0.0015
3.415,0.001
3.416,-0.0018
3.417,0.0013
3.418,0.0046
3.419,0.0024
3.42,0.0087
3.421,0.0207
3.422,0.0257
3.423,0.0392
3.424,0.0374
3.425,0.0224
3.426,0.0002
3.427,-0.0086
3.428,-0.0111
3.429,-0.0183
3.43,-0.0205
3.431,-0.0184
3.432,-0.0166
3.433,-0.015
3.434,-0.0164
3.435,-0.0152
3.436,-0.0162
3.437,-0.013
3.438,-0.0139
3.439,-0.0111
3.44,-0.0087
3.441,-0.0034
3.442,-0.0053
3.443,-0.0058
3.444,-0.0031
3.445,-0.0018
3.446,0.0004
3.447,0.0024
3.448,0.0028
3.449,0.001
3.45,0.0002
3.451,-0.0023
3.452,-0.0012
3.453,-0.0005
3.454,0.0037
3.455,0.0068
3.456,0.0052
3.457,0.0048
3.458,0.0079
3.459,0.0052
3.46,0.0017
3.461,0.0021
3.462,0.001
3.463,0.0006
3.464,-0.0012
3.465,-0.0011
3.466,-0.0003
3.467,0.0037
3.468,0.0035
3.469,0.0019
3.47,0.0094
3.471,0.0173
3.472,0.0264
3.473,0.0425
3.474,0.0447
3.475,0.0266
3.476,0.0098
3.477,-0.0012
3.478,-0.0073
3.479,-0.0164
3.48,-0.0181
3.481,-0.0166
3.482,-0.0206
3.483,-0.0217
3.484,-0.0184
3.485,-0.0175
3.486,-0.013
3.487,-0.0122
3.488,-0.01
3.489,-0.0106
3.49,-0.0124
3.491,-0.0073
3.492,-0.0119
3.493,-0.01
3.494,-0.0027
3.495,-0.0036
3.496,0.0028
3.497,0.0035
3.498,0.0013
3.499,0.0008
3.5,0.0013
3.501,0.0008
3.502,0.0074
3.503,0.0065
3.504,0.0072
3.505,0.0033
3.506,0.0052
3.507,0.007
3.508,0.0054
3.509,-0.0012
3.51,0.0072
3.511,0.0061
3.512,0.0011
3.513,0.0021
3.514,0.0028
3.515,0.0066
3.516,0.0033
3.517,0.0028
3.518,0.0022
3.519,0.0006
3.52,0.0019
3.521,0.0088
3.522,0.0158
3.523,0.0242
3.524,0.0253
3.525,0.0282
3.526,0.031
3.527,0.0218
3.528,0.0134
3.529,0.001
3.53,-0.004
3.531,-0.0175
3.532,-0.023
3.533,-0.0247
3.534,-0.0232
3.535,-0.0245
3.536,-0.0234
3.537,-0.0201
3.538,-0.0172
3.539,-0.0217
3.54,-0.0161
3.541,-0.0108
3.542,-0.0089
3.543,-0.0084
3.544,-0.0056
3.545,-0.0043
3.546,-0.0065
3.547,-0.0038
3.548,-0.0027
3.549,0.0006
3.55,-0.0014
3.551,0.0011
3.552,0.0022
3.553,0.0068
3.554,0.005
3.555,0.0032
3.556,0.0059
3.557,0.0072
3.558,0.0021
3.559,0.0002
3.56,0.0033
3.561,0.0085
3.562,0.0039
3.563,0.0008
3.564,0.0024
3.565,0
3.566,0.007
3.567,0.0061
3.568,-0.0023
3.569,0.0033
3.57,0.0072
3.571,0.0063
3.572,0.0127
3.573,0.0184
3.574,0.0299
3.575,0.0449
3.576,0.0389
3.577,0.0187
3.578,0.0054
3.579,-0.0067
3.58,-0.0177
3.581,-0.0036
3.582,0.0019
3.583,-0.0064
3.584,-0.0108
3.585,-0.0148
3.586,-0.0159
3.587,-0.0126
3.588,-0.0135
3.589,-0.0162
3.59,-0.0122
3.591,-0.0115
3.592,-0.0097
3.593,-0.0078
3.594,-0.0095
3.595,-0.0108
3.596,-0.0056
3.597,-0.0089
3.598,-0.0058
3.599,0.0015
3.6,0.0024
3.601,0.0015
3.602,0.0008
3.603,0.0015
3.604,-0.0003
3.605,0.0054
3.606,0.0015
3.607,0.0021
3.608,0.0026
3.609,0.0032
3.61,0.0019
3.611,0.0015
3.612,0.0043
3.613,0.0032
3.614,0.0043
3.615,0.0028
3.616,0.0021
3.617,0.0013
3.618,-0.0001
3.619,-0.0007
3.62,-0.0025
3.621,0.0035
3.622,0.003
3.623,0.0063
3.624,0.0132
3.625,0.0284
3.626,0.0394
3.627,0.0374
3.628,0.0173
3.629,0.0039
3.63,-0.0082
3.631,-0.006
3.632,-0.0161
3.633,-0.0142
3.634,-0.0126
3.635,-0.017
3.636,-0.013
3.637,-0.0095
3.638,-0.0106
3.639,-0.0076
3.64,-0.0067
3.641,-0.0108
3.642,-0.01
3.643,-0.0067
3.644,-0.0062
3.645,-0.0135
3.646,-0.0086
3.647,-0.0095
3.648,-0.0038
3.649,-0.0016
3.65,-0.0011
3.651,-0.0029
3.652,0.001
3.653,0.0022
3.654,0.0083
3.655,0.0043
3.656,0.0021
3.657,0.0026
3.658,0.0021
3.659,0.0026
3.66,0.0039
3.661,-0.0003
3.662,0.0035
3.663,0.0068
3.664,0.0046
3.665,0.005
3.666,0.0085
3.667,0.0081
3.668,0.0054
3.669,0.011
3.67,0.0087
3.671,0.0079
3.672,0.0087
3.673,0.0105
3.674,0.0187
3.675,0.0198
3.676,0.0228
3.677,0.0367
3.678,0.0226
3.679,0.0171
3.68,0.0121
3.681,-0.0014
3.682,-0.0106
3.683,-0.0188
3.684,-0.0232
3.685,-0.0219
3.686,-0.0184
3.687,-0.0128
3.688,-0.0157
3.689,-0.0166
3.69,-0.0173
3.691,-0.012
3.692,-0.0139
3.693,-0.0133
3.694,-0.0128
3.695,-0.0131
3.696,-0.0135
3.697,-0.0089
3.698,-0.0045
3.699,-0.0051
3.7,-0.0038
3.701,-0.0007
3.702,-0.0003
3.703,0.0015
3.704,0.0011
3.705,0.0004
3.706,0.0011
3.707,0.0035
3.708,0.0037
3.709,0.0006
3.71,-0.004
3.711,0.0017
3.712,-0.0036
3.713,0.001
3.714,0.0004
3.715,0.0055
3.716,0.0037
3.717,0.0032
3.718,0.0015
3.719,0.0039
3.72,0.0017
3.721,-0.0021
3.722,-0.0034
3.723,-0.0001
3.724,0.005
3.725,0.0152
3.726,0.0257
3.727,0.0434
3.728,0.0363
3.729,0.0209
3.73,-0.0012
3.731,-0.0042
3.732,-0.012
3.733,-0.0097
3.734,-0.0119
3.735,-0.0139
3.736,-0.0157
3.737,-0.0108
3.738,-0.0152
3.739,-0.0111
3.74,-0.01
3.741,-0.0067
3.742,-0.0018
3.743,-0.0064
3.744,-0.0056
3.745,-0.0049
3.746,-0.0016
3.747,-0.0034
3.748,-0.0029
3.749,-0.0032
3.75,0.0037
3.751,0.0028
3.752,0.0019
3.753,0.0026
3.754,0.0065
3.755,0.007
3.756,0.0165
3.757,0.0206
3.758,0.0195
3.759,0.0184
3.76,0.0233
3.761,0.0279
3.762,0.0319
3.763,0.0326
3.764,0.0281
3.765,0.0224
3.766,0.0185
3.767,0.0096
3.768,0.0061
3.769,0.0004
3.77,-0.0108
3.771,-0.0243
3.772,-0.0371
3.773,-0.0487
3.774,-0.0565
3.775,-0.064
3.776,-0.0545
3.777,-0.0485
3.778,-0.0314
3.779,-0.0095
3.78,-0.0183
3.781,-0.0424
3.782,-0.0781
3.783,-0.0924
3.784,-0.1052
3.785,-0.1248
3.786,-0.1355
3.787,-0.1259
3.788,-0.1347
3.789,-0.1052
3.79,-0.1014
3.791,-0.0979
3.792,-0.0754
3.793,-0.0666
3.794,-0.0263
3.795,0.0603
3.796,0.1474
3.797,0.1811
3.798,0.1709
3.799,0.1802
3.8,0.155
3.801,0.1473
3.802,0.1403
3.803,0.096
3.804,0.0903
3.805,0.0748
3.806,0.089
3.807,0.1019
3.808,0.1293
3.809,0.1328
3.81,0.1297
3.811,0.1149
3.812,0.1123
3.813,0.1052
3.814,0.0764
3.815,0.0489
3.816,0.0312
3.817,0.0151
3.818,0.0121
3.819,0.0096
3.82,0.0072
3.821,0.005
3.822,-0.0051
3.823,-0.0216
3.824,-0.0282
3.825,-0.039
3.826,-0.0329
3.827,-0.0311
3.828,-0.0393
3.829,-0.0468
3.83,-0.0455
3.831,-0.049
3.832,-0.0342
3.833,-0.0282
3.834,-0.0446
3.835,-0.0556
3.836,-0.0737
3.837,-0.0858
3.838,-0.088
3.839,-0.09
3.84,-0.0919
3.841,-0.0869
3.842,-0.0825
3.843,-0.073
3.844,-0.0646
3.845,-0.0589
3.846,-0.054
3.847,-0.0494
3.848,-0.0402
3.849,-0.0368
3.85,-0.0265
3.851,-0.0252
3.852,-0.0263
3.853,-0.0139
3.854,-0.0155
3.855,-0.0111
3.856,-0.0016
3.857,-0.0027
3.858,-0.0038
3.859,-0.0029
3.86,0.0035
3.861,0.0092
3.862,0.0054
3.863,0.0035
3.864,0.0041
3.865,0.0092
3.866,0.0087
3.867,0.0092
3.868,0.0154
3.869,0.013
3.87,0.0092
3.871,0.0098
3.872,0.0141
3.873,0.0136
3.874,0.0149
3.875,0.0145
3.876,0.0145
3.877,0.0156
3.878,0.0213
3.879,0.0321
3.88,0.0486
3.881,0.0464
3.882,0.0282
3.883,0.0162
3.884,0.0052
3.885,0.0072
3.886,-0.002
3.887,-0.0003
3.888,-0.0108
3.889,-0.004
3.89,-0.0029
3.891,-0.004
3.892,-0.0049
3.893,-0.0021
3.894,-0.0045
3.895,-0.0067
3.896,-0.0021
3.897,0.0048
3.898,0.0057
3.899,0.0033
3.9,0.0011
3.901,0.0017
3.902,0.0022
3.903,0.0096
3.904,0.0066
3.905,0.0039
3.906,0.0015
3.907,0.0008
3.908,0.0054
3.909,0.0022
3.91,0.0017
3.911,0.003
3.912,0.0061
3.913,0.0033
3.914,0.0022
3.915,-0.0018
3.916,0.0048
3.917,0.0057
3.918,0.0017
3.919,-0.0021
3.92,0.0024
3.921,0.0019
3.922,-0.002
3.923,0.0046
3.924,0.0055
3.925,0.0063
3.926,0.0024
3.927,0.005
3.928,0.0017
3.929,0.0074
3.93,0.0112
3.931,0.0079
3.932,0.0174
3.933,0.038
3.934,0.0231
3.935,0.0098
3.936,-0.0023
3.937,-0.0045
3.938,-0.0106
3.939,-0.0124
3.94,-0.0173
3.941,-0.0188
3.942,-0.0148
3.943,-0.0137
3.944,-0.0148
3.945,-0.0119
3.946,-0.0164
3.947,-0.0157
3.948,-0.0087
3.949,-0.0003
3.95,-0.0014
3.951,-0.0023
3.952,-0.0014
3.953,0.0061
3.954,-0.0031
3.955,0.0004
3.956,-0.0007
3.957,0.0002
3.958,-0.0025
3.959,0.0015
3.96,-0.0023
3.961,-0.0018
3.962,0.0013
3.963,0.0041
3.964,-0.0005
3.965,-0.0011
3.966,0.0028
3.967,0.0032
3.968,0.0035
3.969,0.0046
3.97,0.0103
3.971,0.0011
3.972,0.0046
3.973,-0.0011
3.974,0.0019
3.975,0.0028
3.976,0.0035
3.977,0.0043
3.978,0.0043
3.979,-0.0003
3.98,0.0092
3.981,0.0187
3.982,0.0372
3.983,0.0347
3.984,0.0226
3.985,0.0072
3.986,-0.0029
3.987,-0.012
3.988,-0.0137
3.989,-0.0093
3.99,-0.0106
3.991,-0.0095
3.992,-0.0152
3.993,-0.0122
3.994,-0.0168
3.995,-0.0111
3.996,-0.0089
3.997,-0.0071
3.998,-0.0053
3.999,-0.0036
4,-0.0069
4.001,-0.0073
4.002,-0.0027
4.003,-0.0032
4.004,-0.0016
4.005,0.0017
4.006,0.0039
4.007,0.0059
4.008,0.0017
4.009,-0.0021
4.01,-0.0025
4.011,-0.0047
4.012,-0.002
4.013,-0.0038
4.014,0.0017
4.015,0.0024
4.016,-0.0009
4.017,0.0035
4.018,0.0008
4.019,-0.0005
4.02,0.0026
4.021,0.0006
4.022,0.0032
4.023,-0.0001
4.024,0.0002
4.025,0.0059
4.026,0.0052
4.027,-0.0001
4.028,0.0004
4.029,-0.0023
4.03,-0.0029
4.031,0.0055
4.032,0.009
4.033,0.026
4.034,0.0381
4.035,0.0359
4.036,0.0178
4.037,0.001
4.038,-0.0056
4.039,-0.0036
4.04,-0.0054
4.041,-0.0005
4.042,-0.0141
4.043,-0.0122
4.044,-0.0139
4.045,-0.0183
4.046,-0.0115
4.047,-0.0104
4.048,-0.0093
4.049,-0.0064
4.05,0
4.051,-0.0007
4.052,-0.0029
4.053,-0.0011
4.054,-0.0029
4.055,-0.0012
4.056,-0.0025
4.057,0.0017
4.058,0
4.059,0.0024
4.06,0.0037
4.061,0.001
4.062,0.0052
4.063,-0.0032
4.064,0.0028
4.065,0.0061
4.066,0.0011
4.067,0.0039
4.068,0.0015
4.069,-0.0023
4.07,0.0022
4.071,0.0079
4.072,0.0101
4.073,0.0134
4.074,0.0129
4.075,0.0044
4.076,-0.0016
4.077,-0.0005
4.078,0.0004
4.079,-0.006
4.08,0.0006
4.081,-0.0001
4.082,0.0114
4.083,0.013
4.084,0.0326
4.085,0.0405
4.086,0.0381
4.087,0.0228
4.088,0.0006
4.089,-0.0082
4.09,-0.0161
4.091,-0.0184
4.092,-0.0119
4.093,-0.0179
4.094,-0.0124
4.095,-0.0206
4.096,-0.0221
4.097,-0.0153
4.098,-0.0164
4.099,-0.0108
4.1,-0.0038
4.101,-0.0029
4.102,0.0063
4.103,0.0028
4.104,-0.0005
4.105,-0.0097
4.106,-0.0036
4.107,-0.0003
4.108,0.0046
4.109,0.0037
4.11,0.0061
4.111,-0.0009
4.112,-0.0018
4.113,0.0006
4.114,0.0028
4.115,0.0046
4.116,0.0041
4.117,0.0024
4.118,0.0021
4.119,0.0008
4.12,-0.0003
4.121,0.0039
4.122,0.0077
4.123,0.0002
4.124,0.0013
4.125,0.0043
4.126,0.0033
4.127,0.0057
4.128,-0.0043
4.129,0.0024
4.13,-0.0036
4.131,-0.0031
4.132,0.0026
4.133,0.0055
4.134,0.0101
4.135,0.0226
4.136,0.039
4.137,0.0456
4.138,0.0396
4.139,0.0158
4.14,-0.0067
4.141,-0.0155
4.142,-0.0181
4.143,-0.0157
4.144,-0.0179
4.145,-0.0159
4.146,-0.0214
4.147,-0.0197
4.148,-0.0183
4.149,-0.0115
4.15,-0.0104
4.151,-0.0115
4.152,-0.0124
4.153,-0.0097
4.154,-0.0104
4.155,-0.0065
4.156,-0.002
4.157,-0.0001
4.158,0.0004
4.159,-0.002
4.16,-0.0032
4.161,-0.0021
4.162,0.0035
4.163,0.0092
4.164,0.0099
4.165,0.0081
4.166,-0.0014
4.167,-0.0001
4.168,0.0059
4.169,0.0002
4.17,-0.0027
4.171,0.0057
4.172,0.0046
4.173,0.0017
4.174,0.0044
4.175,0.0068
4.176,0.003
4.177,-0.0016
4.178,0.0015
4.179,-0.0058
4.18,-0.0029
4.181,-0.0001
4.182,0.005
4.183,0.0026
4.184,0.0096
4.185,0.0123
4.186,0.018
4.187,0.0295
4.188,0.0478
4.189,0.0259
4.19,0.0171
4.191,-0.0071
4.192,-0.0166
4.193,-0.0137
4.194,-0.0162
4.195,-0.0234
4.196,-0.0168
4.197,-0.0148
4.198,-0.0203
4.199,-0.012
4.2,-0.0106
4.201,-0.0119
4.202,-0.013
4.203,-0.0141
4.204,-0.0111
4.205,-0.0027
4.206,0.0006
4.207,-0.0043
4.208,-0.0034
4.209,0.0041
4.21,0.0011
4.211,0.0002
4.212,0.0059
4.213,-0.0042
4.214,-0.0029
4.215,0.0006
4.216,0.0085
4.217,0.0094
4.218,0.003
4.219,0.0006
4.22,0.0028
4.221,0.0074
4.222,0.0004
4.223,-0.008
4.224,-0.0047
4.225,0.0002
4.226,0.0011
4.227,0.0019
4.228,0.0134
4.229,0.0052
4.23,-0.0023
4.231,-0.0011
4.232,0.0024
4.233,0.0079
4.234,0.0022
4.235,0.0154
4.236,0.0136
4.237,0.0286
4.238,0.0226
4.239,0.0207
4.24,0.0057
4.241,-0.0003
4.242,-0.0021
4.243,-0.0071
4.244,-0.0175
4.245,-0.0162
4.246,-0.0173
4.247,-0.0117
4.248,-0.0126
4.249,-0.0172
4.25,-0.0131
4.251,-0.0078
4.252,-0.006
4.253,-0.0016
4.254,-0.01
4.255,-0.0089
4.256,-0.0056
4.257,-0.0047
4.258,-0.002
4.259,0.0072
4.26,0.0011
4.261,0
4.262,-0.0049
4.263,-0.0003
4.264,0.0021
4.265,0.0059
4.266,-0.0043
4.267,0.0061
4.268,0.0074
4.269,0.0063
4.27,-0.0016
4.271,-0.0007
4.272,0.0002
4.273,0.0043
4.274,-0.0011
4.275,-0.0005
4.276,-0.0023
4.277,0.0015
4.278,0.0061
4.279,-0.0009
4.28,0
4.281,0.0057
4.282,0.0079
4.283,0.0061
4.284,0.0065
4.285,0.0008
4.286,0.0123
4.287,0.0273
4.288,0.0455
4.289,0.0334
4.29,0.018
4.291,-0.0001
4.292,-0.0025
4.293,-0.0047
4.294,-0.0108
4.295,-0.0162
4.296,-0.0179
4.297,-0.0164
4.298,-0.0152
4.299,-0.0141
4.3,-0.0084
4.301,-0.0153
4.302,-0.0162
4.303,-0.0106
4.304,-0.0021
4.305,-0.0054
4.306,-0.0025
4.307,-0.0053
4.308,0.0022
4.309,0.0072
4.31,0.0008
4.311,-0.0032
4.312,-0.0025
4.313,0.0021
4.314,0.0015
4.315,-0.0023
4.316,0.001
4.317,-0.0012
4.318,0.0033
4.319,0.0129
4.32,0.0224
4.321,0.0063
4.322,-0.0047
4.323,-0.0027
4.324,-0.0082
4.325,-0.0098
4.326,-0.0023
4.327,-0.0036
4.328,-0.0001
4.329,0.001
4.33,-0.006
4.331,-0.0032
4.332,-0.0025
4.333,0.0028
4.334,0.0033
4.335,0.0035
4.336,0.0041
4.337,0.0125
4.338,0.026
4.339,0.0352
4.34,0.0369
4.341,0.0233
4.342,0.0068
4.343,0.0046
4.344,0.0026
4.345,-0.0029
4.346,-0.0045
4.347,-0.0001
4.348,-0.0042
4.349,-0.0076
4.35,-0.0087
4.351,-0.0058
4.352,-0.0031
4.353,-0.0007
4.354,-0.0045
4.355,-0.0078
4.356,-0.0097
4.357,-0.0091
4.358,-0.0087
4.359,-0.0084
4.36,-0.0056
4.361,-0.0067
4.362,-0.0034
4.363,-0.0023
4.364,-0.0034
4.365,-0.0016
4.366,-0.0062
4.367,0.0013
4.368,-0.0016
4.369,-0.0025
4.37,-0.01
4.371,-0.0009
4.372,-0.002
4.373,-0.0031
4.374,-0.0001
4.375,0.0083
4.376,0.0004
4.377,0.0013
4.378,0.0041
4.379,0.0033
4.38,0.0055
4.381,0.001
4.382,-0.0021
4.383,0.0041
4.384,-0.0016
4.385,0.0006
4.386,0.0043
4.387,-0.0003
4.388,0.0092
4.389,0.0132
4.39,0.0167
4.391,0.0337
4.392,0.0409
4.393,0.0209
4.394,0.0184
4.395,0.0015
4.396,-0.0184
4.397,-0.0159
4.398,-0.0135
4.399,-0.0201
4.4,-0.0141
4.401,-0.0122
4.402,-0.0172
4.403,-0.0128
4.404,-0.0115
4.405,-0.0104
4.406,-0.0115
4.407,-0.0045
4.408,-0.0073
4.409,-0.0097
4.41,-0.0075
4.411,-0.0069
4.412,-0.0025
4.413,-0.0042
4.414,-0.0029
4.415,0.0013
4.416,-0.0014
4.417,0.0019
4.418,-0.0051
4.419,-0.0001
4.42,0.0044
4.421,0.0021
4.422,0.0074
4.423,0.0041
4.424,-0.0003
4.425,0.0013
4.426,0.0017
4.427,0.0087
4.428,0.0077
4.429,0.0087
4.43,0.0094
4.431,0.0178
4.432,0.0167
4.433,0.0279
4.434,0.0354
4.435,0.0286
4.436,0.0321
4.437,0.0306
4.438,0.0249
4.439,0.022
4.44,0.0359
4.441,0.042
4.442,0.0438
4.443,0.0288
4.444,-0.0014
4.445,-0.023
4.446,-0.0347
4.447,-0.0525
4.448,-0.0686
4.449,-0.0834
4.45,-0.0701
4.451,-0.058
4.452,-0.047
4.453,-0.0531
4.454,-0.0585
4.455,-0.0802
4.456,-0.0831
4.457,-0.0856
4.458,-0.1076
4.459,-0.1344
4.46,-0.1309
4.461,-0.134
4.462,-0.1428
4.463,-0.1294
4.464,-0.127
4.465,-0.1071
4.466,-0.0776
4.467,-0.0263
4.468,0.0788
4.469,0.154
4.47,0.1949
4.471,0.1824
4.472,0.1713
4.473,0.1405
4.474,0.1125
4.475,0.1041
4.476,0.081
4.477,0.074
4.478,0.0802
4.479,0.0975
4.48,0.113
4.481,0.1368
4.482,0.167
4.483,0.1632
4.484,0.1526
4.485,0.1495
4.486,0.1465
4.487,0.1171
4.488,0.0885
4.489,0.061
4.49,0.0433
4.491,0.0271
4.492,0.0478
4.493,0.0453
4.494,0.0284
4.495,0.0041
4.496,-0.0184
4.497,-0.0333
4.498,-0.0466
4.499,-0.0587
4.5,-0.0565
4.501,-0.0626
4.502,-0.0717
4.503,-0.0668
4.504,-0.0712
4.505,-0.0725
4.506,-0.0736
4.507,-0.0814
4.508,-0.0765
4.509,-0.0829
4.51,-0.0822
4.511,-0.0814
4.512,-0.0877
4.513,-0.082
4.514,-0.0736
4.515,-0.0725
4.516,-0.0695
4.517,-0.0611
4.518,-0.06
4.519,-0.0468
4.52,-0.0377
4.521,-0.036
4.522,-0.0316
4.523,-0.0276
4.524,-0.0265
4.525,-0.0232
4.526,-0.0223
4.527,-0.0195
4.528,-0.0071
4.529,-0.0053
4.53,-0.0003
4.531,0.0041
4.532,0
4.533,0.0035
4.534,0.0068
4.535,0.0019
4.536,0.0083
4.537,0.0123
4.538,0.0101
4.539,0.0101
4.54,0.0119
4.541,0.0215
4.542,0.0255
4.543,0.0367
4.544,0.0531
4.545,0.0553
4.546,0.0332
4.547,0.0065
4.548,0.003
4.549,-0.0065
4.55,-0.0036
4.551,-0.0011
4.552,-0.0034
4.553,-0.01
4.554,-0.004
4.555,-0.0058
4.556,-0.0042
4.557,-0.0056
4.558,-0.0043
4.559,-0.0054
4.56,0.0094
4.561,-0.0007
4.562,0.0011
4.563,0.0028
4.564,0.0193
4.565,0.0215
4.566,0.0195
4.567,0.0066
4.568,0.0017
4.569,0.0032
4.57,0.0099
4.571,0.0039
4.572,0.0006
4.573,0.0015
4.574,0.0006
4.575,0.0063
4.576,0.0041
4.577,0.0022
4.578,-0.0009
4.579,0.0065
4.58,0.0035
4.581,0.0044
4.582,0.0021
4.583,-0.0001
4.584,0.0017
4.585,0.0035
4.586,0.003
4.587,-0.0003
4.588,0.0066
4.589,0.0017
4.59,0.0065
4.591,0
4.592,0.0125
4.593,0.0217
4.594,0.0266
4.595,0.031
4.596,0.0405
4.597,0.0244
4.598,0.0134
4.599,-0.0007
4.6,-0.0062
4.601,-0.0111
4.602,-0.0186
4.603,-0.0199
4.604,-0.0188
4.605,-0.0199
4.606,-0.015
4.607,-0.0104
4.608,-0.0047
4.609,-0.0086
4.61,-0.0053
4.611,0.0043
4.612,-0.0025
4.613,-0.006
4.614,-0.0049
4.615,-0.004
4.616,-0.0067
4.617,-0.0075
4.618,0.001
4.619,0.0043
4.62,0.0033
4.621,0.0043
4.622,0.0002
4.623,0.0041
4.624,0.0008
4.625,-0.0023
4.626,0.0015
4.627,0.0002
4.628,-0.0011
4.629,0.0028
4.63,0.0024
4.631,-0.0018
4.632,0.0033
4.633,0.0066
4.634,0.0061
4.635,0.0022
4.636,-0.0032
4.637,-0.0025
4.638,-0.002
4.639,0.0024
4.64,0.003
4.641,0.0189
4.642,0.0114
4.643,0.0171
4.644,0.02
4.645,0.0339
4.646,0.0359
4.647,0.0195
4.648,0.0085
4.649,-0.0016
4.65,-0.0071
4.651,-0.012
4.652,-0.0106
4.653,-0.0146
4.654,-0.0157
4.655,-0.0146
4.656,-0.0117
4.657,-0.0162
4.658,-0.0106
4.659,-0.0098
4.66,-0.008
4.661,-0.0049
4.662,-0.01
4.663,-0.0095
4.664,-0.0051
4.665,0.0011
4.666,-0.0029
4.667,0.001
4.668,0.0028
4.669,-0.0003
4.67,0.0002
4.671,-0.0021
4.672,0.003
4.673,0.0035
4.674,0.0041
4.675,-0.0021
4.676,-0.0029
4.677,0.001
4.678,0.0015
4.679,0.0021
4.68,-0.0007
4.681,-0.0011
4.682,0.0021
4.683,-0.0042
4.684,0.0043
4.685,0.001
4.686,0.0019
4.687,0.0028
4.688,0.0021
4.689,-0.0032
4.69,-0.0027
4.691,-0.0032
4.692,-0.0023
4.693,-0.0018
4.694,0.0057
4.695,0.0182
4.696,0.0264
4.697,0.0189
4.698,0.0202
4.699,0.009
4.7,0.0315
4.701,0.0347
4.702,0.0198
4.703,0.0065
4.704,-0.0056
4.705,-0.0166
4.706,-0.0186
4.707,-0.0205
4.708,-0.0254
4.709,-0.0239
4.71,-0.0227
4.711,-0.0261
4.712,-0.0183
4.713,-0.0173
4.714,-0.0128
4.715,-0.0087
4.716,-0.008
4.717,-0.0062
4.718,-0.008
4.719,-0.0053
4.72,-0.004
4.721,-0.0009
4.722,-0.0005
4.723,0.0013
4.724,0.0061
4.725,0.0055
4.726,0.0072
4.727,0.0048
4.728,0.0044
4.729,0.0041
4.73,0.0015
4.731,0.007
4.732,0.0063
4.733,0.0057
4.734,0.0052
4.735,0.0068
4.736,0.0035
4.737,0.0039
4.738,0.0043
4.739,0.0008
4.74,0.0011
4.741,0.0015
4.742,0.005
4.743,0.0043
4.744,0.0085
4.745,0.0169
4.746,0.018
4.747,0.035
4.748,0.0422
4.749,0.0222
4.75,0.0143
4.751,0.0022
4.752,-0.0131
4.753,-0.0111
4.754,-0.0166
4.755,-0.0183
4.756,-0.0139
4.757,-0.0179
4.758,-0.0119
4.759,-0.0108
4.76,-0.0078
4.761,-0.0106
4.762,-0.0113
4.763,-0.0106
4.764,-0.0073
4.765,-0.0091
4.766,-0.0064
4.767,-0.006
4.768,-0.0056
4.769,-0.0029
4.77,0.0028
4.771,0.0004
4.772,0.0011
4.773,-0.0007
4.774,0.0024
4.775,0.0041
4.776,0.0017
4.777,0.0021
4.778,0
4.779,0.0019
4.78,0.0008
4.781,0.0015
4.782,0.0013
4.783,0.0043
4.784,0.0017
4.785,0.0021
4.786,0.0022
4.787,-0.002
4.788,0.0011
4.789,0.0017
4.79,-0.0016
4.791,-0.0012
4.792,0.0008
4.793,0.0043
4.794,0.0013
4.795,-0.0009
4.796,0.0054
4.797,0.0138
4.798,0.0308
4.799,0.0429
4.8,0.0363
4.801,0.0182
4.802,0.0013
4.803,-0.0053
4.804,-0.0113
4.805,-0.0131
4.806,-0.0148
4.807,-0.0162
4.808,-0.015
4.809,-0.0065
4.81,-0.0032
4.811,-0.0003
4.812,-0.0031
4.813,-0.0087
4.814,-0.0095
4.815,-0.0141
4.816,-0.0097
4.817,-0.0069
4.818,-0.0082
4.819,-0.0078
4.82,-0.0075
4.821,-0.0049
4.822,-0.0001
4.823,-0.0007
4.824,0.001
4.825,-0.0014
4.826,-0.0001
4.827,-0.0012
4.828,0.0006
4.829,0.0032
4.83,-0.0014
4.831,-0.0047
4.832,0.0022
4.833,0.005
4.834,0.001
4.835,-0.0012
4.836,0.0063
4.837,0.0072
4.838,0.0026
4.839,0.005
4.84,0.0057
4.841,0.0076
4.842,0.0019
4.843,0.0011
4.844,0.003
4.845,0.0021
4.846,0.0002
4.847,0.0087
4.848,0.0171
4.849,0.0341
4.85,0.0412
4.851,0.0347
4.852,0.0206
4.853,0.0077
4.854,-0.0038
4.855,-0.0082
4.856,-0.015
4.857,-0.0184
4.858,-0.0195
4.859,-0.0186
4.86,-0.0177
4.861,-0.0153
4.862,-0.0146
4.863,-0.0152
4.864,-0.0056
4.865,-0.0069
4.866,-0.0034
4.867,-0.0067
4.868,0.0002
4.869,-0.0062
4.87,-0.0038
4.871,-0.0031
4.872,0.0032
4.873,0.0039
4.874,0.0032
4.875,-0.0014
4.876,-0.002
4.877,0.0008
4.878,-0.0016
4.879,-0.0012
4.88,0.0026
4.881,0.003
4.882,0.0052
4.883,0.0024
4.884,0.0028
4.885,0.0039
4.886,0.0072
4.887,0.0059
4.888,0.0013
4.889,0.0032
4.89,-0.0007
4.891,-0.002
4.892,-0.0016
4.893,0.0004
4.894,-0.0014
4.895,0.0026
4.896,-0.0016
4.897,0.0008
4.898,0.0077
4.899,0.0189
4.9,0.0233
4.901,0.0356
4.902,0.0306
4.903,0.0202
4.904,0.0162
4.905,-0.0023
4.906,-0.0102
4.907,-0.0126
4.908,-0.0192
4.909,-0.0172
4.91,-0.019
4.911,-0.0173
4.912,-0.013
4.913,-0.0225
4.914,-0.0141
4.915,-0.0108
4.916,-0.0098
4.917,-0.0126
4.918,-0.0069
4.919,-0.0062
4.92,-0.0043
4.921,-0.0025
4.922,-0.0042
4.923,-0.0029
4.924,-0.0007
4.925,-0.0011
4.926,0.0039
4.927,0.0021
4.928,0.0052
4.929,0.0046
4.93,0.0022
4.931,0.0065
4.932,0.0026
4.933,-0.002
4.934,-0.0051
4.935,-0.0012
4.936,0.0021
4.937,0.0063
4.938,0.0101
4.939,0.0026
4.94,-0.0053
4.941,-0.0003
4.942,0.0006
4.943,0.003
4.944,-0.0009
4.945,0.001
4.946,0.0041
4.947,0.0021
4.948,-0.0018
4.949,0.0057
4.95,0.0068
4.951,0.022
4.952,0.0374
4.953,0.0273
4.954,0.0182
4.955,0.0099
4.956,-0.0097
4.957,-0.0175
4.958,-0.0152
4.959,-0.013
4.96,-0.0109
4.961,-0.0128
4.962,-0.0144
4.963,-0.0159
4.964,-0.0091
4.965,-0.0152
4.966,-0.0119
4.967,-0.0128
4.968,-0.01
4.969,-0.006
4.97,-0.0007
4.971,-0.0012
4.972,-0.0018
4.973,-0.0012
4.974,0.0021
4.975,0.0024
4.976,0.0028
4.977,0.0063
4.978,0.0076
4.979,0.003
4.98,0.0011
4.981,0.0006
4.982,0.001
4.983,-0.0042
4.984,-0.0047
4.985,-0.0042
4.986,-0.0058
4.987,-0.0034
4.988,-0.0012
4.989,0.0015
4.99,0.0019
4.991,0.003
4.992,0.005
4.993,0.0032
4.994,0.0013
4.995,0.0035
4.996,0.0037
4.997,0.003
4.998,-0.0038
4.999,-0.0003
5,0.0072
5.001,0.0129
5.002,0.0281
5.003,0.048
5.004,0.0293
5.005,0.0125
5.006,0.0059
5.007,-0.0001
5.008,-0.002
5.009,-0.0069
5.01,-0.0113
5.011,-0.0073
5.012,-0.0084
5.013,-0.0027
5.014,-0.0076
5.015,-0.0104
5.016,-0.0097
5.017,-0.0075
5.018,-0.0093
5.019,-0.0062
5.02,-0.0078
5.021,-0.0045
5.022,-0.0042
5.023,-0.0031
5.024,-0.0056
5.025,-0.0075
5.026,-0.0029
5.027,-0.0034
5.028,-0.0029
5.029,-0.0056
5.03,-0.0043
5.031,-0.0021
5.032,-0.0042
5.033,0
5.034,-0.0051
5.035,-0.0005
5.036,0.009
5.037,0.005
5.038,0.0039
5.039,0.0006
5.04,-0.0003
5.041,0.0043
5.042,0.0019
5.043,-0.002
5.044,-0.0014
5.045,0.0017
5.046,0.0033
5.047,-0.0012
5.048,-0.0007
5.049,-0.0001
5.05,0.0026
5.051,0.0002
5.052,0.0024
5.053,0.0004
5.054,0.003
5.055,0.0085
5.056,0.0169
5.057,0.0136
5.058,0.0066
5.059,0.0112
5.06,0.0152
5.061,0.0268
5.062,0.0251
5.063,0.0147
5.064,0.0079
5.065,-0.0056
5.066,-0.0148
5.067,-0.0131
5.068,-0.0146
5.069,-0.0159
5.07,-0.0148
5.071,-0.0159
5.072,-0.015
5.073,-0.0177
5.074,-0.0137
5.075,-0.0159
5.076,-0.0113
5.077,-0.0082
5.078,-0.0054
5.079,-0.0078
5.08,-0.0075
5.081,-0.0036
5.082,-0.0012
5.083,-0.0034
5.084,-0.0007
5.085,-0.0003
5.086,0
5.087,-0.0001
5.088,0.003
5.089,0.0002
5.09,-0.0009
5.091,0.0046
5.092,0.0054
5.093,0.0087
5.094,0.0105
5.095,0.0143
5.096,0.0176
5.097,0.0237
5.098,0.0293
5.099,0.0301
5.1,0.0299
5.101,0.0304
5.102,0.031
5.103,0.0394
5.104,0.0579
5.105,0.05
5.106,0.0281
5.107,0.0074
5.108,-0.0168
5.109,-0.0263
5.11,-0.0412
5.111,-0.0545
5.112,-0.0666
5.113,-0.0688
5.114,-0.0628
5.115,-0.0573
5.116,-0.0556
5.117,-0.0421
5.118,-0.0476
5.119,-0.0659
5.12,-0.078
5.121,-0.0845
5.122,-0.0946
5.123,-0.1221
5.124,-0.1338
5.125,-0.1303
5.126,-0.1208
5.127,-0.1179
5.128,-0.11
5.129,-0.0979
5.13,-0.0648
5.131,-0.0027
5.132,0.1244
5.133,0.1789
5.134,0.1954
5.135,0.1804
5.136,0.1669
5.137,0.1295
5.138,0.0958
5.139,0.0651
5.14,0.0557
5.141,0.0304
5.142,0.0535
5.143,0.0744
5.144,0.0932
5.145,0.1105
5.146,0.1471
5.147,0.1423
5.148,0.1381
5.149,0.142
5.15,0.1454
5.151,0.1266
5.152,0.0909
5.153,0.0766
5.154,0.0638
5.155,0.0755
5.156,0.0649
5.157,0.0423
5.158,0.0217
5.159,0.003
5.16,-0.0139
5.161,-0.0338
5.162,-0.0472
5.163,-0.0543
5.164,-0.0521
5.165,-0.0622
5.166,-0.064
5.167,-0.0624
5.168,-0.058
5.169,-0.054
5.17,-0.0574
5.171,-0.0699
5.172,-0.0748
5.173,-0.0792
5.174,-0.0725
5.175,-0.0736
5.176,-0.0769
5.177,-0.0759
5.178,-0.075
5.179,-0.0693
5.18,-0.0672
5.181,-0.0582
5.182,-0.0521
5.183,-0.0532
5.184,-0.0441
5.185,-0.0406
5.186,-0.0327
5.187,-0.0298
5.188,-0.0271
5.189,-0.023
5.19,-0.0161
5.191,-0.0133
5.192,-0.0076
5.193,-0.0023
5.194,-0.0018
5.195,-0.0036
5.196,-0.0042
5.197,-0.0009
5.198,0.0033
5.199,0.005
5.2,0.0063
5.201,0.0066
5.202,0.0079
5.203,0.0099
5.204,0.0103
5.205,0.0158
5.206,0.0273
5.207,0.0356
5.208,0.037
5.209,0.0358
5.21,0.0369
5.211,0.0244
5.212,0.0394
5.213,0.0414
5.214,0.0249
5.215,0.0096
5.216,-0.0086
5.217,-0.0157
5.218,-0.0179
5.219,-0.0199
5.22,-0.0181
5.221,-0.0197
5.222,-0.0153
5.223,-0.0141
5.224,-0.008
5.225,-0.0091
5.226,-0.0141
5.227,-0.0038
5.228,-0.0051
5.229,-0.0016
5.23,0.0017
5.231,0.0026
5.232,0.0054
5.233,0.0013
5.234,0.0035
5.235,0.003
5.236,0.0048
5.237,0.0054
5.238,0.0087
5.239,0.009
5.24,0.0118
5.241,0.0068
5.242,0.0074
5.243,0.0079
5.244,0.0085
5.245,0.0061
5.246,0.0083
5.247,0.0087
5.248,0.0112
5.249,0.0065
5.25,0.007
5.251,0.0054
5.252,0.0066
5.253,0.0035
5.254,0.0057
5.255,0.0119
5.256,0.0184
5.257,0.0275
5.258,0.0387
5.259,0.0462
5.26,0.0257
5.261,0.0109
5.262,0.003
5.263,-0.0091
5.264,-0.0157
5.265,-0.0177
5.266,-0.0159
5.267,-0.0142
5.268,-0.0157
5.269,-0.0144
5.27,-0.0155
5.271,-0.0122
5.272,-0.0131
5.273,-0.0104
5.274,-0.0111
5.275,-0.0073
5.276,-0.0054
5.277,0.0002
5.278,-0.0036
5.279,0.001
5.28,-0.0021
5.281,-0.0027
5.282,0.0006
5.283,0.0076
5.284,0.0085
5.285,0.0039
5.286,0.0079
5.287,0.0026
5.288,0.0021
5.289,-0.0011
5.29,0.0006
5.291,0.0039
5.292,0.0017
5.293,-0.0011
5.294,0.0008
5.295,-0.0003
5.296,0.0043
5.297,0.0024
5.298,0.0019
5.299,0.0013
5.3,0.001
5.301,0.0079
5.302,0.0211
5.303,0.0119
5.304,0.0087
5.305,0.0037
5.306,-0.0007
5.307,-0.002
5.308,0.0015
5.309,0.014
5.31,0.0255
5.311,0.024
5.312,0.02
5.313,0.0088
5.314,-0.0016
5.315,-0.0111
5.316,-0.0122
5.317,-0.0155
5.318,-0.0205
5.319,-0.0195
5.32,-0.0172
5.321,-0.0164
5.322,-0.0183
5.323,-0.0139
5.324,-0.0065
5.325,-0.0075
5.326,-0.0102
5.327,-0.0126
5.328,-0.0073
5.329,-0.0054
5.33,-0.006
5.331,-0.0021
5.332,-0.0009
5.333,-0.0012
5.334,0.0033
5.335,0.0039
5.336,-0.0034
5.337,0.0015
5.338,0.0043
5.339,0.0035
5.34,0.0028
5.341,0.001
5.342,0.0015
5.343,-0.0012
5.344,-0.0009
5.345,-0.0005
5.346,0.0015
5.347,0.0041
5.348,0.003
5.349,0.0015
5.35,0.0041
5.351,0.0015
5.352,0.0061
5.353,0.0028
5.354,0.0046
5.355,0.0006
5.356,0.0022
5.357,0.0035
5.358,0.0105
5.359,0.0217
5.36,0.0231
5.361,0.0244
5.362,0.0279
5.363,0.029
5.364,0.0198
5.365,0.0163
5.366,0.022
5.367,0.0129
5.368,0.0068
5.369,-0.0011
5.37,-0.0162
5.371,-0.0228
5.372,-0.0289
5.373,-0.0307
5.374,-0.0357
5.375,-0.0371
5.376,-0.0303
5.377,-0.0219
5.378,-0.0208
5.379,-0.0179
5.38,-0.0133
5.381,-0.0126
5.382,-0.0056
5.383,-0.0029
5.384,-0.0005
5.385,-0.0027
5.386,-0.0009
5.387,0.0022
5.388,0.0028
5.389,0.0052
5.39,0.0065
5.391,0.001
5.392,0.0032
5.393,0.005
5.394,0.0055
5.395,0.0017
5.396,0.0072
5.397,0.005
5.398,0.0083
5.399,0.0088
5.4,0.0105
5.401,0.0092
5.402,0.0061
5.403,0.0041
5.404,0.0066
5.405,0.0055
5.406,0.0035
5.407,0.0037
5.408,0.0079
5.409,0.0174
5.41,0.038
5.411,0.0409
5.412,0.0275
5.413,0.0204
5.414,0.005
5.415,-0.0011
5.416,-0.0065
5.417,-0.0148
5.418,-0.0162
5.419,-0.0175
5.42,-0.0164
5.421,-0.0086
5.422,-0.0135
5.423,-0.0108
5.424,-0.0084
5.425,-0.0091
5.426,-0.0073
5.427,-0.0091
5.428,-0.0053
5.429,-0.0049
5.43,-0.0036
5.431,-0.0047
5.432,0.001
5.433,0.0033
5.434,-0.0036
5.435,-0.0009
5.436,0.0015
5.437,-0.0007
5.438,-0.0025
5.439,-0.0007
5.44,0.0021
5.441,0.0008
5.442,0.0068
5.443,0.0044
5.444,0.0037
5.445,0.0032
5.446,0
5.447,-0.0005
5.448,0.0008
5.449,-0.0005
5.45,-0.0001
5.451,0.001
5.452,0.0043
5.453,0.007
5.454,0.0081
5.455,0.0033
5.456,-0.0023
5.457,0.0021
5.458,0.0028
5.459,0.013
5.46,0.0055
5.461,0.026
5.462,0.0409
5.463,0.0222
5.464,0.0101
5.465,-0.0009
5.466,-0.0109
5.467,-0.0201
5.468,-0.0184
5.469,-0.017
5.47,-0.021
5.471,-0.0175
5.472,-0.0164
5.473,-0.0135
5.474,-0.0126
5.475,-0.0086
5.476,-0.0078
5.477,-0.006
5.478,-0.0029
5.479,-0.0067
5.48,-0.0034
5.481,-0.0031
5.482,-0.002
5.483,0.0022
5.484,-0.0005
5.485,0.0019
5.486,0.0015
5.487,0.0061
5.488,0.0004
5.489,-0.0003
5.49,-0.0009
5.491,0.0035
5.492,0.0041
5.493,0.0017
5.494,-0.0005
5.495,0.0022
5.496,0.0048
5.497,0.003
5.498,0.001
5.499,-0.0003
5.5,0.0037
5.501,0.0054
5.502,0.0077
5.503,0.0046
5.504,0.0019
5.505,-0.0007
5.506,-0.0003
5.507,-0.0011
5.508,0.0006
5.509,-0.0012
5.51,0.0028
5.511,0.0112
5.512,0.0297
5.513,0.0431
5.514,0.0407
5.515,0.0207
5.516,0.0021
5.517,-0.01
5.518,-0.0166
5.519,-0.0146
5.52,-0.0128
5.521,-0.0144
5.522,-0.013
5.523,-0.0197
5.524,-0.0186
5.525,-0.0175
5.526,-0.0126
5.527,-0.008
5.528,-0.0137
5.529,-0.0115
5.53,-0.0053
5.531,-0.0076
5.532,-0.0038
5.533,-0.0005
5.534,-0.0023
5.535,0.0061
5.536,0.0026
5.537,0.0015
5.538,-0.0014
5.539,-0.0023
5.54,0.0017
5.541,0.001
5.542,0.0028
5.543,0.0046
5.544,0.0041
5.545,0.0037
5.546,0.005
5.547,0.0112
5.548,0.0066
5.549,0.009
5.55,0.0083
5.551,0.0021
5.552,-0.002
5.553,-0.0012
5.554,-0.0045
5.555,-0.0064
5.556,-0.0025
5.557,-0.0038
5.558,-0.0069
5.559,-0.0031
5.56,-0.002
5.561,0.0037
5.562,0.0112
5.563,0.0264
5.564,0.0374
5.565,0.0233
5.566,0.0105
5.567,-0.0011
5.568,-0.0086
5.569,-0.0126
5.57,-0.0161
5.571,-0.0172
5.572,-0.0162
5.573,-0.0153
5.574,-0.0146
5.575,-0.0168
5.576,-0.0162
5.577,-0.0131
5.578,-0.0115
5.579,-0.0069
5.58,-0.0038
5.581,0.0013
5.582,-0.0005
5.583,0
5.584,-0.0005
5.585,0.0008
5.586,0.0004
5.587,0.0043
5.588,0.003
5.589,0.0043
5.59,0.0098
5.591,0.0076
5.592,0.0057
5.593,0.0052
5.594,0.0035
5.595,0.0048
5.596,0.0006
5.597,0.0011
5.598,0.0035
5.599,0.0077
5.6,-0.0007
5.601,-0.0042
5.602,-0.0031
5.603,0.0019
5.604,0.0028
5.605,0.0004
5.606,-0.0018
5.607,-0.0036
5.608,0.0033
5.609,0.0006
5.61,0.0021
5.611,-0.002
5.612,0.0096
5.613,0.0145
5.614,0.0249
5.615,0.0317
5.616,0.0257
5.617,0.0178
5.618,0.0109
5.619,0.0006
5.62,-0.0062
5.621,-0.0146
5.622,-0.0135
5.623,-0.0144
5.624,-0.0135
5.625,-0.0175
5.626,-0.0153
5.627,-0.012
5.628,-0.0115
5.629,-0.0098
5.63,-0.0131
5.631,-0.0135
5.632,-0.0146
5.633,-0.0097
5.634,-0.0091
5.635,-0.0073
5.636,-0.0034
5.637,-0.0058
5.638,-0.0016
5.639,0.0022
5.64,0.0046
5.641,0.0043
5.642,0.0054
5.643,0.0011
5.644,0.0006
5.645,0.001
5.646,0.0013
5.647,0.0052
5.648,0.0055
5.649,0.0068
5.65,0.0114
5.651,0.0119
5.652,0.0068
5.653,0.0087
5.654,0.0118
5.655,0.0112
5.656,0.0088
5.657,0.0037
5.658,0.0032
5.659,0.0026
5.66,0.0021
5.661,0.005
5.662,0.0037
5.663,0.0059
5.664,0.0114
5.665,0.0229
5.666,0.0478
5.667,0.0372
5.668,0.0147
5.669,-0.0001
5.67,-0.0027
5.671,-0.0148
5.672,-0.0126
5.673,-0.0186
5.674,-0.0205
5.675,-0.0221
5.676,-0.0206
5.677,-0.0219
5.678,-0.0184
5.679,-0.0152
5.68,-0.0122
5.681,-0.0131
5.682,-0.0091
5.683,-0.0053
5.684,-0.002
5.685,-0.0038
5.686,-0.0043
5.687,-0.004
5.688,-0.0053
5.689,-0.0032
5.69,-0.0029
5.691,-0.0011
5.692,0.0004
5.693,0.0035
5.694,-0.0011
5.695,0.0046
5.696,0.0024
5.697,0.0019
5.698,0.005
5.699,0.0022
5.7,0.001
5.701,0.0022
5.702,0.0019
5.703,0.0054
5.704,0.005
5.705,0.0011
5.706,0.0035
5.707,0.0032
5.708,0.0059
5.709,0.0048
5.71,0.0015
5.711,0.0004
5.712,-0.0001
5.713,-0.0043
5.714,0.0041
5.715,0.0125
5.716,0.0228
5.717,0.035
5.718,0.0367
5.719,0.0141
5.72,0.011
5.721,-0.0038
5.722,-0.0064
5.723,-0.0184
5.724,-0.0162
5.725,-0.0183
5.726,-0.0164
5.727,-0.0148
5.728,-0.0073
5.729,-0.0141
5.73,-0.013
5.731,-0.0119
5.732,-0.0109
5.733,-0.0119
5.734,-0.0111
5.735,-0.0104
5.736,-0.0071
5.737,0.0024
5.738,0.0011
5.739,0.0046
5.74,0.0035
5.741,0.0065
5.742,0.0074
5.743,0.0149
5.744,0.0178
5.745,0.0299
5.746,0.0249
5.747,0.0293
5.748,0.0334
5.749,0.0299
5.75,0.022
5.751,0.0171
5.752,0.0143
5.753,0.0136
5.754,0.0098
5.755,-0.0005
5.756,-0.0109
5.757,-0.026
5.758,-0.032
5.759,-0.0448
5.76,-0.0498
5.761,-0.0602
5.762,-0.0562
5.763,-0.0565
5.764,-0.0481
5.765,-0.0311
5.766,-0.0091
5.767,-0.0179
5.768,-0.0313
5.769,-0.0433
5.77,-0.0677
5.771,-0.11
5.772,-0.1272
5.773,-0.1221
5.774,-0.1173
5.775,-0.1045
5.776,-0.1084
5.777,-0.0977
5.778,-0.0684
5.779,-0.0172
5.78,0.0879
5.781,0.133
5.782,0.1738
5.783,0.1614
5.784,0.1502
5.785,0.1399
5.786,0.0932
5.787,0.068
5.788,0.0449
5.789,0.024
5.79,0.0303
5.791,0.0475
5.792,0.0526
5.793,0.0956
5.794,0.1244
5.795,0.1295
5.796,0.1152
5.797,0.1194
5.798,0.1233
5.799,0.1127
5.8,0.0834
5.801,0.0638
5.802,0.046
5.803,0.0365
5.804,0.0277
5.805,0.0143
5.806,0.0167
5.807,0.0101
5.808,0
5.809,-0.0164
5.81,-0.0318
5.811,-0.0419
5.812,-0.0474
5.813,-0.0424
5.814,-0.0485
5.815,-0.0529
5.816,-0.0406
5.817,-0.0422
5.818,-0.0318
5.819,-0.0195
5.82,-0.0113
5.821,-0.0278
5.822,-0.0477
5.823,-0.0611
5.824,-0.0732
5.825,-0.0798
5.826,-0.0818
5.827,-0.08
5.828,-0.075
5.829,-0.0765
5.83,-0.0697
5.831,-0.0637
5.832,-0.058
5.833,-0.0468
5.834,-0.0454
5.835,-0.0413
5.836,-0.0353
5.837,-0.0274
5.838,-0.0205
5.839,-0.0141
5.84,-0.0133
5.841,-0.0111
5.842,-0.0093
5.843,-0.0036
5.844,-0.0014
5.845,0.0004
5.846,-0.0001
5.847,0.0026
5.848,0.0059
5.849,0.009
5.85,0.0063
5.851,0.0119
5.852,0.016
5.853,0.0182
5.854,0.0119
5.855,0.0112
5.856,0.0105
5.857,0.0151
5.858,0.0119
5.859,0.0136
5.86,0.009
5.861,0.0134
5.862,0.0129
5.863,0.0096
5.864,0.0092
5.865,0.0116
5.866,0.0096
5.867,0.0152
5.868,0.0193
5.869,0.0308
5.87,0.0423
5.871,0.0198
5.872,0.0229
5.873,0.0081
5.874,0.0002
5.875,-0.0021
5.876,-0.0043
5.877,-0.0064
5.878,-0.0119
5.879,-0.0069
5.88,-0.0084
5.881,-0.0071
5.882,-0.006
5.883,-0.0049
5.884,-0.002
5.885,-0.0047
5.886,-0.0023
5.887,-0.0001
5.888,0.0017
5.889,-0.0001
5.89,-0.0029
5.891,-0.0032
5.892,0.001
5.893,-0.0029
5.894,0.0004
5.895,0.0046
5.896,0.0019
5.897,0.0043
5.898,0.0039
5.899,0.0035
5.9,0.0039
5.901,0.0087
5.902,0.003
5.903,0.0037
5.904,0.0032
5.905,0.0088
5.906,0.0035
5.907,0.0002
5.908,-0.0003
5.909,0.0035
5.91,0.0011
5.911,0.0024
5.912,0.0004
5.913,0.0022
5.914,0.0011
5.915,0.0052
5.916,0.005
5.917,0.0055
5.918,0.011
5.919,0.0132
5.92,0.0222
5.921,0.0334
5.922,0.0438
5.923,0.0315
5.924,0.0099
5.925,0.0011
5.926,-0.0067
5.927,-0.0139
5.928,-0.0161
5.929,-0.0181
5.93,-0.0199
5.931,-0.0183
5.932,-0.0197
5.933,-0.0157
5.934,-0.0073
5.935,-0.0084
5.936,-0.0093
5.937,-0.0139
5.938,-0.0031
5.939,-0.0106
5.94,-0.0065
5.941,-0.0005
5.942,-0.0016
5.943,-0.0045
5.944,0
5.945,-0.0007
5.946,-0.0045
5.947,0.0017
5.948,-0.0007
5.949,-0.0014
5.95,0.0019
5.951,0
5.952,0.0028
5.953,0.0061
5.954,0.0065
5.955,0.0044
5.956,0.0041
5.957,0.0059
5.958,0.0019
5.959,0.0035
5.96,0.0039
5.961,-0.0012
5.962,-0.0031
5.963,0
5.964,0.0006
5.965,0.0061
5.966,0.0039
5.967,0.0006
5.968,-0.0027
5.969,0.0068
5.97,0.0218
5.971,0.0359
5.972,0.0341
5.973,0.0158
5.974,0.0037
5.975,-0.0073
5.976,-0.0093
5.977,-0.0111
5.978,-0.0128
5.979,-0.0142
5.98,-0.013
5.981,-0.0141
5.982,-0.0108
5.983,-0.0098
5.984,-0.0071
5.985,-0.0047
5.986,-0.0025
5.987,0.0008
5.988,0.0013
5.989,-0.0038
5.99,-0.0032
5.991,-0.0051
5.992,-0.0034
5.993,-0.0031
5.994,-0.0027
5.995,-0.0047
5.996,-0.0005
5.997,-0.0021
5.998,-0.0034
5.999,-0.0031
6,0.0032
6.001,0.0059
6.002,0.0052
6.003,0.0013
6.004,0.0019
6.005,0.0024
6.006,0.0008
6.007,0.0021
6.008,0.0008
6.009,-0.0003
6.01,0.0015
6.011,0.0026
6.012,0.0006
6.013,0.0037
6.014,0.001
6.015,-0.0025
6.016,0.0026
6.017,0.0008
6.018,0.0028
6.019,0.0033
6.02,0.0118
6.021,0.0107
6.022,0.0118
6.023,0.027
6.024,0.038
6.025,0.0239
6.026,0.0074
6.027,-0.0036
6.028,-0.0097
6.029,-0.0152
6.03,-0.0102
6.031,-0.0177
6.032,-0.0137
6.033,-0.0172
6.034,-0.0161
6.035,-0.0091
6.036,-0.01
6.037,-0.0093
6.038,0.0022
6.039,0.0072
6.04,0.0116
6.041,0.0076
6.042,-0.0009
6.043,-0.0042
6.044,-0.0071
6.045,-0.0062
6.046,-0.0021
6.047,-0.0043
6.048,-0.0025
6.049,-0.0043
6.05,-0.0071
6.051,0.0004
6.052,0.0061
6.053,0.0011
6.054,-0.0053
6.055,-0.0029
6.056,-0.0051
6.057,-0.0032
6.058,0.0024
6.059,0.0032
6.06,-0.0014
6.061,-0.0032
6.062,0.0041
6.063,0.0032
6.064,0.0059
6.065,0.0035
6.066,0.0043
6.067,0.0024
6.068,0.0019
6.069,0.0057
6.07,0.0085
6.071,0.016
6.072,0.0262
6.073,0.033
6.074,0.0365
6.075,0.0217
6.076,0.0116
6.077,-0.0012
6.078,-0.0029
6.079,-0.0073
6.08,-0.0086
6.081,-0.0146
6.082,-0.0135
6.083,-0.0164
6.084,-0.0155
6.085,-0.0148
6.086,-0.0126
6.087,-0.0093
6.088,-0.0098
6.089,-0.0126
6.09,-0.0051
6.091,-0.004
6.092,-0.0011
6.093,-0.0038
6.094,0.0019
6.095,0.0057
6.096,0.0063
6.097,0.0044
6.098,0.0028
6.099,0.0041
6.1,0.0019
6.101,0.003
6.102,-0.0012
6.103,0.0015
6.104,0.0002
6.105,0.0072
6.106,0.0043
6.107,-0.0003
6.108,-0.0011
6.109,-0.0018
6.11,-0.0036
6.111,-0.0042
6.112,-0.0058
6.113,-0.0012
6.114,-0.0018
6.115,0.0033
6.116,0.0015
6.117,0.0046
6.118,-0.0005
6.119,0.0013
6.12,0.0028
6.121,0.0033
6.122,0.0118
6.123,0.0129
6.124,0.0185
6.125,0.0297
6.126,0.0372
6.127,0.0167
6.128,0.0138
6.129,0.0004
6.13,-0.0117
6.131,-0.0183
6.132,-0.0203
6.133,-0.0221
6.134,-0.0172
6.135,-0.0128
6.136,-0.0115
6.137,-0.0126
6.138,-0.0115
6.139,-0.0124
6.14,-0.0097
6.141,-0.0089
6.142,-0.0036
6.143,-0.0042
6.144,-0.0047
6.145,0.0026
6.146,0.0017
6.147,-0.0029
6.148,-0.0021
6.149,-0.0029
6.15,0.0004
6.151,0.0035
6.152,0.003
6.153,-0.0025
6.154,0.0059
6.155,0.007
6.156,0.0021
6.157,-0.0043
6.158,-0.0003
6.159,-0.0011
6.16,0.0022
6.161,-0.0009
6.162,-0.0003
6.163,0
6.164,-0.0003
6.165,-0.0007
6.166,0.0011
6.167,0.0015
6.168,0.003
6.169,0.0043
6.17,0.0066
6.171,0.0072
6.172,0.0026
6.173,0.0088
6.174,0.0048
6.175,0.0163
6.176,0.0412
6.177,0.0235
6.178,0.0074
6.179,-0.0014
6.18,-0.004
6.181,-0.0064
6.182,-0.013
6.183,-0.015
6.184,-0.0168
6.185,-0.0184
6.186,-0.0141
6.187,-0.0128
6.188,-0.0117
6.189,-0.0106
6.19,-0.0056
6.191,-0.0029
6.192,0.0028
6.193,-0.0011
6.194,-0.0029
6.195,-0.0011
6.196,0.0006
6.197,0.0002
6.198,-0.0049
6.199,-0.0054
6.2,-0.0073
6.201,-0.0011
6.202,-0.0003
6.203,-0.0011
6.204,0.0022
6.205,0.0079
6.206,0.0072
6.207,0.0039
6.208,0.0033
6.209,0.0028
6.21,-0.0047
6.211,-0.0014
6.212,0.0077
6.213,0.0088
6.214,0.0077
6.215,0.0048
6.216,0.0021
6.217,0.0013
6.218,0.0021
6.219,-0.0025
6.22,-0.0095
6.221,-0.0067
6.222,-0.0045
6.223,-0.0038
6.224,0.0077
6.225,0.0094
6.226,0.0198
6.227,0.0293
6.228,0.0429
6.229,0.0374
6.23,0.0158
6.231,0.001
6.232,-0.0069
6.233,-0.0141
6.234,-0.0162
6.235,-0.0142
6.236,-0.0124
6.237,-0.0108
6.238,-0.0093
6.239,-0.0161
6.24,-0.0172
6.241,-0.0115
6.242,-0.0086
6.243,-0.0076
6.244,-0.0069
6.245,-0.0062
6.246,-0.0043
6.247,0
6.248,-0.0016
6.249,-0.0049
6.25,-0.0062
6.251,-0.0023
6.252,-0.0027
6.253,0.0024
6.254,0.003
6.255,0.0024
6.256,0.0063
6.257,0.0017
6.258,0.0011
6.259,0.0039
6.26,-0.0027
6.261,-0.0036
6.262,-0.006
6.263,-0.0067
6.264,-0.0049
6.265,0.0033
6.266,0.0044
6.267,0.0035
6.268,0.0063
6.269,0.0055
6.27,0.0063
6.271,0.0057
6.272,0.0039
6.273,-0.0001
6.274,0.0004
6.275,0.0079
6.276,0.0204
6.277,0.0154
6.278,0.038
6.279,0.0475
6.28,0.0326
6.281,0.014
6.282,-0.0029
6.283,-0.0051
6.284,0.001
6.285,0.0028
6.286,0.0011
6.287,-0.0064
6.288,-0.0051
6.289,-0.0111
6.29,-0.019
6.291,-0.0141
6.292,-0.0095
6.293,-0.0119
6.294,-0.0111
6.295,-0.0049
6.296,-0.0042
6.297,-0.0095
6.298,-0.01
6.299,-0.0095
6.3,-0.0089
6.301,-0.0086
6.302,-0.0064
6.303,-0.0043
6.304,-0.0086
6.305,-0.008
6.306,-0.0014
6.307,-0.0042
6.308,0.0015
6.309,0.0008
6.31,-0.0011
6.311,-0.0042
6.312,-0.0069
6.313,-0.0023
6.314,-0.0029
6.315,-0.0001
6.316,0.0022
6.317,0.0019
6.318,0.0039
6.319,0.0021
6.32,0.0046
6.321,0.0019
6.322,0.003
6.323,0.0019
6.324,0.0021
6.325,0.0028
6.326,0.007
6.327,0.0165
6.328,0.0315
6.329,0.0376
6.33,0.0248
6.331,0.0165
6.332,0.003
6.333,-0.0025
6.334,-0.0141
6.335,-0.0126
6.336,-0.0113
6.337,-0.0053
6.338,-0.0086
6.339,-0.0115
6.34,-0.0179
6.341,-0.0203
6.342,-0.0256
6.343,-0.0238
6.344,-0.0232
6.345,-0.0159
6.346,-0.0047
6.347,-0.0032
6.348,-0.002
6.349,-0.0009
6.35,0.0024
6.351,0.0033
6.352,0.0043
6.353,0.0019
6.354,0.0041
6.355,0.0116
6.356,0.0087
6.357,0.0077
6.358,0.0054
6.359,0.0046
6.36,0.0092
6.361,0.011
6.362,0.0083
6.363,0.0017
6.364,0.0063
6.365,0.0039
6.366,0.0032
6.367,0.0077
6.368,0.0008
6.369,-0.002
6.37,0.0021
6.371,0.009
6.372,0.0193
6.373,0.0288
6.374,0.0277
6.375,0.0306
6.376,0.0339
6.377,0.0369
6.378,0.0341
6.379,0.0398
6.38,0.0376
6.381,0.0478
6.382,0.0522
6.383,0.0317
6.384,-0.0009
6.385,-0.0311
6.386,-0.0428
6.387,-0.0606
6.388,-0.0701
6.389,-0.0789
6.39,-0.0922
6.391,-0.0899
6.392,-0.0833
6.393,-0.0732
6.394,-0.064
6.395,-0.0723
6.396,-0.0888
6.397,-0.1041
6.398,-0.1142
6.399,-0.1344
6.4,-0.1422
6.401,-0.1446
6.402,-0.1424
6.403,-0.1162
6.404,-0.0985
6.405,-0.0889
6.406,-0.0622
6.407,-0.0444
6.408,0.0043
6.409,0.1094
6.41,0.1846
6.411,0.1982
6.412,0.1857
6.413,0.152
6.414,0.1418
6.415,0.1324
6.416,0.1409
6.417,0.1178
6.418,0.0969
6.419,0.1031
6.42,0.1319
6.421,0.1685
6.422,0.1828
6.423,0.187
6.424,0.1674
6.425,0.1639
6.426,0.1471
6.427,0.1178
6.428,0.0903
6.429,0.0581
6.43,0.0623
6.431,0.0506
6.432,0.0257
6.433,0.0096
6.434,-0.0111
6.435,-0.0245
6.436,-0.0413
6.437,-0.0613
6.438,-0.0747
6.439,-0.0818
6.44,-0.0752
6.441,-0.0893
6.442,-0.0948
6.443,-0.0964
6.444,-0.0889
6.445,-0.0822
6.446,-0.0882
6.447,-0.0893
6.448,-0.0823
6.449,-0.0796
6.45,-0.0756
6.451,-0.0778
6.452,-0.0772
6.453,-0.0728
6.454,-0.0655
6.455,-0.0626
6.456,-0.0542
6.457,-0.0509
6.458,-0.0479
6.459,-0.0433
6.46,-0.041
6.461,-0.034
6.462,-0.0276
6.463,-0.0201
6.464,-0.0152
6.465,-0.0161
6.466,-0.0153
6.467,-0.0115
6.468,-0.0069
6.469,-0.0025
6.47,0.0013
6.471,0.0046
6.472,0.0015
6.473,0.0035
6.474,0.0039
6.475,0.0057
6.476,0.009
6.477,0.0072
6.478,0.0085
6.479,0.0147
6.48,0.0231
6.481,0.0401
6.482,0.0473
6.483,0.0319
6.484,0.0138
6.485,0.0017
6.486,-0.0049
6.487,0.0011
6.488,0.003
6.489,-0.0053
6.49,-0.0009
6.491,0.0032
6.492,0.0043
6.493,0.0076
6.494,0.0066
6.495,0.0039
6.496,0.0046
6.497,0.0068
6.498,0.0074
6.499,0.003
6.5,0.0046
6.501,0.0079
6.502,0.0083
6.503,0.0021
6.504,-0.0007
6.505,0.0017
6.506,0.0055
6.507,0.005
6.508,0.0132
6.509,0.0143
6.51,0.0094
6.511,0.0048
6.512,0.0072
6.513,0.005
6.514,0.0083
6.515,0.0052
6.516,0.0079
6.517,0.0046
6.518,0.0107
6.519,0.0099
6.52,-0.0001
6.521,-0.0014
6.522,-0.0003
6.523,-0.0014
6.524,-0.0023
6.525,-0.0051
6.526,0.0006
6.527,-0.0032
6.528,-0.0067
6.529,0.0022
6.53,0.0083
6.531,0.005
6.532,0.0182
6.533,0.0127
6.534,0.0143
6.535,0.0279
6.536,0.0297
6.537,0.0412
6.538,0.0456
6.539,0.0251
6.54,0.0044
6.541,-0.0034
6.542,-0.0155
6.543,-0.0133
6.544,-0.0234
6.545,-0.0252
6.546,-0.0236
6.547,-0.0161
6.548,-0.0093
6.549,-0.0153
6.55,-0.021
6.551,-0.0181
6.552,-0.0097
6.553,-0.0086
6.554,-0.0056
6.555,-0.0047
6.556,-0.0071
6.557,-0.0049
6.558,-0.0082
6.559,-0.0051
6.56,0.0011
6.561,0.0035
6.562,0.0074
6.563,0.0041
6.564,0.0059
6.565,0.0054
6.566,0.0008
6.567,-0.0011
6.568,0.0006
6.569,0.001
6.57,-0.0051
6.571,-0.0043
6.572,0.001
6.573,0.0028
6.574,0.0022
6.575,0.0017
6.576,0.005
6.577,0.0063
6.578,0.0059
6.579,0.0028
6.58,0.0077
6.581,0.018
6.582,0.0255
6.583,0.046
6.584,0.0431
6.585,0.0189
6.586,0.0094
6.587,-0.0054
6.588,-0.008
6.589,-0.0104
6.59,-0.0214
6.591,-0.0194
6.592,-0.0175
6.593,-0.0159
6.594,-0.0084
6.595,-0.0043
6.596,-0.0054
6.597,-0.0111
6.598,-0.0141
6.599,-0.0131
6.6,-0.0139
6.601,-0.0192
6.602,-0.0159
6.603,-0.0064
6.604,-0.0076
6.605,-0.0065
6.606,-0.0032
6.607,-0.0023
6.608,0.0041
6.609,0.0048
6.61,0.0118
6.611,0.0072
6.612,0.0096
6.613,0.0043
6.614,0.0048
6.615,0.003
6.616,0.0057
6.617,0.0112
6.618,0.0134
6.619,0.0129
6.62,0.0085
6.621,0.0022
6.622,0.0046
6.623,0.0039
6.624,0.0021
6.625,-0.0062
6.626,-0.0051
6.627,-0.0042
6.628,-0.0087
6.629,-0.0095
6.63,-0.0031
6.631,-0.0053
6.632,0.005
6.633,0.0215
6.634,0.0414
6.635,0.0389
6.636,0.0317
6.637,0.0118
6.638,-0.0016
6.639,-0.0087
6.64,-0.0109
6.641,-0.0089
6.642,-0.0144
6.643,-0.0128
6.644,-0.0113
6.645,-0.01
6.646,-0.0111
6.647,-0.01
6.648,-0.0071
6.649,-0.0025
6.65,0.0032
6.651,0.0024
6.652,-0.0009
6.653,0.0087
6.654,0.0046
6.655,-0.0014
6.656,-0.0047
6.657,-0.0076
6.658,-0.0049
6.659,-0.0009
6.66,-0.0001
6.661,0.0004
6.662,0.0035
6.663,-0.0003
6.664,0.0072
6.665,0.0039
6.666,0.0048
6.667,0.0002
6.668,-0.0005
6.669,-0.0043
6.67,0.0032
6.671,0.0002
6.672,-0.0007
6.673,-0.0014
6.674,0.0008
6.675,0.0002
6.676,-0.0029
6.677,-0.0001
6.678,0.0022
6.679,0.0054
6.68,0.0026
6.681,0.0057
6.682,0.0099
6.683,0.0184
6.684,0.0149
6.685,0.0319
6.686,0.0343
6.687,0.0099
6.688,0.013
6.689,-0.0018
6.69,-0.0097
6.691,-0.0025
6.692,-0.0091
6.693,-0.0192
6.694,-0.0173
6.695,-0.0124
6.696,-0.0139
6.697,-0.0126
6.698,-0.0137
6.699,-0.017
6.7,-0.0141
6.701,-0.015
6.702,-0.0157
6.703,-0.0164
6.704,-0.0131
6.705,-0.0075
6.706,-0.0053
6.707,-0.0071
6.708,-0.0102
6.709,-0.0086
6.71,-0.0011
6.711,0.0022
6.712,0.0052
6.713,0.0061
6.714,0.0068
6.715,0.0046
6.716,0.0079
6.717,0.0098
6.718,0.0125
6.719,0.0092
6.72,0.007
6.721,0.0066
6.722,0.0063
6.723,0.0008
6.724,0
6.725,0.0033
6.726,0.0039
6.727,0.0022
6.728,0.0046
6.729,0.0024
6.73,0.0021
6.731,-0.0005
6.732,-0.0016
6.733,0.0032
6.734,0.0026
6.735,0.011
6.736,0.0195
6.737,0.0365
6.738,0.0389
6.739,0.0235
6.74,0.0054
6.741,-0.0018
6.742,-0.0084
6.743,-0.0144
6.744,-0.0162
6.745,-0.0179
6.746,-0.0223
6.747,-0.0183
6.748,-0.0217
6.749,-0.0161
6.75,-0.0131
6.751,-0.0122
6.752,-0.0098
6.753,-0.0106
6.754,-0.01
6.755,-0.0056
6.756,-0.0051
6.757,-0.0084
6.758,-0.0071
6.759,-0.0016
6.76,-0.0038
6.761,-0.002
6.762,0.0024
6.763,0.0063
6.764,0.0039
6.765,0.0043
6.766,0.0046
6.767,0.0028
6.768,-0.002
6.769,-0.0038
6.77,-0.0032
6.771,-0.002
6.772,-0.0062
6.773,-0.0056
6.774,-0.0023
6.775,0.0008
6.776,0.007
6.777,0.0154
6.778,0.0143
6.779,0.0052
6.78,-0.0009
6.781,-0.002
6.782,0.005
6.783,0.0057
6.784,0.0048
6.785,0.0173
6.786,0.0228
6.787,0.0244
6.788,0.038
6.789,0.0361
6.79,0.0211
6.791,0.011
6.792,-0.0018
6.793,-0.0133
6.794,-0.0238
6.795,-0.0225
6.796,-0.0236
6.797,-0.0179
6.798,-0.0208
6.799,-0.0217
6.8,-0.0194
6.801,-0.0201
6.802,-0.0139
6.803,-0.0098
6.804,-0.0029
6.805,-0.0038
6.806,-0.0078
6.807,-0.004
6.808,0.0035
6.809,0.0044
6.81,0.0035
6.811,0.0059
6.812,0.0052
6.813,0.0033
6.814,-0.0036
6.815,-0.0064
6.816,-0.0071
6.817,-0.0049
6.818,-0.0043
6.819,-0.0025
6.82,0.0026
6.821,0.0101
6.822,0.011
6.823,0.0065
6.824,0.0057
6.825,0.0035
6.826,0.003
6.827,0.0048
6.828,-0.0003
6.829,0.003
6.83,0.0087
6.831,-0.0014
6.832,-0.0001
6.833,0.0033
6.834,0.0065
6.835,0.0076
6.836,0.0145
6.837,0.0191
6.838,0.0231
6.839,0.0347
6.84,0.0396
6.841,0.0292
6.842,0.0087
6.843,-0.012
6.844,-0.0146
6.845,-0.0217
6.846,-0.0283
6.847,-0.0223
6.848,-0.0205
6.849,-0.0221
6.85,-0.0206
6.851,-0.0166
6.852,-0.0106
6.853,-0.0073
6.854,-0.0082
6.855,-0.0109
6.856,-0.0069
6.857,-0.0031
6.858,-0.0025
6.859,0.0032
6.86,-0.0007
6.861,-0.0069
6.862,-0.0076
6.863,-0.0007
6.864,-0.0016
6.865,-0.0009
6.866,-0.0001
6.867,0.0044
6.868,0.0076
6.869,0.0114
6.87,0.0127
6.871,0.0057
6.872,0.0048
6.873,0.0039
6.874,0.0079
6.875,0.0041
6.876,0.0035
6.877,0.0004
6.878,-0.0034
6.879,-0.0058
6.88,-0.0109
6.881,-0.0076
6.882,-0.002
6.883,-0.0042
6.884,-0.006
6.885,0.0021
6.886,0.0116
6.887,0.0156
6.888,0.0191
6.889,0.0361
6.89,0.0385
6.891,0.0231
6.892,0.009
6.893,-0.0038
6.894,-0.0087
6.895,-0.0102
6.896,-0.017
6.897,-0.0135
6.898,-0.0124
6.899,-0.0095
6.9,-0.0086
6.901,-0.0045
6.902,0.0024
6.903,0.007
6.904,0.011
6.905,0.0103
6.906,0
6.907,-0.0043
6.908,-0.0056
6.909,-0.0091
6.91,-0.0102
6.911,-0.0111
6.912,-0.0139
6.913,-0.0098
6.914,-0.006
6.915,-0.0027
6.916,-0.0032
6.917,0.0041
6.918,-0.0009
6.919,0.0055
6.92,0.0032
6.921,0.0054
6.922,0.0008
6.923,0.0052
6.924,0.0024
6.925,0.0057
6.926,0.0088
6.927,0.0061
6.928,0.005
6.929,0.001
6.93,-0.0003
6.931,-0.0073
6.932,-0.0082
6.933,-0.0073
6.934,-0.0049
6.935,-0.0027
6.936,0.0035
6.937,0.0068
6.938,0.0125
6.939,0.0055
6.94,0.0195
6.941,0.0376
6.942,0.04
6.943,0.02
6.944,0.0013
6.945,-0.0058
6.946,-0.0124
6.947,-0.0184
6.948,-0.0166
6.949,-0.0216
6.95,-0.0201
6.951,-0.0188
6.952,-0.0153
6.953,-0.012
6.954,-0.013
6.955,-0.0084
6.956,-0.0141
6.957,-0.0087
6.958,-0.0106
6.959,-0.0087
6.96,-0.0003
6.961,0.0081
6.962,0.0048
6.963,0.0057
6.964,-0.0007
6.965,0.0017
6.966,0.0055
6.967,0.0074
6.968,0.0017
6.969,0.001
6.97,0.0055
6.971,0.0074
6.972,-0.0011
6.973,0.005
6.974,0.0017
6.975,-0.0012
6.976,0.0015
6.977,-0.0042
6.978,0.0011
6.979,-0.0051
6.98,-0.0058
6.981,-0.008
6.982,-0.0034
6.983,-0.0003
6.984,0.0002
6.985,0.0077
6.986,0.0156
6.987,0.0174
6.988,0.0224
6.989,0.0363
6.99,0.0303
6.991,0.0577
6.992,0.0616
6.993,0.0581
6.994,0.0356
6.995,0.0207
6.996,0.0021
6.997,-0.0051
6.998,-0.0161
6.999,-0.0261
7,-0.0353
7.001,-0.0402
7.002,-0.0477
7.003,-0.0545
7.004,-0.0629
7.005,-0.0708
7.006,-0.0778
7.007,-0.075
7.008,-0.0774
7.009,-0.0673
7.01,-0.0551
7.011,-0.0501
7.012,-0.0726
7.013,-0.0952
7.014,-0.0922
7.015,-0.1056
7.016,-0.1224
7.017,-0.1115
7.018,-0.0974
7.019,-0.0845
7.02,-0.0596
7.021,-0.0203
7.022,-0.0152
7.023,-0.0009
7.024,0.0293
7.025,0.0885
7.026,0.1987
7.027,0.2137
7.028,0.2273
7.029,0.1899
7.03,0.1562
7.031,0.105
7.032,0.077
7.033,0.0685
7.034,0.0608
7.035,0.0678
7.036,0.0867
7.037,0.0923
7.038,0.1053
7.039,0.1209
7.04,0.1257
7.041,0.1299
7.042,0.1416
7.043,0.1451
7.044,0.129
7.045,0.0903
7.046,0.0431
7.047,0.0114
7.048,-0.0058
7.049,-0.0109
7.05,-0.0062
7.051,-0.019
7.052,-0.0307
7.053,-0.0485
7.054,-0.0516
7.055,-0.0664
7.056,-0.0798
7.057,-0.0726
7.058,-0.0748
7.059,-0.0809
7.06,-0.09
7.061,-0.0818
7.062,-0.0774
7.063,-0.0706
7.064,-0.0717
7.065,-0.0684
7.066,-0.0714
7.067,-0.0686
7.068,-0.0629
7.069,-0.0576
7.07,-0.0582
7.071,-0.0563
7.072,-0.0501
7.073,-0.0494
7.074,-0.041
7.075,-0.0353
7.076,-0.0303
7.077,-0.0313
7.078,-0.0289
7.079,-0.025
7.08,-0.0188
7.081,-0.0195
7.082,-0.0188
7.083,-0.0113
7.084,-0.0001
7.085,-0.0016
7.086,0.0024
7.087,0.0085
7.088,0.0074
7.089,0.0035
7.09,0.0026
7.091,0.009
7.092,0.0198
7.093,0.0423
7.094,0.0585
7.095,0.0614
7.096,0.0319
7.097,0.0123
7.098,-0.0054
7.099,-0.0023
7.1,0.0006
7.101,-0.002
7.102,0.0004
7.103,-0.0106
7.104,-0.0166
7.105,-0.0075
7.106,-0.0091
7.107,-0.0076
7.108,-0.0036
7.109,0.0024
7.11,0.0057
7.111,0.0066
7.112,0.0057
7.113,0.0033
7.114,0.0041
7.115,0.0046
7.116,0.009
7.117,0.0118
7.118,0.0105
7.119,0.0127
7.12,0.0138
7.121,0.0112
7.122,0.0123
7.123,0.013
7.124,0.0094
7.125,0.0098
7.126,0.0076
7.127,0.0065
7.128,0.0107
7.129,0.009
7.13,0.0044
7.131,-0.0025
7.132,-0.0034
7.133,-0.0011
7.134,-0.0003
7.135,0.0043
7.136,0.0087
7.137,0.0048
7.138,-0.0007
7.139,0
7.14,-0.0001
7.141,0.0004
7.142,0.0099
7.143,0.0167
7.144,0.0202
7.145,0.0213
7.146,0.0242
7.147,0.0288
7.148,0.0412
7.149,0.0467
7.15,0.0385
7.151,0.016
7.152,-0.0001
7.153,-0.015
7.154,-0.0124
7.155,-0.0245
7.156,-0.0223
7.157,-0.0243
7.158,-0.0298
7.159,-0.0314
7.16,-0.0271
7.161,-0.0175
7.162,-0.0164
7.163,-0.0086
7.164,-0.0135
7.165,-0.0108
7.166,-0.0067
7.167,-0.006
7.168,-0.0078
7.169,-0.0034
7.17,-0.004
7.171,0.0035
7.172,0.0114
7.173,0.0085
7.174,0.013
7.175,0.0039
7.176,-0.0021
7.177,0.0035
7.178,0.0026
7.179,-0.0001
7.18,0.0006
7.181,0.0013
7.182,0.0019
7.183,0.0024
7.184,0.0019
7.185,0.0015
7.186,0.0028
7.187,0.0039
7.188,-0.0011
7.189,-0.0005
7.19,0.0026
7.191,0.0043
7.192,0.0059
7.193,0.0134
7.194,0.0213
7.195,0.0242
7.196,0.0381
7.197,0.0522
7.198,0.0358
7.199,0.0158
7.2,0.0024
7.201,-0.0097
7.202,-0.0119
7.203,-0.0179
7.204,-0.0197
7.205,-0.0181
7.206,-0.0166
7.207,-0.0179
7.208,-0.0144
7.209,-0.0133
7.21,-0.0183
7.211,-0.0192
7.212,-0.0184
7.213,-0.0115
7.214,-0.0051
7.215,-0.0027
7.216,-0.0065
7.217,-0.0084
7.218,-0.004
7.219,0.0022
7.22,-0.0018
7.221,0.0021
7.222,0.0015
7.223,0.0033
7.224,0.0028
7.225,0.0015
7.226,0.0011
7.227,0.0015
7.228,0.0041
7.229,0.0052
7.23,0.005
7.231,0.0032
7.232,0.005
7.233,0.0052
7.234,0.0041
7.235,0.0066
7.236,0.0092
7.237,0.0046
7.238,0.0041
7.239,0.0035
7.24,-0.0003
7.241,0.001
7.242,0.0028
7.243,-0.0014
7.244,0.007
7.245,0.0231
7.246,0.0385
7.247,0.0325
7.248,0.0196
7.249,0.0046
7.25,-0.0095
7.251,-0.0113
7.252,-0.013
7.253,-0.0144
7.254,-0.0131
7.255,-0.012
7.256,-0.0153
7.257,-0.0144
7.258,-0.0098
7.259,-0.0091
7.26,-0.0069
7.261,-0.0051
7.262,-0.0032
7.263,-0.0038
7.264,0.0017
7.265,0.0024
7.266,0.0043
7.267,0.0061
7.268,0.0123
7.269,0.013
7.27,0.0092
7.271,0.0046
7.272,0.0041
7.273,0.0057
7.274,0.0002
7.275,-0.0051
7.276,-0.0045
7.277,-0.0001
7.278,-0.0018
7.279,-0.0021
7.28,-0.0064
7.281,-0.0036
7.282,-0.0023
7.283,0.0008
7.284,0.0019
7.285,0.0044
7.286,0.0092
7.287,0.011
7.288,0.0059
7.289,-0.0016
7.29,-0.0045
7.291,-0.0073
7.292,-0.008
7.293,-0.0009
7.294,0.003
7.295,0.0132
7.296,0.0147
7.297,0.0325
7.298,0.0396
7.299,0.0374
7.3,0.0273
7.301,0.0109
7.302,-0.0001
7.303,-0.0062
7.304,-0.0117
7.305,-0.0166
7.306,-0.0181
7.307,-0.0168
7.308,-0.0179
7.309,-0.0122
7.31,-0.0172
7.311,-0.0181
7.312,-0.0141
7.313,-0.0148
7.314,-0.0115
7.315,-0.0071
7.316,0.0013
7.317,0.0048
7.318,0.0059
7.319,0.003
7.32,-0.0034
7.321,0.0006
7.322,0.0028
7.323,0.001
7.324,-0.0009
7.325,-0.0036
7.326,0.001
7.327,0.0041
7.328,0.0068
7.329,0.0035
7.33,-0.0034
7.331,-0.0025
7.332,-0.0016
7.333,-0.0009
7.334,0.0061
7.335,0.0052
7.336,0.0076
7.337,0.0054
7.338,0.0099
7.339,0.0043
7.34,0.0021
7.341,-0.0025
7.342,-0.0031
7.343,-0.0025
7.344,-0.006
7.345,-0.0047
7.346,0.0022
7.347,0.0114
7.348,0.0299
7.349,0.0433
7.35,0.0312
7.351,0.0202
7.352,0.0061
7.353,-0.0067
7.354,-0.0117
7.355,-0.0131
7.356,-0.0144
7.357,-0.0109
7.358,-0.0166
7.359,-0.0117
7.36,-0.0089
7.361,-0.0082
7.362,-0.0104
7.363,-0.0086
7.364,-0.0117
7.365,-0.0111
7.366,-0.0078
7.367,-0.0056
7.368,-0.0029
7.369,-0.0003
7.37,-0.0014
7.371,-0.0007
7.372,-0.0025
7.373,-0.0065
7.374,-0.0071
7.375,-0.0005
7.376,0.0041
7.377,0.0048
7.378,0.0026
7.379,-0.002
7.38,-0.0051
7.381,-0.0067
7.382,-0.0034
7.383,0.0035
7.384,0.0105
7.385,0.0059
7.386,0.0019
7.387,0.0072
7.388,0.0054
7.389,0.0048
7.39,0.0043
7.391,0.001
7.392,-0.0021
7.393,-0.0049
7.394,-0.0007
7.395,-0.0001
7.396,-0.0007
7.397,-0.004
7.398,0.003
7.399,0.0182
7.4,0.0292
7.401,0.0271
7.402,0.0436
7.403,0.0502
7.404,0.0281
7.405,0.0074
7.406,-0.0113
7.407,-0.0234
7.408,-0.0256
7.409,-0.0316
7.41,-0.0298
7.411,-0.0148
7.412,-0.0128
7.413,-0.0219
7.414,-0.017
7.415,-0.0184
7.416,-0.0172
7.417,-0.0161
7.418,-0.0104
7.419,-0.0012
7.42,-0.0001
7.421,0.001
7.422,0.0019
7.423,-0.0045
7.424,-0.0021
7.425,-0.0029
7.426,-0.0047
7.427,-0.0016
7.428,-0.0011
7.429,0.0002
7.43,-0.002
7.431,-0.0009
7.432,0.0026
7.433,0.0022
7.434,0.0002
7.435,0.0028
7.436,0.0083
7.437,0.0061
7.438,0.0015
7.439,0.0021
7.44,0.0059
7.441,0.0105
7.442,0.0149
7.443,0.0065
7.444,0.0054
7.445,0.0043
7.446,0.0013
7.447,0.0004
7.448,0.0143
7.449,0.0083
7.45,0.0358
7.451,0.0396
7.452,0.0431
7.453,0.0206
7.454,0.0057
7.455,-0.0076
7.456,-0.0197
7.457,-0.0219
7.458,-0.0159
7.459,-0.0141
7.46,-0.0124
7.461,-0.008
7.462,-0.0093
7.463,-0.0104
7.464,-0.0093
7.465,-0.0122
7.466,-0.015
7.467,-0.0142
7.468,-0.0104
7.469,-0.0071
7.47,-0.0065
7.471,-0.0014
7.472,-0.0032
7.473,-0.0064
7.474,-0.0069
7.475,0.0006
7.476,-0.0005
7.477,0.0044
7.478,0.0017
7.479,-0.0007
7.48,0.0015
7.481,0.001
7.482,0.0028
7.483,0.0055
7.484,0.0022
7.485,0.0092
7.486,0.0184
7.487,0.0218
7.488,0.0094
7.489,0.0077
7.49,0.0121
7.491,0.0054
7.492,0.0065
7.493,0.0032
7.494,0.0041
7.495,0.005
7.496,0.0026
7.497,0.0021
7.498,-0.0018
7.499,0.0085
7.5,0.0129
7.501,0.0196
7.502,0.0381
7.503,0.0407
7.504,0.0239
7.505,0.0173
7.506,-0.0009
7.507,-0.013
7.508,-0.0152
7.509,-0.0212
7.51,-0.023
7.511,-0.0247
7.512,-0.0203
7.513,-0.0135
7.514,-0.0124
7.515,-0.0067
7.516,-0.0137
7.517,-0.0183
7.518,-0.019
7.519,-0.0106
7.52,-0.0095
7.521,-0.0065
7.522,-0.0093
7.523,-0.01
7.524,-0.0062
7.525,-0.0043
7.526,-0.0025
7.527,-0.002
7.528,0.0026
7.529,-0.0005
7.53,-0.0043
7.531,-0.0056
7.532,-0.0005
7.533,-0.0011
7.534,-0.0005
7.535,0
7.536,0.0013
7.537,0.0017
7.538,0.0021
7.539,0.001
7.54,0.0065
7.541,0.0072
7.542,0.0054
7.543,0.0035
7.544,0.0019
7.545,0.0032
7.546,-0.002
7.547,0.0026
7.548,0.0021
7.549,0.0015
7.55,0.0099
7.551,0.016
7.552,0.033
7.553,0.0354
7.554,0.0244
7.555,0.0184
7.556,0.0092
7.557,0.001
7.558,-0.0126
7.559,-0.0181
7.56,-0.0131
7.561,-0.0117
7.562,-0.0184
7.563,-0.015
7.564,-0.0183
7.565,-0.0113
7.566,-0.0067
7.567,-0.0124
7.568,-0.0054
7.569,-0.0045
7.57,-0.0069
7.571,-0.0076
7.572,-0.0082
7.573,0.0013
7.574,0.0026
7.575,0.0015
7.576,0.0026
7.577,0.0096
7.578,0.0123
7.579,0.0147
7.58,0.0169
7.581,0.0244
7.582,0.0314
7.583,0.0359
7.584,0.0303
7.585,0.0249
7.586,0.0217
7.587,0.0185
7.588,0.0101
7.589,0.0041
7.59,-0.0038
7.591,-0.013
7.592,-0.019
7.593,-0.0247
7.594,-0.0338
7.595,-0.045
7.596,-0.0554
7.597,-0.0704
7.598,-0.0644
7.599,-0.0675
7.6,-0.062
7.601,-0.0437
7.602,-0.0269
7.603,-0.0203
7.604,-0.0344
7.605,-0.0472
7.606,-0.0721
7.607,-0.1257
7.608,-0.1642
7.609,-0.1433
7.61,-0.1245
7.611,-0.0957
7.612,-0.0802
7.613,-0.0754
7.614,-0.0452
7.615,0.014
7.616,0.1072
7.617,0.1694
7.618,0.1806
7.619,0.1703
7.62,0.161
7.621,0.1357
7.622,0.1127
7.623,0.0777
7.624,0.0715
7.625,0.0771
7.626,0.0927
7.627,0.107
7.628,0.1028
7.629,0.1145
7.63,0.118
7.631,0.1341
7.632,0.1312
7.633,0.1286
7.634,0.1214
7.635,0.1192
7.636,0.089
7.637,0.0414
7.638,0.0098
7.639,-0.0075
7.64,-0.0023
7.641,0.0024
7.642,-0.0104
7.643,-0.0221
7.644,-0.0327
7.645,-0.0422
7.646,-0.051
7.647,-0.0589
7.648,-0.0565
7.649,-0.0543
7.65,-0.0631
7.651,-0.0732
7.652,-0.0677
7.653,-0.0527
7.654,-0.0346
7.655,-0.0225
7.656,-0.0468
7.657,-0.0499
7.658,-0.0648
7.659,-0.0673
7.66,-0.0745
7.661,-0.0767
7.662,-0.0747
7.663,-0.0728
7.664,-0.0712
7.665,-0.0637
7.666,-0.0569
7.667,-0.0509
7.668,-0.0452
7.669,-0.0402
7.67,-0.0338
7.671,-0.0282
7.672,-0.0212
7.673,-0.0258
7.674,-0.0234
7.675,-0.0164
7.676,-0.008
7.677,-0.0047
7.678,0.0022
7.679,0.0013
7.68,0.0021
7.681,-0.0001
7.682,0.0004
7.683,0.0099
7.684,0.014
7.685,0.0105
7.686,0.0094
7.687,0.0065
7.688,0.0129
7.689,0.0072
7.69,0.011
7.691,0.0156
7.692,0.0125
7.693,0.0098
7.694,0.0101
7.695,0.007
7.696,0.0059
7.697,0.0077
7.698,0.0132
7.699,0.0154
7.7,0.0149
7.701,0.0065
7.702,0.007
7.703,0.0154
7.704,0.0119
7.705,0.029
7.706,0.0361
7.707,0.0295
7.708,0.0154
7.709,0.0063
7.71,-0.002
7.711,-0.0034
7.712,-0.0021
7.713,-0.0011
7.714,-0.0021
7.715,0.0008
7.716,-0.0038
7.717,-0.0078
7.718,-0.0056
7.719,-0.0011
7.72,-0.0005
7.721,-0.0021
7.722,0.0002
7.723,0.0015
7.724,0.0019
7.725,-0.0031
7.726,-0.0012
7.727,0.0032
7.728,0.0059
7.729,0.0035
7.73,0.0039
7.731,0.0011
7.732,0.0015
7.733,0.007
7.734,0.0077
7.735,-0.0012
7.736,-0.0023
7.737,0.001
7.738,0
7.739,-0.0027
7.74,-0.002
7.741,-0.0058
7.742,-0.0025
7.743,-0.0031
7.744,0.0032
7.745,0.0024
7.746,0.0032
7.747,-0.0014
7.748,-0.0071
7.749,-0.0001
7.75,0.0026
7.751,0.0066
7.752,0.016
7.753,0.0182
7.754,0.0092
7.755,0.0103
7.756,0.007
7.757,0.0061
7.758,0.0033
7.759,0.0109
7.76,0.0138
7.761,0.0129
7.762,0.0054
7.763,0.0063
7.764,0.0127
7.765,0.0151
7.766,0.0235
7.767,0.0268
7.768,0.0259
7.769,0.0286
7.77,0.0178
7.771,0.0043
7.772,-0.0159
7.773,-0.0238
7.774,-0.0261
7.775,-0.0327
7.776,-0.0186
7.777,-0.0241
7.778,-0.0225
7.779,-0.0239
7.78,-0.0199
7.781,-0.0188
7.782,-0.0131
7.783,-0.0122
7.784,-0.0058
7.785,-0.0133
7.786,-0.0084
7.787,0.0037
7.788,0.0021
7.789,-0.0054
7.79,-0.0014
7.791,0.0046
7.792,0.0035
7.793,0.0006
7.794,0.0015
7.795,0.0022
7.796,-0.0031
7.797,-0.0064
7.798,-0.002
7.799,-0.0014
7.8,0.001
7.801,0.0052
7.802,0.0035
7.803,0.0072
7.804,0.0076
7.805,0.0145
7.806,0.0096
7.807,0.0123
7.808,0.0248
7.809,0.0449
7.81,0.0315
7.811,0.0147
7.812,-0.0007
7.813,-0.0108
7.814,-0.0126
7.815,-0.0142
7.816,-0.0098
7.817,-0.0111
7.818,-0.01
7.819,-0.0133
7.82,-0.0084
7.821,-0.0075
7.822,-0.0098
7.823,-0.012
7.824,-0.0153
7.825,-0.0058
7.826,-0.0018
7.827,0.0017
7.828,-0.004
7.829,-0.0089
7.83,-0.0043
7.831,-0.0067
7.832,-0.0014
7.833,-0.0009
7.834,-0.0003
7.835,0.0024
7.836,0.0011
7.837,-0.0031
7.838,0.0032
7.839,-0.0009
7.84,0.0013
7.841,0.0088
7.842,0.0098
7.843,0.007
7.844,0.0046
7.845,0.0085
7.846,0.013
7.847,0.0074
7.848,0.0021
7.849,0.0015
7.85,0.001
7.851,-0.0029
7.852,-0.0016
7.853,0.0015
7.854,0.005
7.855,-0.0005
7.856,0.0096
7.857,0.0163
7.858,0.0299
7.859,0.0464
7.86,0.0442
7.861,0.022
7.862,0.0072
7.863,-0.0062
7.864,-0.0183
7.865,-0.0117
7.866,-0.0097
7.867,-0.0188
7.868,-0.0205
7.869,-0.0161
7.87,-0.0093
7.871,-0.0153
7.872,-0.0164
7.873,-0.0135
7.874,-0.0071
7.875,-0.0078
7.876,-0.0162
7.877,-0.0106
7.878,-0.0036
7.879,-0.0027
7.88,-0.0051
7.881,-0.0012
7.882,0.0006
7.883,0.0024
7.884,0.0076
7.885,0.0094
7.886,0.0099
7.887,0.0061
7.888,0.0048
7.889,0.0035
7.89,0.0081
7.891,0.0037
7.892,0.0054
7.893,0.0109
7.894,0.0087
7.895,0.0011
7.896,0.0002
7.897,0.0011
7.898,0.0004
7.899,-0.0034
7.9,-0.0029
7.901,-0.0034
7.902,-0.004
7.903,-0.0016
7.904,-0.0047
7.905,0.0006
7.906,0.001
7.907,0.0059
7.908,0.0121
7.909,0.0246
7.91,0.0337
7.911,0.0255
7.912,0.009
7.913,-0.002
7.914,-0.008
7.915,-0.0062
7.916,-0.0111
7.917,-0.0097
7.918,-0.0084
7.919,-0.0073
7.92,-0.0106
7.921,-0.0175
7.922,-0.0148
7.923,-0.004
7.924,0.0004
7.925,-0.0036
7.926,-0.0071
7.927,-0.0014
7.928,-0.0084
7.929,-0.0075
7.93,-0.0098
7.931,-0.0091
7.932,-0.0058
7.933,0.0024
7.934,0.0057
7.935,0.0028
7.936,0.0092
7.937,0.0116
7.938,0.0138
7.939,0.0035
7.94,-0.01
7.941,-0.0119
7.942,-0.0069
7.943,-0.0025
7.944,-0.0038
7.945,-0.0027
7.946,0.0052
7.947,0.0043
7.948,0.0033
7.949,-0.0007
7.95,-0.0014
7.951,-0.0032
7.952,-0.0051
7.953,0.0033
7.954,0.0118
7.955,-0.0007
7.956,-0.0031
7.957,-0.0047
7.958,0.0057
7.959,0.0125
7.96,0.026
7.961,0.0389
7.962,0.0339
7.963,0.0295
7.964,0.0282
7.965,0.0098
7.966,-0.0036
7.967,-0.0108
7.968,-0.013
7.969,-0.0069
7.97,-0.0161
7.971,-0.021
7.972,-0.0166
7.973,-0.0179
7.974,-0.019
7.975,-0.0201
7.976,-0.021
7.977,-0.0201
7.978,-0.0161
7.979,-0.0153
7.98,-0.0159
7.981,-0.0064
7.982,0.0032
7.983,0.0021
7.984,0.001
7.985,0.0039
7.986,0.0011
7.987,0.0019
7.988,0.0057
7.989,-0.0045
7.99,-0.0001
7.991,0.0011
7.992,0.0072
7.993,0.0039
7.994,0.0048
7.995,0.0057
7.996,0.0017
7.997,0.0024
7.998,0.0043
7.999,0.0037
8,0.0054
8.001,0.0066
8.002,0.0006
8.003,0.0046
8.004,0.013
8.005,0.0098
8.006,0.0088
8.007,0.0057
8.008,-0.0007
8.009,0.0017
8.01,-0.0021
8.011,0.0024
8.012,-0.0007
8.013,0.0077
8.014,0.0262
8.015,0.0184
8.016,0.0063
8.017,-0.0047
8.018,-0.0067
8.019,-0.0086
8.02,-0.0036
8.021,-0.008
8.022,-0.0175
8.023,-0.0164
8.024,-0.0108
8.025,-0.0117
8.026,-0.0089
8.027,-0.0032
8.028,-0.0071
8.029,-0.0104
8.03,-0.0173
8.031,-0.0109
8.032,-0.0133
8.033,-0.008
8.034,-0.0075
8.035,0.0021
8.036,-0.002
8.037,-0.0054
8.038,0.0002
8.039,-0.0109
8.04,0.0087
8.041,0.0008
8.042,-0.0016
8.043,-0.0038
8.044,0.0063
8.045,0.0081
8.046,0.0098
8.047,0.0054
8.048,0.0041
8.049,0.0052
8.05,0.0041
8.051,0.007
8.052,0.0043
8.053,0.0066
8.054,0.0088
8.055,0.0083
8.056,0
8.057,-0.0032
8.058,-0.0045
8.059,-0.0075
8.06,0.0065
8.061,0.0085
8.062,0.0286
8.063,0.0365
8.064,0.0341
8.065,0.0141
8.066,0.0116
8.067,-0.0005
8.068,-0.0071
8.069,-0.0091
8.07,-0.0146
8.071,-0.0195
8.072,-0.021
8.073,-0.0115
8.074,-0.0104
8.075,-0.0093
8.076,-0.0122
8.077,-0.015
8.078,-0.0126
8.079,-0.0087
8.08,-0.0012
8.081,-0.0003
8.082,0.0006
8.083,0.0013
8.084,0.0006
8.085,0.0039
8.086,0.0033
8.087,0.0061
8.088,0.0094
8.089,0.0063
8.09,0.0024
8.091,0.0079
8.092,0.0087
8.093,0.0054
8.094,0.0059
8.095,0.0021
8.096,0.0017
8.097,-0.0025
8.098,0.0059
8.099,0.0048
8.1,-0.0009
8.101,-0.0038
8.102,0.0026
8.103,-0.0031
8.104,-0.0053
8.105,-0.0071
8.106,0.0024
8.107,-0.0016
8.108,-0.0005
8.109,-0.0016
8.11,-0.0049
8.111,0.0103
8.112,0.0125
8.113,0.0266
8.114,0.0358
8.115,0.0275
8.116,0.0171
8.117,0.0048
8.118,-0.0067
8.119,-0.0082
8.12,-0.0177
8.121,-0.0166
8.122,-0.0199
8.123,-0.019
8.124,-0.0236
8.125,-0.0228
8.126,-0.0128
8.127,-0.0141
8.128,-0.0152
8.129,-0.0049
8.13,0.0046
8.131,0.0057
8.132,-0.0045
8.133,-0.0086
8.134,0.0026
8.135,0.0041
8.136,0
8.137,-0.0034
8.138,-0.0001
8.139,-0.0011
8.14,-0.0038
8.141,-0.0045
8.142,-0.0053
8.143,-0.0034
8.144,-0.0078
8.145,-0.0062
8.146,-0.0007
8.147,-0.0014
8.148,0.0061
8.149,0.0011
8.15,0.0057
8.151,0.0081
8.152,0.0119
8.153,0.0114
8.154,0.0119
8.155,0.0103
8.156,0.009
8.157,0.0021
8.158,0.005
8.159,-0.0014
8.16,0.0094
8.161,0.0019
8.162,0.013
8.163,0.0087
8.164,0.0292
8.165,0.044
8.166,0.0361
8.167,0.029
8.168,0.018
8.169,0.0079
8.17,0.0061
8.171,0.011
8.172,0.0154
8.173,0.0167
8.174,0.0107
8.175,0.0028
8.176,0.0057
8.177,-0.0027
8.178,-0.013
8.179,-0.0117
8.18,-0.0201
8.181,-0.0325
8.182,-0.0309
8.183,-0.0353
8.184,-0.0558
8.185,-0.0646
8.186,-0.0725
8.187,-0.0701
8.188,-0.0723
8.189,-0.0582
8.19,-0.049
8.191,-0.0573
8.192,-0.0769
8.193,-0.101
8.194,-0.1041
8.195,-0.1248
8.196,-0.149
8.197,-0.1521
8.198,-0.1254
8.199,-0.1076
8.2,-0.0851
8.201,-0.0584
8.202,-0.0477
8.203,-0.0252
8.204,0.0193
8.205,0.1147
8.206,0.183
8.207,0.1954
8.208,0.2066
8.209,0.1758
8.21,0.1478
8.211,0.1236
8.212,0.1152
8.213,0.1229
8.214,0.1299
8.215,0.1487
8.216,0.1659
8.217,0.1815
8.218,0.2053
8.219,0.1925
8.22,0.157
8.221,0.1236
8.222,0.1108
8.223,0.107
8.224,0.0676
8.225,0.0204
8.226,-0.0113
8.227,-0.0285
8.228,-0.0336
8.229,-0.0289
8.23,-0.0417
8.231,-0.0455
8.232,-0.0562
8.233,-0.0657
8.234,-0.0628
8.235,-0.0653
8.236,-0.0629
8.237,-0.0695
8.238,-0.0715
8.239,-0.0734
8.24,-0.075
8.241,-0.0646
8.242,-0.0714
8.243,-0.0703
8.244,-0.0736
8.245,-0.0686
8.246,-0.0659
8.247,-0.0699
8.248,-0.0661
8.249,-0.0628
8.25,-0.0545
8.251,-0.0488
8.252,-0.0439
8.253,-0.0485
8.254,-0.0444
8.255,-0.0422
8.256,-0.039
8.257,-0.0371
8.258,-0.0287
8.259,-0.0227
8.26,-0.0238
8.261,-0.0188
8.262,-0.0089
8.263,-0.0135
8.264,-0.0011
8.265,0.0044
8.266,0.016
8.267,0.0295
8.268,0.0387
8.269,0.0237
8.27,0.0176
8.271,0.0048
8.272,-0.0067
8.273,-0.0111
8.274,-0.0071
8.275,-0.0036
8.276,-0.0047
8.277,-0.0117
8.278,-0.0108
8.279,-0.0051
8.28,-0.0029
8.281,0.0033
8.282,-0.0042
8.283,-0.0012
8.284,-0.0021
8.285,0.0019
8.286,0.0103
8.287,0.0136
8.288,0.0206
8.289,0.0141
8.29,0.0182
8.291,0.016
8.292,0.0098
8.293,0.0057
8.294,0.005
8.295,0.0096
8.296,0.0114
8.297,0.0063
8.298,0.003
8.299,0.0074
8.3,0.0136
8.301,0.0129
8.302,0.0107
8.303,0.0125
8.304,0.0156
8.305,0.0129
8.306,0.0083
8.307,0.0039
8.308,0.0077
8.309,0.0054
8.31,0.0011
8.311,0.0017
8.312,0.0092
8.313,0.0087
8.314,0.0076
8.315,0.0085
8.316,0.0187
8.317,0.0147
8.318,0.0332
8.319,0.0466
8.32,0.0345
8.321,0.0145
8.322,-0.0042
8.323,-0.0065
8.324,-0.0131
8.325,-0.0152
8.326,-0.017
8.327,-0.0186
8.328,-0.0172
8.329,-0.0131
8.33,-0.012
8.331,-0.0064
8.332,-0.0133
8.333,0.0006
8.334,-0.0014
8.335,-0.0069
8.336,-0.0053
8.337,-0.0097
8.338,-0.0084
8.339,-0.0119
8.34,-0.0108
8.341,-0.0016
8.342,-0.0005
8.343,0.0074
8.344,0.0004
8.345,0.0013
8.346,-0.0027
8.347,-0.002
8.348,-0.0001
8.349,0.0004
8.35,0.0021
8.351,0.0096
8.352,0.0063
8.353,0.0072
8.354,0.0026
8.355,-0.0014
8.356,0.0055
8.357,0.0083
8.358,0.0076
8.359,0.0022
8.36,-0.0023
8.361,-0.0018
8.362,0.0033
8.363,-0.0012
8.364,0.0035
8.365,0.0079
8.366,0.0152
8.367,0.0222
8.368,0.0361
8.369,0.0301
8.37,0.0173
8.371,0.0057
8.372,0.0072
8.373,0.0004
8.374,-0.0056
8.375,-0.0181
8.376,-0.023
8.377,-0.0216
8.378,-0.0148
8.379,-0.0137
8.38,-0.008
8.381,-0.0089
8.382,-0.0043
8.383,-0.0036
8.384,0.0002
8.385,-0.0043
8.386,-0.0049
8.387,-0.0043
8.388,-0.0056
8.389,0.0013
8.39,-0.0016
8.391,-0.0007
8.392,-0.0014
8.393,-0.0036
8.394,-0.0018
8.395,-0.0023
8.396,-0.004
8.397,0.0006
8.398,0.0037
8.399,-0.0014
8.4,-0.0032
8.401,-0.0014
8.402,0.0024
8.403,-0.0009
8.404,-0.0031
8.405,-0.0042
8.406,-0.0031
8.407,0.001
8.408,0.0065
8.409,0.0087
8.41,0.0011
8.411,0.0021
8.412,-0.0043
8.413,-0.0003
8.414,0.0019
8.415,-0.0001
8.416,0.0088
8.417,0.0149
8.418,0.0116
8.419,0.0207
8.42,0.0218
8.421,0.0367
8.422,0.0387
8.423,0.0222
8.424,0.0068
8.425,-0.0032
8.426,-0.0124
8.427,-0.0206
8.428,-0.0162
8.429,-0.0122
8.43,-0.0206
8.431,-0.0217
8.432,-0.0168
8.433,-0.0141
8.434,-0.0148
8.435,-0.0109
8.436,-0.0115
8.437,-0.0109
8.438,-0.0093
8.439,-0.0069
8.44,0
8.441,0.003
8.442,-0.0034
8.443,-0.0042
8.444,-0.002
8.445,-0.0014
8.446,0.0004
8.447,0.0043
8.448,0.0066
8.449,0.007
8.45,0.0008
8.451,-0.0038
8.452,0.0054
8.453,0.0065
8.454,0.0032
8.455,0.0061
8.456,0.0163
8.457,0.0151
8.458,0.0039
8.459,0.0083
8.46,0.007
8.461,0.0035
8.462,0.0002
8.463,0.0011
8.464,0.0057
8.465,-0.0051
8.466,-0.0001
8.467,-0.0045
8.468,0.016
8.469,0.0189
8.47,0.0163
8.471,0.0383
8.472,0.0354
8.473,0.022
8.474,0.0099
8.475,-0.0011
8.476,-0.0111
8.477,-0.0203
8.478,-0.0219
8.479,-0.0205
8.48,-0.0137
8.481,-0.0126
8.482,-0.0159
8.483,-0.013
8.484,-0.0045
8.485,-0.0124
8.486,-0.0133
8.487,-0.0031
8.488,-0.0043
8.489,-0.0054
8.49,-0.0087
8.491,-0.0078
8.492,-0.0087
8.493,0.0021
8.494,-0.0023
8.495,0.0072
8.496,0.0083
8.497,0.0207
8.498,0.0158
8.499,0.0054
8.5,0.0013
8.501,0.0002
8.502,-0.0076
8.503,-0.0047
8.504,-0.0001
8.505,-0.0009
8.506,-0.0016
8.507,-0.0049
8.508,-0.008
8.509,-0.0097
8.51,-0.0093
8.511,-0.0042
8.512,0.0021
8.513,0.0028
8.514,0.0098
8.515,0.0052
8.516,0.0109
8.517,0.0079
8.518,0.0026
8.519,-0.0064
8.52,0.0098
8.521,0.0251
8.522,0.0352
8.523,0.0444
8.524,0.026
8.525,0.0092
8.526,-0.0018
8.527,-0.0119
8.528,-0.0064
8.529,-0.0146
8.53,-0.0131
8.531,-0.0144
8.532,-0.0155
8.533,-0.0212
8.534,-0.0142
8.535,-0.0097
8.536,-0.0104
8.537,-0.0126
8.538,-0.012
8.539,-0.0126
8.54,-0.0142
8.541,-0.0097
8.542,-0.0115
8.543,-0.0031
8.544,-0.002
8.545,-0.0009
8.546,-0.0038
8.547,0.0046
8.548,-0.0011
8.549,-0.0001
8.55,0.0044
8.551,0.0021
8.552,0.0074
8.553,0.0092
8.554,0.0074
8.555,-0.0011
8.556,0.005
8.557,0.0017
8.558,0.0109
8.559,0.0048
8.56,0.0105
8.561,0.0114
8.562,0.003
8.563,0.0041
8.564,0.0032
8.565,0.0004
8.566,0.0011
8.567,0.0019
8.568,-0.0016
8.569,-0.0034
8.57,0.0061
8.571,0.0156
8.572,0.0191
8.573,0.0339
8.574,0.0359
8.575,0.0231
8.576,0.0116
8.577,-0.0049
8.578,-0.0115
8.579,-0.0216
8.58,-0.0197
8.581,-0.0247
8.582,-0.0232
8.583,-0.0109
8.584,0.0006
8.585,-0.013
8.586,-0.0111
8.587,-0.0029
8.588,-0.0073
8.589,-0.006
8.59,-0.0071
8.591,-0.0104
8.592,-0.0075
8.593,-0.0084
8.594,-0.0091
8.595,-0.0069
8.596,-0.0036
8.597,-0.0031
8.598,-0.0014
8.599,0.0061
8.6,0.0028
8.601,0.0057
8.602,0.0048
8.603,0.0024
8.604,0.0063
8.605,0.003
8.606,0.0087
8.607,0.0017
8.608,-0.0011
8.609,-0.0003
8.61,-0.0011
8.611,0.0022
8.612,0.0028
8.613,0.0044
8.614,0.0119
8.615,0.0152
8.616,0.0061
8.617,0.0026
8.618,0.0015
8.619,-0.0045
8.62,0.0024
8.621,0.0088
8.622,0.0196
8.623,0.0121
8.624,0.0217
8.625,0.0182
8.626,0.026
8.627,0.0231
8.628,0.0352
8.629,0.0369
8.63,0.0143
8.631,-0.0082
8.632,-0.017
8.633,-0.0195
8.634,-0.0267
8.635,-0.0245
8.636,-0.0225
8.637,-0.0206
8.638,-0.019
8.639,-0.0205
8.64,-0.0245
8.641,-0.0234
8.642,-0.0131
8.643,-0.0091
8.644,-0.0056
8.645,-0.0089
8.646,-0.008
8.647,-0.0089
8.648,-0.0113
8.649,-0.0075
8.65,-0.0029
8.651,-0.0034
8.652,0.005
8.653,0.0061
8.654,-0.0064
8.655,-0.008
8.656,-0.0005
8.657,0.0008
8.658,0.0043
8.659,0.0099
8.66,0.0008
8.661,-0.0003
8.662,0.003
8.663,0.0079
8.664,0.0125
8.665,0.0182
8.666,0.016
8.667,0.0165
8.668,0.0121
8.669,0.0048
8.67,0.0013
8.671,0.0043
8.672,0.0182
8.673,0.0202
8.674,0.033
8.675,0.038
8.676,0.0455
8.677,0.0304
8.678,0.0083
8.679,-0.0005
8.68,-0.0139
8.681,-0.0115
8.682,-0.0093
8.683,-0.0194
8.684,-0.0175
8.685,-0.0159
8.686,-0.0054
8.687,-0.0122
8.688,-0.0111
8.689,-0.0144
8.69,-0.0095
8.691,0.0008
8.692,-0.0032
8.693,-0.0093
8.694,-0.015
8.695,-0.012
8.696,-0.0093
8.697,-0.0053
8.698,-0.0014
8.699,-0.002
8.7,-0.0051
8.701,0.0033
8.702,0.0022
8.703,-0.0034
8.704,-0.0084
8.705,-0.0093
8.706,-0.0001
8.707,0.0083
8.708,0.0072
8.709,0.0043
8.71,-0.0042
8.711,-0.0009
8.712,0.0041
8.713,-0.0005
8.714,0.0019
8.715,0.0026
8.716,0.0059
8.717,0.0028
8.718,0
8.719,0.0004
8.72,-0.0056
8.721,-0.0053
8.722,-0.006
8.723,0.0055
8.724,0.0239
8.725,0.031
8.726,0.042
8.727,0.044
8.728,0.0165
8.729,0.0127
8.73,0.0021
8.731,-0.0075
8.732,-0.0104
8.733,-0.0238
8.734,-0.0214
8.735,-0.0236
8.736,-0.0256
8.737,-0.0164
8.738,0.0019
8.739,-0.0102
8.74,-0.0124
8.741,-0.0104
8.742,-0.0012
8.743,0.0037
8.744,0.0081
8.745,0.0121
8.746,-0.004
8.747,-0.0018
8.748,-0.0078
8.749,-0.0023
8.75,-0.0073
8.751,-0.0117
8.752,-0.013
8.753,-0.0069
8.754,0.001
8.755,0.0019
8.756,0.0065
8.757,0.0088
8.758,0.011
8.759,0.02
8.76,0.0189
8.761,0.0314
8.762,0.0297
8.763,0.0282
8.764,0.027
8.765,0.0235
8.766,0.0268
8.767,0.0218
8.768,0.0154
8.769,0.003
8.77,-0.0098
8.771,-0.0214
8.772,-0.0353
8.773,-0.0457
8.774,-0.0307
8.775,-0.0408
8.776,-0.0463
8.777,-0.0413
8.778,-0.0428
8.779,-0.0468
8.78,-0.0433
8.781,-0.0604
8.782,-0.0772
8.783,-0.1104
8.784,-0.1151
8.785,-0.1279
8.786,-0.1554
8.787,-0.166
8.788,-0.1435
8.789,-0.1168
8.79,-0.099
8.791,-0.0829
8.792,-0.0622
8.793,-0.038
8.794,0.0107
8.795,0.1158
8.796,0.191
8.797,0.1775
8.798,0.1899
8.799,0.1562
8.8,0.146
8.801,0.118
8.802,0.1095
8.803,0.0865
8.804,0.0934
8.805,0.1123
8.806,0.141
8.807,0.1566
8.808,0.1804
8.809,0.1762
8.81,0.1645
8.811,0.1396
8.812,0.1301
8.813,0.133
8.814,0.0927
8.815,0.0407
8.816,0.0198
8.817,0.001
8.818,-0.0047
8.819,-0.0203
8.82,-0.0346
8.821,-0.0388
8.822,-0.0505
8.823,-0.0529
8.824,-0.0494
8.825,-0.0589
8.826,-0.0441
8.827,-0.0362
8.828,-0.0338
8.829,-0.036
8.83,-0.026
8.831,-0.0534
8.832,-0.073
8.833,-0.0765
8.834,-0.086
8.835,-0.0831
8.836,-0.0805
8.837,-0.0926
8.838,-0.0948
8.839,-0.0847
8.84,-0.0792
8.841,-0.071
8.842,-0.0666
8.843,-0.0516
8.844,-0.0536
8.845,-0.0481
8.846,-0.0432
8.847,-0.0357
8.848,-0.0369
8.849,-0.0285
8.85,-0.0206
8.851,-0.0177
8.852,-0.015
8.853,-0.0093
8.854,-0.0086
8.855,-0.0104
8.856,-0.0073
8.857,-0.0045
8.858,-0.0012
8.859,0.003
8.86,0.0068
8.861,0.0035
8.862,0.0066
8.863,0.0129
8.864,0.0119
8.865,0.0176
8.866,0.0076
8.867,0.0143
8.868,0.0178
8.869,0.0145
8.87,0.0096
8.871,0.016
8.872,0.0152
8.873,0.0145
8.874,0.013
8.875,0.0125
8.876,0.0094
8.877,0.0099
8.878,0.0174
8.879,0.0345
8.88,0.0321
8.881,0.0121
8.882,0.0096
8.883,0.0024
8.884,0.0046
8.885,0.0026
8.886,0.0044
8.887,-0.0038
8.888,-0.0082
8.889,-0.0069
8.89,-0.0034
8.891,-0.0067
8.892,-0.0058
8.893,-0.0067
8.894,-0.0124
8.895,-0.0086
8.896,0.0017
8.897,0.0061
8.898,0.0048
8.899,0.0083
8.9,0.0094
8.901,0.0024
8.902,0.0088
8.903,0.0112
8.904,0.0028
8.905,-0.0005
8.906,-0.0014
8.907,0.0013
8.908,0.0006
8.909,-0.0016
8.91,-0.0091
8.911,0.0041
8.912,0.0022
8.913,0.0105
8.914,0
8.915,0.0041
8.916,0.0052
8.917,0.0041
8.918,0.009
8.919,0.0136
8.92,0.0112
8.921,0.0059
8.922,0.0065
8.923,0.0021
8.924,-0.0053
8.925,-0.0038
8.926,0.0011
8.927,0.0132
8.928,0.0116
8.929,0.016
8.93,0.0147
8.931,0.0182
8.932,0.0352
8.933,0.0376
8.934,0.0442
8.935,0.018
8.936,-0.0069
8.937,-0.01
8.938,-0.0188
8.939,-0.0267
8.94,-0.0291
8.941,-0.0269
8.942,-0.0168
8.943,-0.015
8.944,-0.0199
8.945,-0.0184
8.946,-0.0172
8.947,-0.0137
8.948,-0.0104
8.949,-0.0012
8.95,-0.0001
8.951,-0.0034
8.952,-0.0005
8.953,-0.0032
8.954,-0.0056
8.955,-0.0049
8.956,-0.0016
8.957,0.0015
8.958,-0.0047
8.959,-0.0007
8.96,0.0109
8.961,0.0092
8.962,-0.0012
8.963,0.0055
8.964,0.0021
8.965,0.0054
8.966,-0.0016
8.967,-0.0043
8.968,-0.0003
8.969,-0.0025
8.97,0.0065
8.971,0.0076
8.972,-0.0027
8.973,0.0041
8.974,0.003
8.975,0.0019
8.976,0.0021
8.977,0.003
8.978,0.0094
8.979,0.0101
8.98,0.0217
8.981,0.04
8.982,0.0423
8.983,0.0224
8.984,0.009
8.985,-0.0031
8.986,-0.0053
8.987,0.0008
8.988,-0.0011
8.989,-0.0027
8.99,-0.0102
8.991,-0.0034
8.992,-0.0045
8.993,0.0125
8.994,0.0196
8.995,0.0043
8.996,-0.0098
8.997,-0.019
8.998,-0.0305
8.999,-0.0261
9,-0.0166
9.001,-0.0177
9.002,-0.0166
9.003,-0.0195
9.004,-0.0186
9.005,-0.0146
9.006,-0.0045
9.007,-0.0058
9.008,-0.0069
9.009,-0.0058
9.01,-0.0009
9.011,0.0037
9.012,-0.002
9.013,0.0002
9.014,-0.0003
9.015,-0.0034
9.016,-0.0051
9.017,-0.0047
9.018,0.0022
9.019,0.0052
9.02,0.0061
9.021,0.0054
9.022,0.0032
9.023,0.0077
9.024,0.0033
9.025,0.0039
9.026,0.0026
9.027,0.0079
9.028,0.0019
9.029,0.0143
9.03,0.0125
9.031,0.0308
9.032,0.0528
9.033,0.0499
9.034,0.0312
9.035,0.0044
9.036,-0.0062
9.037,-0.0093
9.038,-0.0122
9.039,-0.0043
9.04,-0.0115
9.041,-0.0181
9.042,-0.0161
9.043,-0.0142
9.044,-0.0159
9.045,-0.0084
9.046,-0.0043
9.047,-0.0104
9.048,-0.0071
9.049,-0.0042
9.05,0.0022
9.051,-0.0053
9.052,-0.0062
9.053,0.0022
9.054,0.0079
