0,0.0011
0.001,0.0016
0.002,0.01
0.003,0.0161
0.004,0.0239
0.005,0.0391
0.006,0.0501
0.007,0.032
0.008,0.01
0.009,-0.0107
0.01,-0.0132
0.011,-0.0156
0.012,-0.0178
0.013,-0.0238
0.014,-0.022
0.015,-0.0204
0.016,-0.0218
0.017,-0.0205
0.018,-0.0145
0.019,-0.0112
0.02,-0.0083
0.021,-0.0055
0.022,-0.0079
0.023,-0.0072
0.024,-0.0066
0.025,-0.0048
0.026,-0.0042
0.027,-0.0019
0.028,-0.0015
0.029,0.0023
0.03,0.0027
0.031,0.004
0.032,0.0067
0.033,0.0011
0.034,0.0018
0.035,0.004
0.036,0.0058
0.037,0.0001
0.038,0.0023
0.039,0.0056
0.04,0.0075
0.041,0.0023
0.042,-0.0022
0.043,-0.0004
0.044,-0.001
0.045,-0.0022
0.046,-0
0.047,0.0011
0.048,-0
0.049,-0.0011
0.05,0.0009
0.051,0.0033
0.052,0.0069
0.053,0.0144
0.054,0.0201
0.055,0.021
0.056,0.0349
0.057,0.0611
0.058,0.0362
0.059,0.0137
0.06,-0.007
0.061,-0.0149
0.062,-0.0173
0.063,-0.0238
0.064,-0.0218
0.065,-0.0273
0.066,-0.0257
0.067,-0.0242
0.068,-0.0174
0.069,-0.0185
0.07,-0.0152
0.071,-0.0123
0.072,-0.0077
0.073,-0.007
0.074,-0.0048
0.075,-0.0053
0.076,-0.0059
0.077,-0.0032
0.078,-0.0008
0.079,0.0005
0.08,0.0001
0.081,0.0005
0.082,0.0016
0.083,-0.003
0.084,0.0016
0.085,0.0022
0.086,0.0084
0.087,0.006
0.088,0.0038
0.089,0.0044
0.09,0.0049
0.091,-0.0002
0.092,-0.0048
0.093,0.0009
0.094,-0.0013
0.095,0.002
0.096,0.0014
0.097,0.0031
0.098,0.0007
0.099,0.0029
0.1,0.0033
0.101,0.0051
0.102,0.0055
0.103,0.0066
0.104,0.0111
0.105,0.0214
0.106,0.0439
0.107,0.047
0.108,0.0203
0.109,0.0025
0.11,-0.0006
0.111,-0.0094
0.112,-0.0068
0.113,0.0003
0.114,-0.0063
0.115,-0.0123
0.116,-0.0178
0.117,-0.0194
0.118,-0.018
0.119,-0.0167
0.12,-0.0107
0.121,-0.014
0.122,-0.011
0.123,-0.0101
0.124,-0.0125
0.125,-0.0132
0.126,-0.0114
0.127,-0.0083
0.128,-0.0032
0.129,-0.0037
0.13,-0.0042
0.131,-0.0037
0.132,-0.0024
0.133,-0.0021
0.134,-0.0024
0.135,-0.0021
0.136,0.002
0.137,0.0044
0.138,0.0031
0.139,0.0042
0.14,0.0091
0.141,0.0029
0.142,0.0053
0.143,0.0031
0.144,0.0036
0.145,0.0031
0.146,0.0047
0.147,0.0051
0.148,0.0047
0.149,0.0027
0.15,-0.0022
0.151,-0.0028
0.152,0.0029
0.153,0.0025
0.154,-0.0028
0.155,0.0075
0.156,0.03
0.157,0.0461
0.158,0.049
0.159,0.0304
0.16,0.0084
0.161,-0.0004
0.162,-0.0138
0.163,-0.0209
0.164,-0.0187
0.165,-0.0167
0.166,-0.0185
0.167,-0.0136
0.168,-0.0151
0.169,-0.0163
0.17,-0.0079
0.171,-0.0022
0.172,-0.0072
0.173,-0.0026
0.174,-0.0019
0.175,-0.0041
0.176,-0.0022
0.177,-0.0053
0.178,-0.0059
0.179,-0.0083
0.18,-0.0041
0.181,-0.0002
0.182,0.0044
0.183,0.0049
0.184,0.0066
0.185,0.0053
0.186,0.0095
0.187,0.0056
0.188,0.0102
0.189,0.0084
0.19,0.0089
0.191,0.0044
0.192,-0.0013
0.193,0.0009
0.194,-0.0024
0.195,-0.0042
0.196,-0.0004
0.197,0.0009
0.198,0.0012
0.199,-0.0042
0.2,-0.0004
0.201,0.0001
0.202,0.0007
0.203,0.0023
0.204,0.004
0.205,0.0053
0.206,0.0011
0.207,0.0095
0.208,0.0256
0.209,0.0322
0.21,0.0261
0.211,0.0426
0.212,0.0448
0.213,0.0428
0.214,0.019
0.215,-0.0035
0.216,-0.0242
0.217,-0.0321
0.218,-0.0345
0.219,-0.0323
0.22,-0.0262
0.221,-0.0281
0.222,-0.0264
0.223,-0.022
0.224,-0.0233
0.225,-0.0268
0.226,-0.0235
0.227,-0.0185
0.228,-0.014
0.229,-0.0132
0.23,-0.0094
0.231,-0.0061
0.232,-0.0055
0.233,-0.0028
0.234,0.0027
0.235,0.0034
0.236,0.0053
0.237,0.0097
0.238,0.0058
0.239,0.0025
0.24,-0.0006
0.241,0.0022
0.242,0.0003
0.243,-0.0015
0.244,0.0031
0.245,0.0064
0.246,0.0045
0.247,0.004
0.248,0.0044
0.249,0.0056
0.25,0.0036
0.251,0.0018
0.252,0.0051
0.253,0.0047
0.254,0.0036
0.255,0.0033
0.256,0.0088
0.257,0.0203
0.258,0.0285
0.259,0.051
0.26,0.0479
0.261,0.0272
0.262,0.0086
0.263,-0.0035
0.264,-0.0057
0.265,-0.0158
0.266,-0.014
0.267,-0.009
0.268,-0.0134
0.269,-0.0094
0.27,-0.0154
0.271,-0.0143
0.272,-0.0114
0.273,-0.0068
0.274,-0.0108
0.275,-0.007
0.276,-0.0024
0.277,-0.0006
0.278,-0.0011
0.279,0.0012
0.28,0.0016
0.281,0.002
0.282,0.0055
0.283,0.0106
0.284,0.0168
0.285,0.0192
0.286,0.0245
0.287,0.0291
0.288,0.0309
0.289,0.0225
0.29,0.0141
0.291,0.0016
0.292,-0
0.293,-0.0015
0.294,-0.011
0.295,-0.0194
0.296,-0.0251
0.297,-0.0321
0.298,-0.046
0.299,-0.0561
0.3,-0.0506
0.301,-0.0522
0.302,-0.0537
0.303,-0.055
0.304,-0.0515
0.305,-0.0482
0.306,-0.0627
0.307,-0.0617
0.308,-0.059
0.309,-0.0714
0.31,-0.0623
0.311,-0.0574
0.312,-0.0649
0.313,-0.0661
0.314,-0.065
0.315,-0.0661
0.316,-0.0652
0.317,-0.0513
0.318,-0.0211
0.319,0.0439
0.32,0.1466
0.321,0.1602
0.322,0.1726
0.323,0.1615
0.324,0.1307
0.325,0.1027
0.326,0.0774
0.327,0.0697
0.328,0.0628
0.329,0.0565
0.33,0.0738
0.331,0.0789
0.332,0.0932
0.333,0.106
0.334,0.1098
0.335,0.1063
0.336,0.1032
0.337,0.1003
0.338,0.0869
0.339,0.0701
0.34,0.0369
0.341,0.0036
0.342,-0.0092
0.343,-0.0053
0.344,-0.0019
0.345,-0.0114
0.346,-0.0321
0.347,-0.0454
0.348,-0.0478
0.349,-0.05
0.35,-0.0601
0.351,-0.0583
0.352,-0.0533
0.353,-0.0577
0.354,-0.0645
0.355,-0.068
0.356,-0.0647
0.357,-0.0465
0.358,-0.0475
0.359,-0.039
0.36,-0.0493
0.361,-0.0533
0.362,-0.0594
0.363,-0.0423
0.364,-0.0156
0.365,-0.0121
0.366,-0.0216
0.367,-0.0365
0.368,-0.0443
0.369,-0.0467
0.37,-0.0445
0.371,-0.0385
0.372,-0.0403
0.373,-0.0321
0.374,-0.0306
0.375,-0.0293
0.376,-0.0304
0.377,-0.0248
0.378,-0.0198
0.379,-0.0134
0.38,-0.0158
0.381,-0.0151
0.382,-0.0118
0.383,-0.0061
0.384,-0.0008
0.385,0.0038
0.386,0.0056
0.387,0.0073
0.388,0.0139
0.389,0.0166
0.39,0.0241
0.391,0.015
0.392,0.0115
0.393,0.0058
0.394,0.0067
0.395,0.0077
0.396,0.0133
0.397,0.0126
0.398,0.0131
0.399,0.0088
0.4,0.0126
0.401,0.0122
0.402,0.0119
0.403,0.0122
0.404,0.0133
0.405,0.0137
0.406,0.0157
0.407,0.0115
0.408,0.0062
0.409,0.0106
0.41,0.0111
0.411,0.0186
0.412,0.0357
0.413,0.0576
0.414,0.0428
0.415,0.0241
0.416,0.017
0.417,0.0192
0.418,0.0333
0.419,0.0205
0.42,0.0055
0.421,-0.0086
0.422,-0.0178
0.423,-0.0227
0.424,-0.0242
0.425,-0.0229
0.426,-0.0264
0.427,-0.0253
0.428,-0.0244
0.429,-0.0141
0.43,-0.0074
0.431,-0.0085
0.432,-0.0118
0.433,-0.0108
0.434,-0.0099
0.435,-0.0024
0.436,-0.0015
0.437,-0.0042
0.438,-0.0002
0.439,-0.001
0.44,0.0053
0.441,0.0012
0.442,0.002
0.443,0.0014
0.444,0.0009
0.445,-0.0008
0.446,0.0016
0.447,0.0029
0.448,0.0067
0.449,0.0064
0.45,0.0051
0.451,0.0023
0.452,0.0073
0.453,0.0027
0.454,0.0045
0.455,0.0051
0.456,0.0097
0.457,0.0078
0.458,0.0073
0.459,0.0069
0.46,0.0023
0.461,0.0119
0.462,0.0131
0.463,0.0316
0.464,0.0342
0.465,0.0221
0.466,0.0155
0.467,0.0055
0.468,-0.0037
0.469,-0.0086
0.47,-0.0101
0.471,-0.0141
0.472,-0.0152
0.473,-0.0141
0.474,-0.0151
0.475,-0.0123
0.476,-0.013
0.477,-0.0152
0.478,-0.0134
0.479,-0.0103
0.48,-0.0108
0.481,-0.0085
0.482,-0.0081
0.483,-0.0085
0.484,-0.0059
0.485,-0.0063
0.486,-0.0048
0.487,-0.0006
0.488,0.0038
0.489,0.0022
0.49,0.0025
0.491,0.0012
0.492,0.0001
0.493,0.0027
0.494,0.0016
0.495,0.0031
0.496,-0.0006
0.497,0.0007
0.498,0.0003
0.499,-0.0008
0.5,-0.0004
0.501,0.0036
0.502,0.004
0.503,0.0036
0.504,0.0056
0.505,0.0007
0.506,-0.0039
0.507,-0.0008
0.508,0.0009
0.509,0.0022
0.51,0.0018
0.511,0.0005
0.512,0.0067
0.513,0.0207
0.514,0.0428
0.515,0.0516
0.516,0.0329
0.517,0.0109
0.518,-0.0039
0.519,-0.0118
0.52,-0.0189
0.521,-0.0167
0.522,-0.0227
0.523,-0.0173
0.524,-0.0189
0.525,-0.0174
0.526,-0.0162
0.527,-0.0127
0.528,-0.0116
0.529,-0.0086
0.53,-0.0077
0.531,-0.0053
0.532,-0.0061
0.533,-0.0042
0.534,-0.0061
0.535,-0.0066
0.536,-0.0053
0.537,-0.0011
0.538,0.004
0.539,0.0073
0.54,0.0029
0.541,-0.0033
0.542,-0.0057
0.543,-0.005
0.544,-0.0004
0.545,0.0053
0.546,-0.0048
0.547,-0.0035
0.548,0.0049
0.549,-0.0008
0.55,0.0062
0.551,0.0053
0.552,0.0077
0.553,0.0023
0.554,0.0029
0.555,0.0111
0.556,0.0078
0.557,0.0049
0.558,0.0022
0.559,-0.0002
0.56,-0.0041
0.561,0.0003
0.562,0.0022
0.563,0.0117
0.564,0.0077
0.565,0.0188
0.566,0.0232
0.567,0.0382
0.568,0.0483
0.569,0.0465
0.57,0.0216
0.571,-0.0033
0.572,-0.0129
0.573,-0.0158
0.574,-0.0237
0.575,-0.026
0.576,-0.0238
0.577,-0.0218
0.578,-0.02
0.579,-0.0216
0.58,-0.0202
0.581,-0.0162
0.582,-0.0101
0.583,-0.009
0.584,-0.0041
0.585,-0.0068
0.586,-0.0044
0.587,-0.0022
0.588,-0.0004
0.589,0.0053
0.59,-0
0.591,-0.0019
0.592,-0.0013
0.593,-0.0008
0.594,-0.0004
0.595,0.0009
0.596,0.0029
0.597,0.0011
0.598,-0.0015
0.599,0.0018
0.6,0.0014
0.601,0.0025
0.602,0.0044
0.603,0.0069
0.604,0.0115
0.605,0.019
0.606,0.012
0.607,0.0075
0.608,0.0018
0.609,0.004
0.61,-0.0022
0.611,0.0001
0.612,-0.0019
0.613,-0.0057
0.614,0.0018
0.615,0.0088
0.616,0.0172
0.617,0.032
0.618,0.0421
0.619,0.0366
0.62,0.0183
0.621,0.0014
0.622,-0.0052
0.623,-0.0152
0.624,-0.0171
0.625,-0.0187
0.626,-0.0231
0.627,-0.0244
0.628,-0.0233
0.629,-0.02
0.63,-0.0171
0.631,-0.0107
0.632,-0.0114
0.633,-0.0183
0.634,-0.0081
0.635,-0.0094
0.636,-0.0033
0.637,0.0023
0.638,0.0033
0.639,-0.0013
0.64,-0.0037
0.641,-0.0044
0.642,-0.0026
0.643,0.0005
0.644,-0
0.645,0.0033
0.646,0.0036
0.647,0.004
0.648,0.0029
0.649,0.0025
0.65,0.004
0.651,0.0047
0.652,0.0007
0.653,-0.0021
0.654,0.0025
0.655,0.0044
0.656,0.0027
0.657,0.0014
0.658,-0.0008
0.659,-0.0035
0.66,0.0007
0.661,0.0012
0.662,0.0078
0.663,0.0033
0.664,0.006
0.665,0.01
0.666,0.0153
0.667,0.0229
0.668,0.038
0.669,0.049
0.67,0.0309
0.671,0.0141
0.672,-0.0013
0.673,-0.0074
0.674,-0.0129
0.675,-0.0178
0.676,-0.0222
0.677,-0.0235
0.678,-0.02
0.679,-0.0211
0.68,-0.022
0.681,-0.0136
0.682,-0.0125
0.683,-0.0134
0.684,-0.0107
0.685,-0.0083
0.686,-0.0061
0.687,-0.0028
0.688,-0.0022
0.689,-0.005
0.69,-0.0074
0.691,-0.0032
0.692,-0.0004
0.693,0.0009
0.694,-0.0013
0.695,0.0014
0.696,0.0033
0.697,0.0022
0.698,0.0014
0.699,0.0016
0.7,-0.0019
0.701,0.0003
0.702,0.0014
0.703,0.0049
0.704,0.0045
0.705,0.0073
0.706,0.0047
0.707,-0.0008
0.708,0.0045
0.709,0.0078
0.71,0.0047
0.711,0.0031
0.712,0.0018
0.713,-0.0013
0.714,0.0011
0.715,-0.001
0.716,0.0047
0.717,-0.0044
0.718,0.0141
0.719,0.0435
0.72,0.0318
0.721,0.0069
0.722,-0.0026
0.723,-0.0055
0.724,-0.0081
0.725,-0.0105
0.726,-0.0215
0.727,-0.0154
0.728,-0.0173
0.729,-0.0156
0.73,-0.0141
0.731,-0.0101
0.732,-0.0066
0.733,-0.0099
0.734,-0.009
0.735,-0.0081
0.736,-0.0057
0.737,0.0012
0.738,0.0003
0.739,-0.0021
0.74,0.0001
0.741,-0.0032
0.742,-0.0037
0.743,-0.0021
0.744,0.0025
0.745,-0.0006
0.746,-0.0022
0.747,0.0011
0.748,0.0014
0.749,0.0011
0.75,0.0022
0.751,-0.0019
0.752,0.0005
0.753,0.0036
0.754,-0.0026
0.755,0.002
0.756,0.0077
0.757,0.0038
0.758,0.0005
0.759,-0
0.76,-0.0006
0.761,-0.001
0.762,-0.0022
0.763,0.0005
0.764,0.0031
0.765,0.0033
0.766,0.0007
0.767,-0.0013
0.768,0.0029
0.769,0.0124
0.77,0.0302
0.771,0.0326
0.772,0.0479
0.773,0.0499
0.774,0.0335
0.775,0.0091
0.776,-0.0134
0.777,-0.0222
0.778,-0.0248
0.779,-0.0224
0.78,-0.029
0.781,-0.031
0.782,-0.0292
0.783,-0.0242
0.784,-0.0257
0.785,-0.0216
0.786,-0.0182
0.787,-0.0103
0.788,-0.0094
0.789,-0.0085
0.79,-0.0092
0.791,-0.0039
0.792,-0.0044
0.793,-0.0039
0.794,-0
0.795,0.0003
0.796,-0.0028
0.797,-0
0.798,0.0025
0.799,0.0007
0.8,0.0009
0.801,0.0045
0.802,0.0033
0.803,0.0064
0.804,0.0036
0.805,0.004
0.806,0.0058
0.807,0.0012
0.808,-0.0033
0.809,0.0036
0.81,0.0045
0.811,0.0053
0.812,0.006
0.813,-0.0002
0.814,0.0022
0.815,0.0044
0.816,0.0011
0.817,-0.0008
0.818,0.0088
0.819,0.021
0.82,0.0393
0.821,0.0465
0.822,0.0487
0.823,0.0225
0.824,0.0047
0.825,-0.0048
0.826,-0.0136
0.827,-0.0215
0.828,-0.0238
0.829,-0.026
0.83,-0.016
0.831,-0.0141
0.832,-0.0125
0.833,-0.0169
0.834,-0.0129
0.835,-0.0118
0.836,-0.0129
0.837,-0.0079
0.838,-0.0088
0.839,-0.0048
0.84,-0.001
0.841,-0.0028
0.842,-0.0059
0.843,-0.0021
0.844,0.0012
0.845,0.0044
0.846,0.0005
0.847,0.0038
0.848,0.0034
0.849,0.008
0.85,0.0175
0.851,0.0135
0.852,0.01
0.853,0.0089
0.854,0.004
0.855,-0.0024
0.856,-0.0048
0.857,0.0005
0.858,-0.0057
0.859,-0.0064
0.86,-0.0026
0.861,-0.0021
0.862,0.0011
0.863,-0.0017
0.864,-0.0004
0.865,-0.0055
0.866,-0.005
0.867,-0.0041
0.868,-0.001
0.869,0.0075
0.87,0.0135
0.871,0.0305
0.872,0.0525
0.873,0.0437
0.874,0.0304
0.875,0.0084
0.876,-0.0064
0.877,-0.0143
0.878,-0.0119
0.879,-0.0185
0.88,-0.0165
0.881,-0.022
0.882,-0.0171
0.883,-0.0185
0.884,-0.0118
0.885,-0.0152
0.886,-0.0141
0.887,-0.0092
0.888,-0.0119
0.889,-0.0063
0.89,-0.0024
0.891,-0.0006
0.892,-0.0024
0.893,-0.0008
0.894,-0.0032
0.895,-0.0028
0.896,-0
0.897,0.0018
0.898,0.0036
0.899,-0.001
0.9,-0.0028
0.901,-0.0022
0.902,-0.0017
0.903,-0.003
0.904,0.0012
0.905,-0.0015
0.906,0.0009
0.907,0.0051
0.908,0.0078
0.909,0.0066
0.91,0.0126
0.911,0.0086
0.912,0.0078
0.913,0.0016
0.914,0.0023
0.915,0.0016
0.916,-0.0017
0.917,0.0001
0.918,0.0055
0.919,0.006
0.92,0.0135
0.921,0.0192
0.922,0.0324
0.923,0.0489
0.924,0.0467
0.925,0.0205
0.926,-0.0044
0.927,-0.0075
0.928,-0.0163
0.929,-0.0189
0.93,-0.0213
0.931,-0.0191
0.932,-0.0171
0.933,-0.0226
0.934,-0.0209
0.935,-0.0194
0.936,-0.0182
0.937,-0.0171
0.938,-0.0114
0.939,-0.0022
0.94,-0.0033
0.941,-0
0.942,-0.005
0.943,-0.0041
0.944,-0.0064
0.945,-0.0011
0.946,-0.0017
0.947,0.0014
0.948,-0.0013
0.949,0.002
0.95,-0.0002
0.951,-0.0013
0.952,0.0044
0.953,0.0084
0.954,0.0014
0.955,0.0042
0.956,0.0001
0.957,0.004
0.958,0.0022
0.959,0.0016
0.96,0.0033
0.961,0.0036
0.962,0.0033
0.963,0.0036
0.964,0.004
0.965,0.0058
0.966,0.0012
0.967,-0.0033
0.968,-0.0015
0.969,0.0062
0.97,0.0078
0.971,0.0144
0.972,0.0153
0.973,0.0278
0.974,0.0479
0.975,0.0346
0.976,0.0126
0.977,0.0038
0.978,-0.0041
0.979,-0.0112
0.98,-0.0134
0.981,-0.0194
0.982,-0.0213
0.983,-0.0196
0.984,-0.0152
0.985,-0.0112
0.986,-0.0123
0.987,-0.0134
0.988,-0.0085
0.989,-0.0112
0.99,-0.0088
0.991,-0.0066
0.992,-0.0048
0.993,-0.003
0.994,-0.0024
0.995,0.0009
0.996,-0.0022
0.997,-0.0061
0.998,-0.0037
0.999,-0.0015
1,-0.0026
1.001,-0
1.002,-0.0033
1.003,0.0029
1.004,0.0056
1.005,-0
1.006,0.0022
1.007,0.0067
1.008,0.0062
1.009,0.0023
1.01,0.0047
1.011,0.0069
1.012,0.008
1.013,0.0069
1.014,0.0036
1.015,0.0025
1.016,0.0007
1.017,0.0003
1.018,0.0023
1.019,-0.0019
1.02,0.0018
1.021,0.0049
1.022,0.0044
1.023,0.0119
1.024,0.0243
1.025,0.026
1.026,0.0274
1.027,0.0424
1.028,0.0445
1.029,0.039
1.03,0.0174
1.031,-0.0094
1.032,-0.0129
1.033,-0.029
1.034,-0.0319
1.035,-0.0293
1.036,-0.0317
1.037,-0.0295
1.038,-0.0275
1.039,-0.022
1.04,-0.0237
1.041,-0.0193
1.042,-0.0152
1.043,-0.0118
1.044,-0.0107
1.045,-0.0097
1.046,-0.0125
1.047,-0.005
1.048,-0.0041
1.049,-0.0013
1.05,-0.0006
1.051,0.0016
1.052,0.0011
1.053,0.008
1.054,0.0016
1.055,0.0023
1.056,0.0031
1.057,0.0049
1.058,0.0018
1.059,0.0045
1.06,0.0022
1.061,0.0044
1.062,0.0106
1.063,0.0042
1.064,0.0034
1.065,0.0042
1.066,0.0023
1.067,0.0042
1.068,0.0036
1.069,0.0049
1.07,0.0007
1.071,0.0018
1.072,0.0069
1.073,0.0172
1.074,0.0216
1.075,0.0393
1.076,0.0562
1.077,0.0496
1.078,0.0274
1.079,0.0067
1.08,-0.0011
1.081,-0.0083
1.082,-0.0193
1.083,-0.0132
1.084,-0.0187
1.085,-0.0138
1.086,-0.0152
1.087,-0.014
1.088,-0.0174
1.089,-0.0096
1.09,-0.0066
1.091,-0.0151
1.092,-0.014
1.093,-0.009
1.094,-0.0026
1.095,0.0066
1.096,0.01
1.097,0.0044
1.098,-0.0006
1.099,-0.0033
1.1,-0.0041
1.101,-0.0079
1.102,-0.0074
1.103,-0.0042
1.104,-0.0037
1.105,-0.0024
1.106,-0.0046
1.107,-0.0035
1.108,-0.0032
1.109,0.0016
1.11,-0.0002
1.111,-0.0019
1.112,0.0014
1.113,0.0018
1.114,0.0007
1.115,-0.0028
1.116,0.0023
1.117,0.0029
1.118,0.0011
1.119,0.0016
1.12,0.0029
1.121,0.0071
1.122,0.0003
1.123,0.0009
1.124,0.0084
1.125,0.0186
1.126,0.0282
1.127,0.0393
1.128,0.0379
1.129,0.0229
1.13,0.0168
1.131,0.0003
1.132,-0.0107
1.133,-0.0207
1.134,-0.0262
1.135,-0.0312
1.136,-0.0237
1.137,-0.0196
1.138,-0.0162
1.139,-0.0083
1.14,-0.0174
1.141,-0.009
1.142,-0.0101
1.143,-0.0092
1.144,-0.0083
1.145,-0.0075
1.146,-0.0083
1.147,-0.0008
1.148,-0.0077
1.149,-0.0068
1.15,-0.0028
1.151,-0.0021
1.152,0.0025
1.153,0.0044
1.154,0.0027
1.155,0.0014
1.156,-0.0008
1.157,0.002
1.158,0.0031
1.159,0.002
1.16,-0.0026
1.161,0.0049
1.162,0.002
1.163,0.0029
1.164,0.0069
1.165,0.0077
1.166,-0.0026
1.167,-0.0011
1.168,0.0001
1.169,0.0036
1.17,0.0069
1.171,0.004
1.172,0.0067
1.173,0.0077
1.174,0.0168
1.175,0.028
1.176,0.0415
1.177,0.0653
1.178,0.0684
1.179,0.0536
1.18,0.0349
1.181,0.0181
1.182,0.0115
1.183,0.0014
1.184,-0.0114
1.185,-0.0163
1.186,-0.0149
1.187,-0.0189
1.188,-0.0301
1.189,-0.0405
1.19,-0.0473
1.191,-0.0634
1.192,-0.0744
1.193,-0.0683
1.194,-0.0592
1.195,-0.0542
1.196,-0.0557
1.197,-0.068
1.198,-0.0696
1.199,-0.0801
1.2,-0.0896
1.201,-0.1007
1.202,-0.1022
1.203,-0.1117
1.204,-0.1083
1.205,-0.1072
1.206,-0.092
1.207,-0.0676
1.208,-0.0645
1.209,-0.0557
1.21,-0.0154
1.211,0.0597
1.212,0.1314
1.213,0.1594
1.214,0.1847
1.215,0.177
1.216,0.1562
1.217,0.1499
1.218,0.1327
1.219,0.1171
1.22,0.1029
1.221,0.1071
1.222,0.1109
1.223,0.1287
1.224,0.1344
1.225,0.1439
1.226,0.1646
1.227,0.1512
1.228,0.1583
1.229,0.1605
1.23,0.1424
1.231,0.106
1.232,0.0272
1.233,-0.0064
1.234,-0.0167
1.235,-0.026
1.236,-0.0345
1.237,-0.0422
1.238,-0.063
1.239,-0.0693
1.24,-0.0749
1.241,-0.0801
1.242,-0.0848
1.243,-0.072
1.244,-0.0758
1.245,-0.0793
1.246,-0.0824
1.247,-0.0795
1.248,-0.0661
1.249,-0.0638
1.25,-0.066
1.251,-0.0639
1.252,-0.0694
1.253,-0.0544
1.254,-0.0564
1.255,-0.0546
1.256,-0.053
1.257,-0.0515
1.258,-0.0528
1.259,-0.0517
1.26,-0.0414
1.261,-0.0346
1.262,-0.0357
1.263,-0.0279
1.264,-0.0187
1.265,-0.0176
1.266,-0.0165
1.267,-0.0174
1.268,-0.0165
1.269,-0.0074
1.27,-0.0085
1.271,-0.0052
1.272,-0.0042
1.273,0.0003
1.274,0.0044
1.275,0.0018
1.276,0.0025
1.277,0.0128
1.278,0.0263
1.279,0.0465
1.28,0.0598
1.281,0.0575
1.282,0.0287
1.283,0.017
1.284,0.0064
1.285,-0.0097
1.286,-0.0068
1.287,-0.0147
1.288,-0.0123
1.289,-0.0145
1.29,-0.0085
1.291,-0.003
1.292,-0.0079
1.293,-0.0064
1.294,-0.0052
1.295,-0.0041
1.296,0.0016
1.297,0.0025
1.298,0.0016
1.299,0.004
1.3,0.0047
1.301,0.0029
1.302,0.0111
1.303,0.0055
1.304,0.0064
1.305,0.0073
1.306,0.0148
1.307,0.0078
1.308,0.0069
1.309,0.0045
1.31,0.0084
1.311,0.0066
1.312,0.0047
1.313,0.0086
1.314,0.0089
1.315,0.0058
1.316,0.0062
1.317,0.0044
1.318,0.0055
1.319,0.01
1.32,0.0082
1.321,0.0077
1.322,0.0082
1.323,0.0078
1.324,0.0027
1.325,0.0033
1.326,-0.0004
1.327,0.0014
1.328,0.0098
1.329,0.0283
1.33,0.0525
1.331,0.0494
1.332,0.0287
1.333,0.01
1.334,-0.0068
1.335,-0.0134
1.336,-0.0154
1.337,-0.0136
1.338,-0.0152
1.339,-0.0167
1.34,-0.0072
1.341,0.0012
1.342,0.0069
1.343,-0
1.344,-0.0028
1.345,-0.0068
1.346,-0.0107
1.347,-0.014
1.348,-0.0134
1.349,-0.0129
1.35,-0.0105
1.351,-0.0063
1.352,-0.0024
1.353,-0.0011
1.354,-0.0081
1.355,-0.0052
1.356,0.0012
1.357,0.0005
1.358,-0.0002
1.359,-0.0008
1.36,0.0049
1.361,0.0042
1.362,0.0023
1.363,-0.0008
1.364,0.0031
1.365,0.0027
1.366,-0.0015
1.367,0.0001
1.368,0.0014
1.369,0.0036
1.37,0.0033
1.371,0.0036
1.372,0.0047
1.373,0.0027
1.374,0.0025
1.375,0.0038
1.376,0.0003
1.377,0.0018
1.378,-0.0015
1.379,0.0055
1.38,0.0104
1.381,0.0207
1.382,0.0302
1.383,0.0437
1.384,0.0492
1.385,0.0443
1.386,0.0218
1.387,0.0056
1.388,-0.0092
1.389,-0.0171
1.39,-0.0194
1.391,-0.0216
1.392,-0.0237
1.393,-0.0292
1.394,-0.0275
1.395,-0.026
1.396,-0.0248
1.397,-0.0213
1.398,-0.0156
1.399,-0.0185
1.4,-0.014
1.401,-0.0132
1.402,-0.011
1.403,-0.0048
1.404,-0.0041
1.405,0.0012
1.406,-0.0021
1.407,-0.0002
1.408,0.0036
1.409,0.0003
1.41,0.0007
1.411,0.0034
1.412,0.006
1.413,0.0064
1.414,0.0056
1.415,0.0069
1.416,0.0045
1.417,0.0031
1.418,0.0018
1.419,-0.0006
1.42,0.0034
1.421,0.0062
1.422,0.0066
1.423,0.0023
1.424,0.0051
1.425,0.0038
1.426,-0.0004
1.427,0.0023
1.428,-0.0019
1.429,-0.0032
1.43,0.0038
1.431,0.0047
1.432,0.0186
1.433,0.0448
1.434,0.0342
1.435,0.0181
1.436,-0.0026
1.437,-0.0052
1.438,-0.0123
1.439,-0.0101
1.44,-0.0121
1.441,-0.0103
1.442,-0.0119
1.443,-0.0163
1.444,-0.0151
1.445,-0.0185
1.446,-0.0152
1.447,-0.0123
1.448,-0.0077
1.449,-0.007
1.45,-0.0123
1.451,-0.009
1.452,-0.0021
1.453,0.0025
1.454,0.0001
1.455,-0.0052
1.456,-0.0019
1.457,-0
1.458,-0.0017
1.459,-0.0013
1.46,-0
1.461,0.0062
1.462,0.0034
1.463,0.0011
1.464,0.0033
1.465,-0
1.466,0.0095
1.467,-0
1.468,0.0034
1.469,0.0023
1.47,0.0033
1.471,0.0023
1.472,0.0098
1.473,0.0069
1.474,0.006
1.475,0.002
1.476,0.0027
1.477,0.0022
1.478,-0.001
1.479,0.0003
1.48,0.0031
1.481,0.0106
1.482,0.0139
1.483,0.0291
1.484,0.0534
1.485,0.0503
1.486,0.0236
1.487,0.0058
1.488,-0.0037
1.489,-0.0125
1.49,-0.0204
1.491,-0.0227
1.492,-0.0205
1.493,-0.0266
1.494,-0.0211
1.495,-0.0162
1.496,-0.0205
1.497,-0.0165
1.498,-0.013
1.499,-0.0119
1.5,-0.007
1.501,-0.0024
1.502,-0
1.503,-0.0022
1.504,-0.0017
1.505,-0.0011
1.506,-0.0039
1.507,-0.0052
1.508,-0.001
1.509,-0.0048
1.51,-0.0035
1.511,0.0007
1.512,0.0001
1.513,0.0014
1.514,0.0011
1.515,0.0066
1.516,0.0027
1.517,-0.0006
1.518,0.0025
1.519,0.0053
1.52,0.0056
1.521,0.0014
1.522,0.0053
1.523,-0.0022
1.524,0.0011
1.525,0.002
1.526,0.0029
1.527,-0.0011
1.528,-0.0004
1.529,0.0001
1.53,0.0011
1.531,-0.0021
1.532,0.0064
1.533,0.0175
1.534,0.028
1.535,0.0348
1.536,0.0459
1.537,0.0234
1.538,0.0139
1.539,-0.001
1.54,-0.0088
1.541,-0.016
1.542,-0.0226
1.543,-0.0205
1.544,-0.0224
1.545,-0.0207
1.546,-0.0193
1.547,-0.0205
1.548,-0.0216
1.549,-0.0205
1.55,-0.0136
1.551,-0.0108
1.552,-0.0085
1.553,-0.0032
1.554,-0.005
1.555,-0.0094
1.556,-0.0066
1.557,-0.0042
1.558,0.0027
1.559,0.0018
1.56,0.0027
1.561,0.0003
1.562,0.0011
1.563,-0.0008
1.564,-0.0002
1.565,0.0003
1.566,-0
1.567,-0.0052
1.568,-0.0006
1.569,0.0051
1.57,0.0058
1.571,0.0091
1.572,0.0086
1.573,0.0047
1.574,0.008
1.575,0.0111
1.576,0.0073
1.577,0.004
1.578,-0.0002
1.579,-0.0008
1.58,-0.0004
1.581,0.0033
1.582,0.0011
1.583,-0.0028
1.584,-0.0032
1.585,-0.0063
1.586,-0
1.587,0.0139
1.588,0.0159
1.589,0.0104
1.59,0.0186
1.591,0.023
1.592,0.0298
1.593,0.0483
1.594,0.0457
1.595,0.0238
1.596,0.0031
1.597,-0.0156
1.598,-0.018
1.599,-0.0246
1.6,-0.0266
1.601,-0.0284
1.602,-0.0334
1.603,-0.0229
1.604,-0.0189
1.605,-0.0154
1.606,-0.0097
1.607,-0.0088
1.608,-0.0097
1.609,-0.0121
1.61,-0.0129
1.611,-0.0123
1.612,-0.0092
1.613,-0.0119
1.614,-0.0044
1.615,-0.0033
1.616,-0.0024
1.617,-0.007
1.618,0.0022
1.619,0.0056
1.62,0.0045
1.621,0.0075
1.622,0.0029
1.623,0.0069
1.624,0.0062
1.625,0.0029
1.626,-0.0041
1.627,0.0023
1.628,-0
1.629,0.0007
1.63,0.0025
1.631,0.0031
1.632,0.0018
1.633,0.0056
1.634,0.008
1.635,0.015
1.636,0.0261
1.637,0.0337
1.638,0.0404
1.639,0.0243
1.64,0.0487
1.641,0.0456
1.642,0.0249
1.643,0.0007
1.644,-0.0154
1.645,-0.0242
1.646,-0.0268
1.647,-0.0339
1.648,-0.0273
1.649,-0.0293
1.65,-0.0238
1.651,-0.0288
1.652,-0.0273
1.653,-0.0205
1.654,-0.0171
1.655,-0.0114
1.656,-0.0044
1.657,-0.0035
1.658,-0.0028
1.659,-0.0066
1.66,-0.0072
1.661,-0.0053
1.662,0.0031
1.663,0.0042
1.664,0.0075
1.665,0.0066
1.666,0.002
1.667,-0.0021
1.668,0.0001
1.669,0.0047
1.67,0.0053
1.671,0.0058
1.672,0.0034
1.673,0.0022
1.674,0.0049
1.675,0.0023
1.676,0.002
1.677,0.004
1.678,0.0071
1.679,0.0051
1.68,-0.0006
1.681,-0.0013
1.682,0.0009
1.683,-0.0004
1.684,0.0014
1.685,0.0109
1.686,0.0177
1.687,0.0338
1.688,0.036
1.689,0.03
1.69,0.0318
1.691,0.0302
1.692,0.0287
1.693,0.0247
1.694,0.0186
1.695,0.0243
1.696,0.0313
1.697,0.0304
1.698,0.0179
1.699,-0.0096
1.7,-0.037
1.701,-0.0405
1.702,-0.0436
1.703,-0.0407
1.704,-0.0433
1.705,-0.0361
1.706,-0.0295
1.707,-0.0275
1.708,-0.022
1.709,-0.0204
1.71,-0.0189
1.711,-0.0149
1.712,-0.0088
1.713,-0.0099
1.714,-0.007
1.715,-0.0061
1.716,0.0014
1.717,-0.0035
1.718,-0.0008
1.719,0.0016
1.72,0.0009
1.721,0.0042
1.722,0.0073
1.723,0.0089
1.724,0.0066
1.725,0.0044
1.726,0.0033
1.727,0.0089
1.728,0.0066
1.729,0.0058
1.73,0.0064
1.731,0.0045
1.732,0.0062
1.733,0.0066
1.734,0.0077
1.735,0.008
1.736,0.0142
1.737,0.0282
1.738,0.0423
1.739,0.0624
1.74,0.049
1.741,0.0271
1.742,0.0064
1.743,-0.0015
1.744,-0.0136
1.745,-0.0202
1.746,-0.0182
1.747,-0.02
1.748,-0.0183
1.749,-0.0227
1.75,-0.0215
1.751,-0.018
1.752,-0.0169
1.753,-0.0099
1.754,-0.009
1.755,-0.0083
1.756,-0.0044
1.757,-0.0039
1.758,0.0005
1.759,-0.0057
1.76,-0.0033
1.761,-0.0026
1.762,-0.0008
1.763,0.0023
1.764,0.0007
1.765,0.002
1.766,0.0007
1.767,-0.0021
1.768,0.0036
1.769,-0.0004
1.77,0.0003
1.771,-0.0002
1.772,0.0029
1.773,-0.0022
1.774,0.0053
1.775,0.0082
1.776,0.0018
1.777,0.0011
1.778,0.0018
1.779,0.0023
1.78,0.0005
1.781,0.0011
1.782,0.0014
1.783,-0.0008
1.784,-0.0011
1.785,-0.0033
1.786,-0.0008
1.787,0.0047
1.788,0.0163
1.789,0.0313
1.79,0.0413
1.791,0.0542
1.792,0.0293
1.793,0.0186
1.794,0.0025
1.795,-0.0063
1.796,-0.0196
1.797,-0.022
1.798,-0.0286
1.799,-0.0226
1.8,-0.0244
1.801,-0.0194
1.802,-0.018
1.803,-0.0167
1.804,-0.0178
1.805,-0.0121
1.806,-0.0092
1.807,-0.0101
1.808,-0.0077
1.809,-0.007
1.81,-0.0037
1.811,-0.0019
1.812,-0.0013
1.813,-0.0046
1.814,-0.0059
1.815,-0.0013
1.816,0.0044
1.817,-0.0026
1.818,0.0001
1.819,0.0042
1.82,0.0064
1.821,0.0045
1.822,0.004
1.823,0.0012
1.824,0.0058
1.825,0.0027
1.826,0.0022
1.827,0.0009
1.828,0.0005
1.829,0.0025
1.83,0.0014
1.831,0.0047
1.832,0.0109
1.833,0.0212
1.834,0.0172
1.835,0.0111
1.836,0.0025
1.837,-0.0032
1.838,-0.0041
1.839,-0.0032
1.84,0.0093
1.841,0.0368
1.842,0.0172
1.843,0.0066
1.844,-0.003
1.845,-0.0178
1.846,-0.0152
1.847,-0.0176
1.848,-0.0154
1.849,-0.0174
1.85,-0.0193
1.851,-0.0209
1.852,-0.0134
1.853,-0.0121
1.854,-0.0037
1.855,-0.0026
1.856,-0.0017
1.857,-0.0008
1.858,-0.0015
1.859,-0.0037
1.86,-0.0055
1.861,-0.0037
1.862,-0.0021
1.863,-0.0008
1.864,0.0014
1.865,0.0042
1.866,-0.0015
1.867,-0.0022
1.868,-0.0015
1.869,0.006
1.87,0.0069
1.871,0.0042
1.872,0.0034
1.873,0.0027
1.874,0.0033
1.875,0.0014
1.876,-0.0037
1.877,-0.0083
1.878,0.0012
1.879,-0
1.88,0.006
1.881,0.0049
1.882,0.004
1.883,0.0012
1.884,0.0005
1.885,0.0044
1.886,0.0062
1.887,0.0062
1.888,0.0031
1.889,0.0115
1.89,0.0175
1.891,0.0346
1.892,0.0417
1.893,0.0439
1.894,0.0338
1.895,0.01
1.896,-0.0061
1.897,-0.0149
1.898,-0.0227
1.899,-0.0204
1.9,-0.027
1.901,-0.0249
1.902,-0.0194
1.903,-0.0178
1.904,-0.0163
1.905,-0.0123
1.906,-0.0063
1.907,-0.0052
1.908,-0.0042
1.909,-0.0033
1.91,-0.0057
1.911,-0.0004
1.912,-0.0094
1.913,-0.0105
1.914,-0.0048
1.915,0.0001
1.916,0.0011
1.917,0.0018
1.918,-0.0004
1.919,0.0058
1.92,0.0066
1.921,0.0027
1.922,-0.0035
1.923,-0.0028
1.924,-0.0006
1.925,0.0012
1.926,0.0007
1.927,0.0034
1.928,0.0058
1.929,-0.0002
1.93,0.0005
1.931,0.0027
1.932,0.0045
1.933,0.0051
1.934,-0.0011
1.935,-0.0004
1.936,0.0018
1.937,0.0012
1.938,0.0011
1.939,-0.0008
1.94,0.0077
1.941,0.0161
1.942,0.0285
1.943,0.0368
1.944,0.0472
1.945,0.0294
1.946,0.0174
1.947,-0.0026
1.948,-0.016
1.949,-0.0136
1.95,-0.0246
1.951,-0.0226
1.952,-0.0244
1.953,-0.0227
1.954,-0.0213
1.955,-0.02
1.956,-0.0189
1.957,-0.0132
1.958,-0.0103
1.959,-0.0057
1.96,-0.0064
1.961,-0.0057
1.962,-0.0075
1.963,-0.0044
1.964,-0.0061
1.965,-0.0028
1.966,-0.0059
1.967,-0.0086
1.968,-0.003
1.969,0.0027
1.97,0.0034
1.971,0.0053
1.972,0.0097
1.973,0.008
1.974,0.0093
1.975,0.0042
1.976,0.0023
1.977,0.0018
1.978,0.0023
1.979,-0
1.98,-0.0032
1.981,-0.0004
1.982,0.0038
1.983,0.0011
1.984,0.0034
1.985,0.0056
1.986,0.006
1.987,0.0018
1.988,0.0023
1.989,0.0025
1.99,0.0012
1.991,0.0082
1.992,0.0152
1.993,0.0216
1.994,0.034
1.995,0.0468
1.996,0.0318
1.997,0.0137
1.998,-0.0032
1.999,-0.0185
2,-0.0205
2.001,-0.0187
2.002,-0.0237
2.003,-0.0251
2.004,-0.0183
2.005,-0.0123
2.006,-0.0112
2.007,-0.0103
2.008,-0.0094
2.009,-0.0086
2.01,-0.0079
2.011,-0.0046
2.012,-0.0052
2.013,-0.0035
2.014,-0.0032
2.015,-0
2.016,-0.0021
2.017,-0.0055
2.018,-0.0042
2.019,-0.0015
2.02,0.002
2.021,0.0051
2.022,0.0005
2.023,-0.0013
2.024,-0.0019
2.025,0.0027
2.026,0.0045
2.027,0.0084
2.028,0.008
2.029,0.0077
2.03,0.0056
2.031,0.0053
2.032,0.0071
2.033,0.0051
2.034,0.002
2.035,-0.0042
2.036,-0.0015
2.037,-0.0022
2.038,-0.0015
2.039,0.006
2.04,0.0047
2.041,0.0038
2.042,0.0177
2.043,0.0197
2.044,0.0472
2.045,0.0434
2.046,0.0185
2.047,0.0023
2.048,-0.0064
2.049,-0.009
2.05,-0.0114
2.051,-0.0136
2.052,-0.0196
2.053,-0.0178
2.054,-0.0162
2.055,-0.0176
2.056,-0.0108
2.057,-0.0119
2.058,-0.0108
2.059,-0.0138
2.06,-0.0129
2.061,-0.0105
2.062,-0.0083
2.063,-0.005
2.064,0.0007
2.065,-0.0046
2.066,-0.0013
2.067,-0.0019
2.068,0.0009
2.069,0.0022
2.07,0.0018
2.071,0.0022
2.072,0.0064
2.073,0.008
2.074,0.0056
2.075,0.0034
2.076,0.0038
2.077,0.0027
2.078,0.0082
2.079,0.0166
2.08,0.0155
2.081,0.0064
2.082,0.0029
2.083,-0.0028
2.084,-0.0019
2.085,-0.0046
2.086,-0.0039
2.087,-0.0017
2.088,-0.0035
2.089,-0.0017
2.09,-0.0022
2.091,-0.0033
2.092,-0.003
2.093,0.0012
2.094,0.0097
2.095,0.0108
2.096,0.0278
2.097,0.0446
2.098,0.0293
2.099,0.0071
2.1,-0.0077
2.101,-0.0156
2.102,-0.0132
2.103,-0.0198
2.104,-0.0218
2.105,-0.0237
2.106,-0.022
2.107,-0.0205
2.108,-0.0165
2.109,-0.013
2.11,-0.0141
2.111,-0.0092
2.112,-0.0083
2.113,-0.0008
2.114,0.0042
2.115,0.0069
2.116,0.0126
2.117,0.0164
2.118,0.0197
2.119,0.0241
2.12,0.0304
2.121,0.028
2.122,0.0272
2.123,0.021
2.124,0.0153
2.125,0.0084
2.126,0.0056
2.127,-0.0052
2.128,-0.0216
2.129,-0.0326
2.13,-0.0427
2.131,-0.0592
2.132,-0.0658
2.133,-0.0638
2.134,-0.0509
2.135,-0.046
2.136,-0.0416
2.137,-0.0594
2.138,-0.0665
2.139,-0.0731
2.14,-0.0872
2.141,-0.0964
2.142,-0.1044
2.143,-0.1126
2.144,-0.0962
2.145,-0.0896
2.146,-0.0594
2.147,-0.0118
2.148,-0.0055
2.149,-0.0227
2.15,-0.0072
2.151,0.0454
2.152,0.1225
2.153,0.1532
2.154,0.1626
2.155,0.1541
2.156,0.1311
2.157,0.1241
2.158,0.0924
2.159,0.0981
2.16,0.0825
2.161,0.0778
2.162,0.0906
2.163,0.1102
2.164,0.1137
2.165,0.1298
2.166,0.1446
2.167,0.1367
2.168,0.1199
2.169,0.1133
2.17,0.1073
2.171,0.0798
2.172,0.0285
2.173,0.0077
2.174,-0.0112
2.175,-0.0169
2.176,-0.0118
2.177,-0.026
2.178,-0.0389
2.179,-0.0506
2.18,-0.0541
2.181,-0.0572
2.182,-0.066
2.183,-0.0634
2.184,-0.0658
2.185,-0.0724
2.186,-0.0784
2.187,-0.0693
2.188,-0.061
2.189,-0.0566
2.19,-0.0606
2.191,-0.0595
2.192,-0.0628
2.193,-0.0597
2.194,-0.0606
2.195,-0.0486
2.196,-0.0403
2.197,-0.0178
2.198,0.0047
2.199,-0.0041
2.2,-0.0227
2.201,-0.0348
2.202,-0.0414
2.203,-0.0475
2.204,-0.0456
2.205,-0.044
2.206,-0.0365
2.207,-0.0352
2.208,-0.0292
2.209,-0.0324
2.21,-0.0275
2.211,-0.0211
2.212,-0.0187
2.213,-0.0134
2.214,-0.0116
2.215,-0.0046
2.216,-0.0037
2.217,0.002
2.218,0.0027
2.219,0.0045
2.22,0.0089
2.221,0.0095
2.222,0.0128
2.223,0.0124
2.224,0.0128
2.225,0.0139
2.226,0.015
2.227,0.0104
2.228,0.0086
2.229,0.0117
2.23,0.01
2.231,0.0146
2.232,0.0089
2.233,0.0128
2.234,0.0133
2.235,0.0089
2.236,0.0073
2.237,0.0106
2.238,0.0128
2.239,0.0108
2.24,0.0089
2.241,0.0093
2.242,0.0073
2.243,0.0086
2.244,0.0069
2.245,0.0098
2.246,0.0155
2.247,0.0131
2.248,0.0247
2.249,0.0496
2.25,0.039
2.251,0.0229
2.252,0.008
2.253,0.0001
2.254,-0.0022
2.255,-0.0132
2.256,-0.0112
2.257,-0.0167
2.258,-0.0151
2.259,-0.0136
2.26,-0.0123
2.261,-0.0134
2.262,-0.0123
2.263,-0.0094
2.264,-0.0085
2.265,-0.0061
2.266,-0.0068
2.267,-0.0063
2.268,-0.0032
2.269,-0.0015
2.27,-0.0002
2.271,-0.0006
2.272,-0.0002
2.273,0.0055
2.274,-0.0002
2.275,0.002
2.276,0.0001
2.277,0.0007
2.278,0.0023
2.279,0.0078
2.28,0.0131
2.281,0.0042
2.282,0.0031
2.283,0.0088
2.284,0.0038
2.285,0.0047
2.286,0.0023
2.287,0.0031
2.288,0.0012
2.289,0.0031
2.29,0.0014
2.291,0.0038
2.292,0.0034
2.293,0.0014
2.294,0.0025
2.295,-0.0004
2.296,0.0022
2.297,0.0067
2.298,0.017
2.299,0.0395
2.3,0.0426
2.301,0.0338
2.302,0.0097
2.303,-0.0064
2.304,-0.0094
2.305,-0.0119
2.306,-0.0143
2.307,-0.0165
2.308,-0.0105
2.309,-0.0123
2.31,-0.0173
2.311,-0.0187
2.312,-0.0147
2.313,-0.0158
2.314,-0.0147
2.315,-0.0156
2.316,-0.0129
2.317,-0.0105
2.318,-0.0035
2.319,-0.0044
2.32,-0.0052
2.321,-0.0044
2.322,0.0018
2.323,0.0075
2.324,0.019
2.325,0.0239
2.326,0.0104
2.327,0.0012
2.328,-0.0037
2.329,-0.0022
2.33,0.0018
2.331,-0.0042
2.332,-0.0032
2.333,-0.0041
2.334,-0.005
2.335,0.0007
2.336,-0.0015
2.337,0.0003
2.338,0.0022
2.339,0.0016
2.34,0.0029
2.341,0.0025
2.342,0.0014
2.343,-0.0028
2.344,-0.0044
2.345,-0.0077
2.346,-0.0041
2.347,-0.0053
2.348,0.0001
2.349,0.0117
2.35,0.0232
2.351,0.0337
2.352,0.0487
2.353,0.0265
2.354,0.0177
2.355,0.0044
2.356,-0.0077
2.357,-0.0099
2.358,-0.016
2.359,-0.0251
2.36,-0.0235
2.361,-0.022
2.362,-0.0152
2.363,-0.0163
2.364,-0.0107
2.365,-0.0156
2.366,-0.0147
2.367,-0.0123
2.368,-0.0101
2.369,-0.0107
2.37,-0.0075
2.371,-0.0059
2.372,-0.0046
2.373,-0.0024
2.374,-0.0021
2.375,0.0014
2.376,0.0011
2.377,0.0022
2.378,0.0025
2.379,0.0044
2.38,-0.0002
2.381,-0.0008
2.382,0.0011
2.383,0.0016
2.384,0.004
2.385,0.0009
2.386,0.0036
2.387,0.0093
2.388,0.0069
2.389,0.0031
2.39,0.0036
2.391,0.0067
2.392,0.0051
2.393,0.0038
2.394,0.0051
2.395,0.0047
2.396,0.0005
2.397,0.004
2.398,0.0045
2.399,0.0058
2.4,0.0128
2.401,0.028
2.402,0.0434
2.403,0.0212
2.404,0.0064
2.405,-0.0015
2.406,-0.0086
2.407,-0.0108
2.408,-0.0169
2.409,-0.0187
2.41,-0.0204
2.411,-0.0189
2.412,-0.0176
2.413,-0.0116
2.414,-0.0059
2.415,-0.005
2.416,-0.0022
2.417,-0.0079
2.418,-0.0026
2.419,-0.0044
2.42,-0.005
2.421,-0.0066
2.422,-0.0021
2.423,-0.0015
2.424,-0.001
2.425,0.0003
2.426,0.0007
2.427,0.0045
2.428,-0
2.429,0.0018
2.43,0.0001
2.431,0.0005
2.432,0.0027
2.433,0.0016
2.434,-0.001
2.435,0.0009
2.436,-0.0006
2.437,0.0036
2.438,0.0042
2.439,0.0036
2.44,0.004
2.441,0.0071
2.442,0.0051
2.443,0.004
2.444,0.0029
2.445,0.0056
2.446,0.0022
2.447,0.0044
2.448,0.0055
2.449,0.0066
2.45,0.0122
2.451,0.013
2.452,0.0245
2.453,0.0494
2.454,0.0529
2.455,0.0304
2.456,0.0097
2.457,-0.009
2.458,-0.0162
2.459,-0.0227
2.46,-0.0248
2.461,-0.0229
2.462,-0.0246
2.463,-0.0202
2.464,-0.0189
2.465,-0.0178
2.466,-0.0167
2.467,-0.0158
2.468,-0.0094
2.469,-0.0086
2.47,-0.0048
2.471,-0.003
2.472,0.0001
2.473,0.0029
2.474,-0.0004
2.475,-0
2.476,-0.0021
2.477,0.0036
2.478,-0.0004
2.479,-0.0026
2.48,-0.0021
2.481,-0.0015
2.482,-0.0021
2.483,-0.0008
2.484,0.0005
2.485,0.0033
2.486,0.0014
2.487,-0.0011
2.488,-0.0026
2.489,-0.0008
2.49,-0.0021
2.491,0.0014
2.492,0.0047
2.493,-0.0022
2.494,0.0027
2.495,0.0073
2.496,0.0066
2.497,0.0088
2.498,0.0042
2.499,0.0047
2.5,0.0053
2.501,0.0137
2.502,0.0148
2.503,0.0137
2.504,0.0289
2.505,0.0489
2.506,0.0302
2.507,0.0133
2.508,-0.0021
2.509,-0.0121
2.51,-0.0176
2.511,-0.0226
2.512,-0.027
2.513,-0.0257
2.514,-0.0173
2.515,-0.0162
2.516,-0.0132
2.517,-0.016
2.518,-0.0136
2.519,-0.0129
2.52,-0.011
2.521,-0.0066
2.522,-0.005
2.523,-0.0046
2.524,-0.0042
2.525,-0.0022
2.526,-0.0041
2.527,-0.003
2.528,-0.001
2.529,0.0003
2.53,-0.0032
2.531,-0.0019
2.532,-0.003
2.533,0.0027
2.534,0.0003
2.535,-0.0019
2.536,0.0014
2.537,0.0033
2.538,0.0005
2.539,0.0018
2.54,0.0022
2.541,0.0067
2.542,0.0073
2.543,0.0078
2.544,0.0066
2.545,0.0014
2.546,0.002
2.547,0.0014
2.548,0.0031
2.549,0.0027
2.55,0.0018
2.551,0.0014
2.552,0.0077
2.553,0.0161
2.554,0.0331
2.555,0.0402
2.556,0.0337
2.557,0.0196
2.558,0.0067
2.559,-0.0083
2.56,-0.0143
2.561,-0.0198
2.562,-0.0149
2.563,-0.0193
2.564,-0.0205
2.565,-0.0194
2.566,-0.0183
2.567,-0.0154
2.568,-0.0127
2.569,-0.0035
2.57,0.0025
2.571,0.0082
2.572,0.0012
2.573,-0.0033
2.574,-0.0026
2.575,-0.0079
2.576,-0.0085
2.577,-0.0079
2.578,-0.0041
2.579,-0.0037
2.58,-0.0024
2.581,0.0014
2.582,0.0011
2.583,-0.0021
2.584,0.0025
2.585,0.0031
2.586,0.0014
2.587,0.0018
2.588,0.0005
2.589,0.0044
2.59,0.0047
2.591,-0.0004
2.592,0.0014
2.593,0.0009
2.594,-0.0019
2.595,0.0047
2.596,0.0038
2.597,0.0031
2.598,0.0009
2.599,0.0027
2.6,0.0071
2.601,0.0033
2.602,0.0005
2.603,0.008
2.604,0.0137
2.605,0.0289
2.606,0.0489
2.607,0.0463
2.608,0.0294
2.609,0.0095
2.61,-0.0092
2.611,-0.0163
2.612,-0.0185
2.613,-0.0246
2.614,-0.0191
2.615,-0.0207
2.616,-0.0193
2.617,-0.0205
2.618,-0.0171
2.619,-0.016
2.62,-0.011
2.621,-0.0026
2.622,-0.0015
2.623,-0.0006
2.624,-0.0033
2.625,-0.0041
2.626,-0.0079
2.627,-0.0046
2.628,-0.0002
2.629,0.0014
2.63,0.0038
2.631,0.0051
2.632,0.0055
2.633,0.002
2.634,0.0007
2.635,-0.0021
2.636,0.0005
2.637,0.0016
2.638,0.0009
2.639,0.0016
2.64,0.0045
2.641,0.0056
2.642,0.0045
2.643,-0
2.644,-0.0033
2.645,-0.0002
2.646,0.0014
2.647,0.0001
2.648,-0.0002
2.649,0.0044
2.65,0.0049
2.651,0.0022
2.652,-0.0026
2.653,0.0029
2.654,0.0144
2.655,0.0194
2.656,0.0298
2.657,0.0448
2.658,0.0388
2.659,0.026
2.66,0.0109
2.661,-0.0072
2.662,-0.0143
2.663,-0.0209
2.664,-0.027
2.665,-0.0215
2.666,-0.0165
2.667,-0.018
2.668,-0.0167
2.669,-0.0156
2.67,-0.0145
2.671,-0.0136
2.672,-0.0127
2.673,-0.0103
2.674,-0.0019
2.675,0.0014
2.676,0.0005
2.677,-0.0041
2.678,-0.0116
2.679,-0.0046
2.68,-0.0037
2.681,0.002
2.682,-0.0033
2.683,-0.0039
2.684,-0.0033
2.685,0.0018
2.686,0.0064
2.687,0.0033
2.688,-0.0019
2.689,0.0027
2.69,0.0084
2.691,0.0106
2.692,0.0088
2.693,0.0044
2.694,0.0016
2.695,-0.0008
2.696,-0.005
2.697,-0.0022
2.698,-0.0046
2.699,-0.0004
2.7,-0.0055
2.701,-0.005
2.702,0.002
2.703,0.004
2.704,0.0031
2.705,0.0055
2.706,0.017
2.707,0.0285
2.708,0.0329
2.709,0.0342
2.71,0.0426
2.711,0.0483
2.712,0.0413
2.713,0.0274
2.714,-0.0028
2.715,-0.0156
2.716,-0.0194
2.717,-0.0301
2.718,-0.0332
2.719,-0.0303
2.72,-0.0277
2.721,-0.0253
2.722,-0.0187
2.723,-0.0207
2.724,-0.0189
2.725,-0.0173
2.726,-0.0158
2.727,-0.0118
2.728,-0.0129
2.729,-0.0072
2.73,-0.0022
2.731,-0.005
2.732,-0.0026
2.733,-0.0004
2.734,0.0042
2.735,-0.0002
2.736,0.0036
2.737,0.0023
2.738,0.0011
2.739,0.0049
2.74,0.0104
2.741,0.0111
2.742,0.0022
2.743,0.0011
2.744,-0
2.745,0.0009
2.746,-0
2.747,0.004
2.748,0.0018
2.749,0.0023
2.75,0.0067
2.751,0.0095
2.752,0.0071
2.753,0.0058
2.754,0.0025
2.755,0.0071
2.756,0.0166
2.757,0.0234
2.758,0.0369
2.759,0.0571
2.76,0.0329
2.761,0.0234
2.762,0.0027
2.763,-0.0107
2.764,-0.0178
2.765,-0.02
2.766,-0.022
2.767,-0.0238
2.768,-0.0222
2.769,-0.0237
2.77,-0.0141
2.771,-0.013
2.772,-0.0119
2.773,-0.009
2.774,-0.0118
2.775,-0.0077
2.776,-0.0039
2.777,-0.0033
2.778,-0.0028
2.779,-0.0033
2.78,-0.0021
2.781,0.0022
2.782,0.0005
2.783,-0.0008
2.784,-0.0021
2.785,-0
2.786,0.0003
2.787,-0.0008
2.788,-0.0015
2.789,-0.0028
2.79,0.0012
2.791,0.004
2.792,0.0036
2.793,-0.0024
2.794,-0.0032
2.795,-0.0024
2.796,0.0038
2.797,0.0014
2.798,-0.0008
2.799,0.0038
2.8,0.0044
2.801,0.0038
2.802,0.0034
2.803,0.0038
2.804,0.0034
2.805,0.0011
2.806,0.0053
2.807,0.0047
2.808,-0.0008
2.809,-0.0015
2.81,-0.001
2.811,0.0009
2.812,0.0047
2.813,0.0001
2.814,-0.0017
2.815,0.0045
2.816,0.017
2.817,0.0115
2.818,0.0033
2.819,0.0077
2.82,0.0199
2.821,0.0315
2.822,0.0479
2.823,0.0326
2.824,0.0144
2.825,-0.0024
2.826,-0.0178
2.827,-0.0238
2.828,-0.022
2.829,-0.0303
2.83,-0.0259
2.831,-0.0218
2.832,-0.0207
2.833,-0.0196
2.834,-0.0205
2.835,-0.016
2.836,-0.0103
2.837,-0.011
2.838,-0.0077
2.839,-0.0059
2.84,0.0003
2.841,-0.0004
2.842,-0.0026
2.843,-0.0044
2.844,-0.0039
2.845,0.0012
2.846,0.0031
2.847,0.0049
2.848,0.0011
2.849,0.0023
2.85,0.002
2.851,-0.0019
2.852,-0.0052
2.853,-0.003
2.854,-0.0002
2.855,0.0001
2.856,-0.0004
2.857,0.0014
2.858,0.006
2.859,0.0163
2.86,0.0388
2.861,0.0483
2.862,0.0335
2.863,0.0093
2.864,0.0062
2.865,-0.0086
2.866,-0.0061
2.867,-0.0132
2.868,-0.011
2.869,-0.013
2.87,-0.0112
2.871,-0.0129
2.872,-0.0143
2.873,-0.013
2.874,-0.0119
2.875,-0.0086
2.876,-0.0077
2.877,-0.0032
2.878,-0.0008
2.879,-0
2.88,0.0045
2.881,-0.0011
2.882,-0.0033
2.883,0.0012
2.884,0.0031
2.885,0.0058
2.886,0.0055
2.887,0.0086
2.888,0.0058
2.889,0.0016
2.89,0.0044
2.891,0.0031
2.892,0.0018
2.893,-0.0037
2.894,-0.0015
2.895,-0.0033
2.896,-0.0015
2.897,0.0001
2.898,0.0034
2.899,0.0022
2.9,0.0001
2.901,0.0051
2.902,-0.0024
2.903,-0.0033
2.904,-0.0024
2.905,-0
2.906,0.0007
2.907,0.0025
2.908,-0.0021
2.909,0.0075
2.91,0.0088
2.911,0.0223
2.912,0.0351
2.913,0.0335
2.914,0.0291
2.915,0.0168
2.916,0.0018
2.917,-0.0083
2.918,-0.0138
2.919,-0.0187
2.92,-0.0202
2.921,-0.0189
2.922,-0.0178
2.923,-0.0189
2.924,-0.016
2.925,-0.0151
2.926,-0.0143
2.927,-0.0121
2.928,-0.0127
2.929,-0.0145
2.93,-0.0118
2.931,-0.0121
2.932,-0.0079
2.933,-0.0074
2.934,-0.0061
2.935,-0
2.936,0.004
2.937,0.0001
2.938,0.0007
2.939,0.0001
2.94,0.0053
2.941,0.0034
2.942,0.004
2.943,0.0056
2.944,0.0044
2.945,0.004
2.946,0.002
2.947,0.0009
2.948,0.0012
2.949,-0.0002
2.95,-0.0033
2.951,-0.0072
2.952,0.0003
2.953,0.006
2.954,0.013
2.955,0.012
2.956,0.0097
2.957,0.0075
2.958,0.0033
2.959,0.0027
2.96,0.0122
2.961,0.0163
2.962,0.0348
2.963,0.0373
2.964,0.0252
2.965,0.0186
2.966,0.0005
2.967,-0.0019
2.968,-0.0129
2.969,-0.0189
2.97,-0.0171
2.971,-0.0154
2.972,-0.0169
2.973,-0.0129
2.974,-0.0094
2.975,-0.0015
2.976,0.0014
2.977,0.0005
2.978,0.0113
2.979,0.0128
2.98,0.0168
2.981,0.0133
2.982,0.0077
2.983,0.0047
2.984,0.0001
2.985,-0.0039
2.986,0.0031
2.987,-0.0053
2.988,-0.0132
2.989,-0.0244
2.99,-0.0259
2.991,-0.0381
2.992,-0.0497
2.993,-0.0541
2.994,-0.05
2.995,-0.0535
2.996,-0.0568
2.997,-0.0519
2.998,-0.0434
2.999,-0.0491
3,-0.0583
3.001,-0.0617
3.002,-0.0674
3.003,-0.0826
3.004,-0.1026
3.005,-0.1051
3.006,-0.0832
3.007,-0.0683
3.008,-0.0658
3.009,-0.059
3.01,-0.037
3.011,0.0075
3.012,0.0902
3.013,0.1692
3.014,0.2204
3.015,0.2111
3.016,0.2027
3.017,0.1642
3.018,0.1153
3.019,0.0836
3.02,0.0549
3.021,0.0498
3.022,0.045
3.023,0.0492
3.024,0.0531
3.025,0.0637
3.026,0.0732
3.027,0.088
3.028,0.0906
3.029,0.0835
3.03,0.0813
3.031,0.0752
3.032,0.0734
3.033,0.0518
3.034,0.0131
3.035,-0.0024
3.036,-0.0167
3.037,-0.0039
3.038,-0
3.039,-0.0107
3.04,-0.0268
3.041,-0.0416
3.042,-0.0442
3.043,-0.0513
3.044,-0.0579
3.045,-0.0519
3.046,-0.0574
3.047,-0.0623
3.048,-0.0638
3.049,-0.0625
3.05,-0.059
3.051,-0.0557
3.052,-0.0548
3.053,-0.0484
3.054,-0.046
3.055,-0.0498
3.056,-0.0493
3.057,-0.0462
3.058,-0.0434
3.059,-0.0458
3.06,-0.0429
3.061,-0.0359
3.062,-0.031
3.063,-0.0207
3.064,-0.0275
3.065,-0.0264
3.066,-0.0116
3.067,0.0146
3.068,0.0252
3.069,0.0157
3.07,0.0009
3.071,-0.0125
3.072,-0.0246
3.073,-0.0224
3.074,-0.0204
3.075,-0.0222
3.076,-0.0238
3.077,-0.0163
3.078,-0.0151
3.079,-0.009
3.08,-0.0101
3.081,-0.0052
3.082,-0.0042
3.083,-0.0035
3.084,-0.0013
3.085,-0.0075
3.086,0.0049
3.087,0.0067
3.088,0.0084
3.089,0.004
3.09,0.0108
3.091,0.0119
3.092,0.0086
3.093,0.0077
3.094,0.0104
3.095,0.008
3.096,0.0133
3.097,0.0071
3.098,0.0095
3.099,0.0148
3.1,0.0142
3.101,0.0098
3.102,0.0183
3.103,0.0122
3.104,0.0089
3.105,0.006
3.106,0.0069
3.107,0.0062
3.108,0.0115
3.109,0.0133
3.11,0.0102
3.111,0.0077
3.112,0.0049
3.113,0.0124
3.114,0.0227
3.115,0.0432
3.116,0.052
3.117,0.0545
3.118,0.0278
3.119,0.01
3.12,0.0005
3.121,-0.0083
3.122,-0.0162
3.123,-0.0185
3.124,-0.0207
3.125,-0.0187
3.126,-0.0205
3.127,-0.0189
3.128,-0.0174
3.129,-0.0134
3.13,-0.0145
3.131,-0.0088
3.132,-0.0059
3.133,-0.0032
3.134,-0.0039
3.135,-0.0061
3.136,-0.0079
3.137,-0.001
3.138,-0.0037
3.139,0.0003
3.14,0.0042
3.141,0.0009
3.142,0.0053
3.143,0.0036
3.144,0.004
3.145,0.0009
3.146,0.0012
3.147,-0.0006
3.148,0.0042
3.149,-0.0002
3.15,-0.0041
3.151,-0.0008
3.152,0.0034
3.153,0.0073
3.154,0.0086
3.155,0.0064
3.156,0.0044
3.157,0.0047
3.158,0.0088
3.159,0.0064
3.16,0.0042
3.161,-0.0004
3.162,-0.0004
3.163,0.0027
3.164,0.0111
3.165,0.0146
3.166,0.0316
3.167,0.0485
3.168,0.0463
3.169,0.0282
3.17,0.0062
3.171,-0.0086
3.172,-0.0165
3.173,-0.0141
3.174,-0.0207
3.175,-0.0227
3.176,-0.0209
3.177,-0.0226
3.178,-0.0182
3.179,-0.0169
3.18,-0.0158
3.181,-0.0147
3.182,-0.0138
3.183,-0.0074
3.184,-0.0097
3.185,-0.0119
3.186,-0.0044
3.187,-0.0053
3.188,0.0031
3.189,0.0064
3.19,0.0093
3.191,0.0029
3.192,0.0086
3.193,0.0033
3.194,0.0014
3.195,-0.003
3.196,0.0009
3.197,0.0075
3.198,0.0029
3.199,-0.0011
3.2,0.0011
3.201,-0.0035
3.202,0.0009
3.203,0.0036
3.204,0.0069
3.205,0.0018
3.206,0.0023
3.207,-0.0008
3.208,0.0031
3.209,0.0007
3.21,0.0003
3.211,-0.0017
3.212,0.0025
3.213,0.0033
3.214,0.0027
3.215,0.0102
3.216,0.0023
3.217,0.0175
3.218,0.0507
3.219,0.0269
3.22,0.0141
3.221,-0.0055
3.222,-0.009
3.223,-0.0185
3.224,-0.0156
3.225,-0.0182
3.226,-0.0205
3.227,-0.0183
3.228,-0.0163
3.229,-0.0145
3.23,-0.0129
3.231,-0.0114
3.232,-0.0101
3.233,-0.009
3.234,-0.0079
3.235,-0.003
3.236,-0.0057
3.237,0.0018
3.238,0.0027
3.239,0.0018
3.24,0.0011
3.241,-0.0011
3.242,0.0007
3.243,-0.0024
3.244,-0.0019
3.245,-0.0032
3.246,0.0029
3.247,-0.0011
3.248,0.0011
3.249,-0.0008
3.25,0.0011
3.251,-0.0006
3.252,0.0049
3.253,-0.0035
3.254,-0.0002
3.255,0.0007
3.256,0.0034
3.257,0.0027
3.258,0.0049
3.259,0.0111
3.26,0.0071
3.261,0.0078
3.262,0.006
3.263,0.0029
3.264,0.0011
3.265,-0.0006
3.266,0.0069
3.267,0.0239
3.268,0.0459
3.269,0.043
3.27,0.0188
3.271,0.0027
3.272,-0.0061
3.273,-0.0086
3.274,-0.0158
3.275,-0.0136
3.276,-0.0196
3.277,-0.0105
3.278,-0.0154
3.279,-0.005
3.28,-0.0063
3.281,-0.0074
3.282,-0.0017
3.283,-0.0086
3.284,-0.0096
3.285,-0.0055
3.286,-0.0063
3.287,-0.0057
3.288,-0.0039
3.289,-0
3.29,0.0012
3.291,0.0016
3.292,0.002
3.293,-0.0015
3.294,-0.0028
3.295,-0.0055
3.296,0.0001
3.297,-0.0006
3.298,0.0016
3.299,-0.0002
3.3,0.0029
3.301,0.0067
3.302,-0.0008
3.303,0.0003
3.304,0.0012
3.305,0.0022
3.306,0.0014
3.307,0.013
3.308,0.0179
3.309,0.0104
3.31,0.0036
3.311,0.0025
3.312,-0.0008
3.313,-0.0037
3.314,-0.001
3.315,-0.0033
3.316,-0.0026
3.317,0.0044
3.318,0.0016
3.319,0.0141
3.32,0.0305
3.321,0.0327
3.322,0.0307
3.323,0.0435
3.324,0.0419
3.325,0.0223
3.326,0.0036
3.327,-0.0183
3.328,-0.0271
3.329,-0.0297
3.33,-0.0368
3.331,-0.0346
3.332,-0.0326
3.333,-0.0308
3.334,-0.0259
3.335,-0.0244
3.336,-0.0231
3.337,-0.0196
3.338,-0.0118
3.339,-0.0108
3.34,-0.0081
3.341,-0.0057
3.342,0.0027
3.343,-0.0006
3.344,-0.0035
3.345,-0.0044
3.346,-0.0068
3.347,-0.003
3.348,-0.0075
3.349,-0.0006
3.35,0.004
3.351,0.0033
3.352,0.0071
3.353,0.0089
3.354,0.0045
3.355,0.0051
3.356,0.0075
3.357,0.0053
3.358,0.0091
3.359,0.0115
3.36,0.0102
3.361,0.0106
3.362,0.008
3.363,0.0033
3.364,0.0014
3.365,-0.0002
3.366,0.0018
3.367,0.0042
3.368,0.0084
3.369,0.0168
3.37,0.0353
3.371,0.054
3.372,0.0468
3.373,0.0225
3.374,0.0064
3.375,-0.0024
3.376,-0.0103
3.377,-0.0127
3.378,-0.0237
3.379,-0.0216
3.38,-0.0235
3.381,-0.0251
3.382,-0.0266
3.383,-0.0198
3.384,-0.0163
3.385,-0.0174
3.386,-0.0105
3.387,-0.0041
3.388,-0.0048
3.389,-0.0026
3.39,-0.0021
3.391,0.0036
3.392,0.0044
3.393,0.0038
3.394,0.0007
3.395,0.0045
3.396,0.0022
3.397,0.0034
3.398,0.0007
3.399,-0.0011
3.4,0.0022
3.401,-0.0024
3.402,0.0007
3.403,0.0023
3.404,0.0011
3.405,-0.0021
3.406,0.0025
3.407,0.0031
3.408,0.0069
3.409,0.0045
3.41,0.0003
3.411,-0.0002
3.412,-0.0026
3.413,-0.0057
3.414,-0.0011
3.415,0.0007
3.416,0.0091
3.417,0.0084
3.418,0.0023
3.419,0.0126
3.42,0.0166
3.421,0.0302
3.422,0.0467
3.423,0.062
3.424,0.0399
3.425,0.0192
3.426,-0.005
3.427,-0.0211
3.428,-0.0299
3.429,-0.0324
3.43,-0.0348
3.431,-0.0326
3.432,-0.0266
3.433,-0.0248
3.434,-0.0231
3.435,-0.0127
3.436,-0.014
3.437,-0.0105
3.438,-0.0116
3.439,-0.0086
3.44,-0.0041
3.441,-0.0048
3.442,-0.001
3.443,-0.0028
3.444,-0.0059
3.445,-0.0032
3.446,-0.0008
3.447,0.0014
3.448,-0.0013
3.449,0.0022
3.45,-0
3.451,-0.0021
3.452,-0.0002
3.453,0.0031
3.454,0.0058
3.455,0.0115
3.456,0.0122
3.457,0.01
3.458,0.0082
3.459,0.0064
3.46,0.0025
3.461,-0.0008
3.462,0.0014
3.463,0.0034
3.464,0.0023
3.465,-0.0024
3.466,0.002
3.467,-0.0032
3.468,-0.0011
3.469,-0.0044
3.47,0.0051
3.471,0.0256
3.472,0.0463
3.473,0.0542
3.474,0.0373
3.475,0.013
3.476,-0.0032
3.477,-0.0119
3.478,-0.0198
3.479,-0.0222
3.48,-0.02
3.481,-0.018
3.482,-0.0198
3.483,-0.0149
3.484,-0.0163
3.485,-0.0123
3.486,-0.0134
3.487,-0.0123
3.488,-0.0053
3.489,-0.0008
3.49,-0.0015
3.491,-0.0037
3.492,0.0009
3.493,0.0014
3.494,0.0042
3.495,0.0029
3.496,0.0033
3.497,0.0044
3.498,-0.0013
3.499,-0.0021
3.5,-0.0028
3.501,-0.0061
3.502,-0.003
3.503,0.0009
3.504,0.0042
3.505,0.0038
3.506,0.0018
3.507,0.0044
3.508,0.0003
3.509,-0
3.51,-0.0004
3.511,-0.0042
3.512,0.0033
3.513,-0.0024
3.514,0.0005
3.515,-0.0022
3.516,0.0053
3.517,0.0023
3.518,-0.0004
3.519,0.0018
3.52,0.0025
3.521,0.0141
3.522,0.019
3.523,0.0265
3.524,0.047
3.525,0.0499
3.526,0.0313
3.527,0.0093
3.528,0.0005
3.529,-0.0129
3.53,-0.02
3.531,-0.0222
3.532,-0.0242
3.533,-0.0297
3.534,-0.0281
3.535,-0.0176
3.536,-0.0163
3.537,-0.0174
3.538,-0.0163
3.539,-0.0032
3.54,-0.005
3.541,-0
3.542,-0.0044
3.543,-0.0057
3.544,-0.0068
3.545,-0.0079
3.546,-0.007
3.547,-0.0061
3.548,-0.0085
3.549,-0.0015
3.55,0.0049
3.551,0.0025
3.552,0.0141
3.553,0.0157
3.554,0.0232
3.555,0.0109
3.556,0.006
3.557,0.0016
3.558,-0.0024
3.559,-0.0013
3.56,-0.0024
3.561,-0.0033
3.562,-0.0079
3.563,-0.0072
3.564,-0.0002
3.565,-0.0011
3.566,-0.0004
3.567,0.0018
3.568,-0
3.569,0.0044
3.57,0.004
3.571,0.0045
3.572,0.012
3.573,0.0199
3.574,0.0351
3.575,0.0551
3.576,0.0417
3.577,0.015
3.578,-0.0028
3.579,-0.0123
3.58,-0.0211
3.581,-0.0237
3.582,-0.026
3.583,-0.0238
3.584,-0.0218
3.585,-0.02
3.586,-0.0183
3.587,-0.0169
3.588,-0.0101
3.589,-0.0066
3.59,0.0036
3.591,0.0023
3.592,-0.0037
3.593,-0.0004
3.594,-0.0033
3.595,-0.0042
3.596,-0.0066
3.597,0.0003
3.598,0.0012
3.599,-0.0011
3.6,-0.0004
3.601,0.0014
3.602,-0.0004
3.603,-0.001
3.604,0.0014
3.605,0.0011
3.606,-0
3.607,0.0034
3.608,0.0031
3.609,0.0051
3.61,0.004
3.611,0.0058
3.612,0.0012
3.613,0.0075
3.614,0.0082
3.615,0.006
3.616,0.0042
3.617,0.0023
3.618,-0.0004
3.619,-0
3.62,0.0022
3.621,-0.0048
3.622,0.0007
3.623,0.0091
3.624,0.0216
3.625,0.0432
3.626,0.0402
3.627,0.0216
3.628,0.0095
3.629,0.0029
3.63,-0.0112
3.631,-0.013
3.632,-0.018
3.633,-0.0194
3.634,-0.0235
3.635,-0.0224
3.636,-0.0145
3.637,-0.0116
3.638,-0.0143
3.639,-0.0086
3.64,-0.0094
3.641,-0.0048
3.642,0.0022
3.643,0.0031
3.644,0.0007
3.645,0.0045
3.646,0.0064
3.647,0.0058
3.648,-0.0026
3.649,-0.011
3.65,-0.0077
3.651,-0.0086
3.652,-0.0002
3.653,0.0031
3.654,-0.0019
3.655,0.0027
3.656,0.0034
3.657,0.0056
3.658,0.0038
3.659,0.0044
3.66,0.006
3.661,0.0036
3.662,0.004
3.663,0.0029
3.664,-0.0028
3.665,-0.0035
3.666,-0.0013
3.667,-0.0032
3.668,0.0064
3.669,-0.0004
3.67,-0.0015
3.671,-0.0004
3.672,0.0025
3.673,0.0055
3.674,0.0175
3.675,0.0258
3.676,0.0454
3.677,0.0428
3.678,0.0357
3.679,0.0291
3.68,0.0351
3.681,0.0369
3.682,0.012
3.683,-0.0057
3.684,-0.0218
3.685,-0.0367
3.686,-0.0341
3.687,-0.0365
3.688,-0.0387
3.689,-0.0326
3.69,-0.0235
3.691,-0.0185
3.692,-0.0171
3.693,-0.0183
3.694,-0.0123
3.695,-0.0156
3.696,-0.0185
3.697,-0.0176
3.698,-0.0136
3.699,-0.0083
3.7,-0.0064
3.701,-0.0046
3.702,-0.0019
3.703,-0.0032
3.704,-0.0053
3.705,-0.0015
3.706,0.004
3.707,0.0047
3.708,0.0029
3.709,0.0047
3.71,0.0042
3.711,0.0009
3.712,0.0078
3.713,0.0069
3.714,0.0042
3.715,0.0034
3.716,0.0012
3.717,0.0031
3.718,0.0075
3.719,-0.001
3.72,0.0001
3.721,0.008
3.722,0.013
3.723,0.0077
3.724,0.0086
3.725,0.0161
3.726,0.0293
3.727,0.0494
3.728,0.0573
3.729,0.0353
3.73,0.0146
3.731,0.0012
3.732,-0.0108
3.733,-0.0174
3.734,-0.0154
3.735,-0.0173
3.736,-0.0156
3.737,-0.0171
3.738,-0.0183
3.739,-0.0173
3.74,-0.014
3.741,-0.0149
3.742,-0.0121
3.743,-0.0129
3.744,-0.0013
3.745,0.0003
3.746,0.0047
3.747,0.0088
3.748,0.0003
3.749,-0.003
3.75,-0.0039
3.751,-0.0085
3.752,-0.0125
3.753,-0.0041
3.754,-0.0008
3.755,0.0042
3.756,0.0088
3.757,0.0031
3.758,0.0009
3.759,0.0055
3.76,0.0073
3.761,0.0089
3.762,0.0102
3.763,0.0042
3.764,0.0049
3.765,0.0042
3.766,-0.0021
3.767,-0.0013
3.768,0.0025
3.769,0.0031
3.77,-0
3.771,0.0038
3.772,0.0071
3.773,0.0001
3.774,-0.0026
3.775,-0.0017
3.776,-0.0026
3.777,0.0049
3.778,0.0201
3.779,0.0401
3.78,0.0322
3.781,0.0153
3.782,-0
3.783,-0.0061
3.784,-0.0116
3.785,-0.0132
3.786,-0.0176
3.787,-0.0216
3.788,-0.0227
3.789,-0.0238
3.79,-0.0147
3.791,-0.0207
3.792,-0.0083
3.793,-0.0066
3.794,-0.0081
3.795,-0.0068
3.796,-0.0008
3.797,-0.0041
3.798,0.0009
3.799,0.0148
3.8,0.0088
3.801,0.0069
3.802,-0.0046
3.803,-0.009
3.804,-0.0022
3.805,-0.0011
3.806,-0.0068
3.807,-0.0039
3.808,-0.0123
3.809,-0.0066
3.81,-0.0057
3.811,-0.0048
3.812,-0.0072
3.813,-0.005
3.814,-0.0004
3.815,0.0066
3.816,0.0038
3.817,0.0045
3.818,0.0007
3.819,0.0025
3.82,0.0007
3.821,0.0012
3.822,0.0025
3.823,0.0047
3.824,0.0093
3.825,0.004
3.826,0.0034
3.827,0.0119
3.828,0.0153
3.829,0.0232
3.83,0.0302
3.831,0.0348
3.832,0.0472
3.833,0.0234
3.834,0.0139
3.835,-0.001
3.836,-0.0143
3.837,-0.0215
3.838,-0.0237
3.839,-0.0257
3.84,-0.0202
3.841,-0.0251
3.842,-0.0207
3.843,-0.0167
3.844,-0.0132
3.845,-0.0099
3.846,-0.0129
3.847,-0.0101
3.848,-0.0077
3.849,-0.0099
3.85,-0.0037
3.851,-0.003
3.852,0.0023
3.853,0.0056
3.854,0.0126
3.855,0.0172
3.856,0.0247
3.857,0.0359
3.858,0.0402
3.859,0.0335
3.86,0.0199
3.861,0.0181
3.862,0.0066
3.863,-0.0039
3.864,-0.0052
3.865,-0.0187
3.866,-0.0242
3.867,-0.0357
3.868,-0.0462
3.869,-0.0557
3.87,-0.0522
3.871,-0.0489
3.872,-0.0519
3.873,-0.0509
3.874,-0.0584
3.875,-0.0654
3.876,-0.0773
3.877,-0.0912
3.878,-0.0892
3.879,-0.0947
3.88,-0.0964
3.881,-0.0828
3.882,-0.0773
3.883,-0.0757
3.884,-0.0621
3.885,-0.0676
3.886,-0.066
3.887,-0.0434
3.888,0.0053
3.889,0.0965
3.89,0.1338
3.891,0.1675
3.892,0.1572
3.893,0.1479
3.894,0.1395
3.895,0.1318
3.896,0.1109
3.897,0.1047
3.898,0.099
3.899,0.1041
3.9,0.1089
3.901,0.1217
3.902,0.1256
3.903,0.1433
3.904,0.1338
3.905,0.119
3.906,0.1056
3.907,0.0985
3.908,0.0875
3.909,0.0573
3.91,0.0009
3.911,-0.0068
3.912,-0.0138
3.913,-0.0075
3.914,-0.0132
3.915,-0.0394
3.916,-0.0537
3.917,-0.0579
3.918,-0.0462
3.919,-0.0497
3.92,-0.0528
3.921,-0.0498
3.922,-0.0632
3.923,-0.0704
3.924,-0.0725
3.925,-0.0665
3.926,-0.0683
3.927,-0.0693
3.928,-0.0676
3.929,-0.0691
3.93,-0.0568
3.931,-0.0418
3.932,-0.0357
3.933,-0.0229
3.934,-0.0046
3.935,-0.007
3.936,-0.027
3.937,-0.0511
3.938,-0.0606
3.939,-0.0636
3.94,-0.061
3.941,-0.0539
3.942,-0.0385
3.943,-0.0405
3.944,-0.0387
3.945,-0.0337
3.946,-0.0233
3.947,-0.022
3.948,-0.0209
3.949,-0.013
3.95,-0.018
3.951,-0.0152
3.952,-0.0077
3.953,0.0014
3.954,-0.0021
3.955,0.0036
3.956,0.0045
3.957,0.0018
3.958,0.0011
3.959,0.0003
3.96,0.0066
3.961,0.0122
3.962,0.0084
3.963,0.0146
3.964,0.0139
3.965,0.0086
3.966,0.008
3.967,0.0175
3.968,0.0216
3.969,0.0205
3.97,0.0194
3.971,0.0185
3.972,0.0157
3.973,0.0164
3.974,0.0142
3.975,0.0161
3.976,0.0166
3.977,0.0082
3.978,0.004
3.979,0.0075
3.98,0.0177
3.981,0.0164
3.982,0.0349
3.983,0.0536
3.984,0.0368
3.985,0.0168
3.986,0.0034
3.987,-0.0037
3.988,-0.0059
3.989,-0.0119
3.99,-0.0101
3.991,-0.0151
3.992,-0.0075
3.993,-0.0116
3.994,-0.0032
3.995,-0.0088
3.996,-0.0039
3.997,-0.0085
3.998,-0.001
3.999,0.006
4,-0.0042
4.001,-0.0055
4.002,0.0005
4.003,0.0016
4.004,-0.0013
4.005,-0.0041
4.006,0.0016
4.007,-0.0006
4.008,-0.0024
4.009,0.0007
4.01,0.0001
4.011,-0.0032
4.012,-0.0028
4.013,0.0034
4.014,0.0062
4.015,0.0069
4.016,0.0047
4.017,0.0109
4.018,0.0102
4.019,0.0124
4.02,0.0119
4.021,0.0088
4.022,0.0049
4.023,0.0025
4.024,-0.0044
4.025,-0.0114
4.026,-0.016
4.027,-0.0119
4.028,-0.0066
4.029,-0.0019
4.03,-0.0013
4.031,0.0031
4.032,0.0115
4.033,0.03
4.034,0.0487
4.035,0.0463
4.036,0.0485
4.037,0.0505
4.038,0.0377
4.039,0.0128
4.04,-0.005
4.041,-0.0211
4.042,-0.0182
4.043,-0.026
4.044,-0.0237
4.045,-0.0259
4.046,-0.0238
4.047,-0.033
4.048,-0.0215
4.049,-0.0229
4.05,-0.0242
4.051,-0.0277
4.052,-0.022
4.053,-0.0171
4.054,-0.0143
4.055,-0.0167
4.056,-0.0083
4.057,-0.005
4.058,-0.0059
4.059,-0.0068
4.06,0.0007
4.061,-0.0002
4.062,0.0044
4.063,0.0036
4.064,0.0029
4.065,0.0062
4.066,0.0067
4.067,0.0029
4.068,-0.0017
4.069,-0.0048
4.07,0.0003
4.071,0.0106
4.072,0.012
4.073,0.008
4.074,0.0141
4.075,0.0174
4.076,0.0082
4.077,0.0093
4.078,0.0036
4.079,0.0027
4.08,-0.0011
4.081,-0.0039
4.082,0.0069
4.083,0.0084
4.084,0.0289
4.085,0.0377
4.086,0.051
4.087,0.0243
4.088,-0.0006
4.089,-0.0037
4.09,-0.0066
4.091,-0.0092
4.092,-0.0068
4.093,-0.0134
4.094,-0.0235
4.095,-0.018
4.096,-0.0196
4.097,-0.0182
4.098,-0.0141
4.099,-0.0081
4.1,-0.0048
4.101,-0.0077
4.102,-0.0068
4.103,-0.0125
4.104,-0.001
4.105,0.0007
4.106,-0.0129
4.107,-0.0074
4.108,-0.0057
4.109,-0.0072
4.11,-0.0004
4.111,-0.0015
4.112,-0.0004
4.113,0.0066
4.114,0.0038
4.115,0.0031
4.116,0.0053
4.117,0.0047
4.118,0.0078
4.119,0.0152
4.12,0.006
4.121,0.0049
4.122,0.0082
4.123,0.0073
4.124,0.0009
4.125,-0.0032
4.126,0.0022
4.127,0.0016
4.128,-0.0079
4.129,-0.0039
4.13,-0.0074
4.131,-0.0011
4.132,-0.009
4.133,-0.0021
4.134,0.0064
4.135,0.0234
4.136,0.0355
4.137,0.0421
4.138,0.0401
4.139,0.0639
4.14,0.0608
4.141,0.034
4.142,0.0018
4.143,-0.0198
4.144,-0.0237
4.145,-0.0343
4.146,-0.0312
4.147,-0.0282
4.148,-0.0308
4.149,-0.0284
4.15,-0.0262
4.151,-0.0242
4.152,-0.0187
4.153,-0.0204
4.154,-0.0129
4.155,-0.0088
4.156,-0.0173
4.157,-0.0094
4.158,-0.0123
4.159,-0.0132
4.16,-0.0075
4.161,0.004
4.162,0.0122
4.163,0.0018
4.164,0.0058
4.165,0.0093
4.166,0.015
4.167,0.0018
4.168,0.0036
4.169,0.0053
4.17,0.0067
4.171,0.0027
4.172,0.0038
4.173,0.0071
4.174,0.0042
4.175,0.0051
4.176,0.0027
4.177,0.002
4.178,0.0025
4.179,0.0056
4.18,-0.0017
4.181,-0.0008
4.182,0.0033
4.183,0.0042
4.184,0.0066
4.185,0.0181
4.186,0.043
4.187,0.0608
4.188,0.0446
4.189,0.0298
4.19,0.0377
4.191,0.0448
4.192,0.0205
4.193,-0.0021
4.194,-0.0227
4.195,-0.0253
4.196,-0.0324
4.197,-0.0434
4.198,-0.0374
4.199,-0.0319
4.2,-0.0335
4.201,-0.0321
4.202,-0.0281
4.203,-0.0246
4.204,-0.0213
4.205,-0.0163
4.206,-0.0173
4.207,-0.0149
4.208,-0.0187
4.209,-0.0169
4.21,-0.0138
4.211,-0.0099
4.212,-0.0024
4.213,0.01
4.214,0.0051
4.215,0.0095
4.216,0.0082
4.217,0.0142
4.218,0.0175
4.219,0.0064
4.22,0.002
4.221,0.0007
4.222,0.0042
4.223,-0.0015
4.224,0.0034
4.225,0.0025
4.226,-0.005
4.227,-0.0041
4.228,0.0005
4.229,0.0045
4.23,0.0038
4.231,0.0056
4.232,0.0075
4.233,0.0055
4.234,0.0106
4.235,0.0208
4.236,0.0164
4.237,0.026
4.238,0.0371
4.239,0.0597
4.24,0.0628
4.241,0.0241
4.242,-0.0021
4.243,-0.0068
4.244,-0.0196
4.245,-0.0313
4.246,-0.0279
4.247,-0.031
4.248,-0.0222
4.249,-0.0248
4.25,-0.0176
4.251,-0.0198
4.252,-0.0218
4.253,-0.02
4.254,-0.0151
4.255,-0.0107
4.256,-0.0066
4.257,-0.0032
4.258,0.0025
4.259,-0.0004
4.26,0.0042
4.261,-0.005
4.262,-0.011
4.263,-0.0032
4.264,0.0018
4.265,0.0064
4.266,0.0071
4.267,0.0033
4.268,-0.003
4.269,0.0045
4.27,0.0075
4.271,0.0047
4.272,0.0071
4.273,0.0109
4.274,0.0104
4.275,0.0022
4.276,0.0055
4.277,0.0025
4.278,0.0016
4.279,0.004
4.28,-0.0013
4.281,-0.0032
4.282,-0.005
4.283,0.0023
4.284,-0.0004
4.285,-0.0033
4.286,0.0031
4.287,0.0055
4.288,0.0001
4.289,0.0007
4.29,0.0102
4.291,0.0197
4.292,0.0137
4.293,0.017
4.294,0.0199
4.295,0.019
4.296,0.0315
4.297,0.0443
4.298,0.026
4.299,-0.0008
4.3,-0.0185
4.301,-0.0216
4.302,-0.0304
4.303,-0.0279
4.304,-0.0255
4.305,-0.0233
4.306,-0.0213
4.307,-0.0231
4.308,-0.0182
4.309,-0.0226
4.31,-0.0213
4.311,-0.0129
4.312,-0.0118
4.313,-0.0026
4.314,-0.0086
4.315,-0.0075
4.316,-0.0066
4.317,-0.0021
4.318,0.0071
4.319,0.0036
4.32,0.0047
4.321,0.0038
4.322,0.0047
4.323,0.0023
4.324,0.0001
4.325,0.0034
4.326,0.0117
4.327,0.006
4.328,0.0069
4.329,0.0005
4.33,-0.0002
4.331,0.0005
4.332,0.0051
4.333,0.0108
4.334,0.0115
4.335,0.0047
4.336,0.0042
4.337,0.0137
4.338,0.015
4.339,0.0335
4.34,0.0468
4.341,0.0348
4.342,0.0238
4.343,0.0056
4.344,-0.0064
4.345,-0.013
4.346,-0.0231
4.347,-0.0213
4.348,-0.0229
4.349,-0.0215
4.35,-0.0174
4.351,-0.0209
4.352,-0.0198
4.353,-0.0189
4.354,-0.0105
4.355,-0.0116
4.356,-0.0125
4.357,-0.0097
4.358,-0.0105
4.359,0.0011
4.36,0.006
4.361,0.0016
4.362,0.0029
4.363,0.0018
4.364,0.0051
4.365,0.0022
4.366,-0.0006
4.367,-0.003
4.368,-0.0022
4.369,-0.0055
4.37,-0.0024
4.371,-0.003
4.372,0.0036
4.373,0.0009
4.374,0.0033
4.375,0.0117
4.376,0.015
4.377,0.008
4.378,0.0089
4.379,0.0066
4.38,0.0073
4.381,0.0027
4.382,0.0058
4.383,0.0031
4.384,0.0044
4.385,0.0066
4.386,0.0091
4.387,0.0064
4.388,0.012
4.389,0.0128
4.39,0.0229
4.391,0.0351
4.392,0.0567
4.393,0.0419
4.394,0.0177
4.395,-0.0048
4.396,-0.0196
4.397,-0.0171
4.398,-0.0194
4.399,-0.0304
4.4,-0.0324
4.401,-0.0379
4.402,-0.0297
4.403,-0.0222
4.404,-0.0127
4.405,-0.0116
4.406,-0.0059
4.407,-0.0088
4.408,-0.0097
4.409,-0.0074
4.41,-0.0021
4.411,-0.0039
4.412,-0.007
4.413,-0.0032
4.414,-0.0008
4.415,0.0014
4.416,0.0042
4.417,0.0007
4.418,0.0058
4.419,0.0012
4.42,0.0082
4.421,0.0091
4.422,0.0034
4.423,0.0073
4.424,0.0055
4.425,0.0023
4.426,-0.0004
4.427,-0.0028
4.428,0.0023
4.429,-0.0022
4.43,0.0022
4.431,0.0005
4.432,0.0029
4.433,0.0025
4.434,-0.0002
4.435,0.004
4.436,0.0056
4.437,0.0025
4.438,-0.005
4.439,0.0075
4.44,0.0124
4.441,0.0289
4.442,0.0267
4.443,0.0448
4.444,0.052
4.445,0.041
4.446,0.0229
4.447,0.006
4.448,-0.0094
4.449,-0.0154
4.45,-0.0282
4.451,-0.0299
4.452,-0.0255
4.453,-0.0242
4.454,-0.0207
4.455,-0.0218
4.456,-0.0169
4.457,-0.0215
4.458,-0.0222
4.459,-0.0183
4.46,-0.0094
4.461,-0.0129
4.462,-0.0118
4.463,-0.0108
4.464,-0.0063
4.465,-0.0039
4.466,-0
4.467,-0.0019
4.468,-0.0024
4.469,-0.003
4.47,-0.0017
4.471,-0.0068
4.472,0.0034
4.473,0.0078
4.474,0.0119
4.475,0.0058
4.476,0.0047
4.477,0.0117
4.478,0.0163
4.479,0.0088
4.48,0.0018
4.481,0.0082
4.482,0.0058
4.483,0.0036
4.484,0.0082
4.485,0.0064
4.486,0.0047
4.487,0.0023
4.488,0.0047
4.489,0.006
4.49,0.0106
4.491,0.0188
4.492,0.0221
4.493,0.0373
4.494,0.0527
4.495,0.0467
4.496,0.0192
4.497,-0.0004
4.498,-0.011
4.499,-0.0271
4.5,-0.0242
4.501,-0.0321
4.502,-0.0297
4.503,-0.0187
4.504,-0.0167
4.505,-0.0185
4.506,-0.0169
4.507,-0.0154
4.508,-0.0086
4.509,-0.0052
4.51,-0.0041
4.511,-0.009
4.512,-0.0099
4.513,-0.0107
4.514,-0.0085
4.515,-0.0039
4.516,0.0005
4.517,0.0044
4.518,0.0031
4.519,0.0027
4.52,0.0047
4.521,-0.001
4.522,0.0047
4.523,0.0025
4.524,0.0031
4.525,-0.0013
4.526,-0.0052
4.527,-0.0039
4.528,0.0031
4.529,0.0001
4.53,0.0066
4.531,0.0025
4.532,-0.0013
4.533,0.0005
4.534,0.0011
4.535,0.0095
4.536,0.0106
4.537,0.0185
4.538,0.0115
4.539,0.004
4.54,0.0086
4.541,0.0045
4.542,0.0067
4.543,0.0113
4.544,0.0208
4.545,0.0413
4.546,0.0326
4.547,0.03
4.548,0.0033
4.549,-0.0002
4.55,-0.0163
4.551,-0.0251
4.552,-0.0277
4.553,-0.0301
4.554,-0.0279
4.555,-0.0178
4.556,-0.0123
4.557,-0.0107
4.558,-0.0121
4.559,-0.0081
4.56,-0.007
4.561,-0.0127
4.562,-0.0097
4.563,-0.0088
4.564,-0.0112
4.565,-0.0105
4.566,-0.0072
4.567,-0.0041
4.568,0.0044
4.569,-0.0017
4.57,-0.005
4.571,-0.0041
4.572,0.0044
4.573,0.0077
4.574,0.0086
4.575,0.0095
4.576,0.0102
4.577,0.0033
4.578,-0.0032
4.579,-0.0039
4.58,-0.0032
4.581,-0.0013
4.582,0.0056
4.583,0.0047
4.584,0.004
4.585,0.0062
4.586,0.0029
4.587,-0.0002
4.588,0.0049
4.589,0.0111
4.59,0.0062
4.591,-0.003
4.592,0.0005
4.593,0.0108
4.594,0.0313
4.595,0.058
4.596,0.0474
4.597,0.0313
4.598,0.0045
4.599,0.008
4.6,-0.0015
4.601,-0.0163
4.602,-0.0189
4.603,-0.0213
4.604,-0.0235
4.605,-0.0215
4.606,-0.016
4.607,-0.0077
4.608,-0.0152
4.609,-0.022
4.61,-0.016
4.611,-0.0103
4.612,-0.0132
4.613,-0.0105
4.614,-0.0129
4.615,-0.0028
4.616,-0.0068
4.617,-0.0033
4.618,-0.0022
4.619,-0.0032
4.62,0.0071
4.621,0.0058
4.622,0.0069
4.623,0.0058
4.624,0.0067
4.625,0.0058
4.626,0.0098
4.627,0.0152
4.628,0.0133
4.629,0.0089
4.63,0.0051
4.631,0.0038
4.632,0.0051
4.633,-0.0011
4.634,-0.0002
4.635,-0.001
4.636,-0.0032
4.637,0.0031
4.638,0.0023
4.639,0.0016
4.64,0.0022
4.641,-0.0004
4.642,-0.0074
4.643,0.0066
4.644,0.0126
4.645,0.0327
4.646,0.0514
4.647,0.0346
4.648,0.0192
4.649,0.0051
4.65,-0.0114
4.651,-0.0136
4.652,-0.0156
4.653,-0.0248
4.654,-0.0231
4.655,-0.0216
4.656,-0.0204
4.657,-0.0119
4.658,-0.0152
4.659,-0.0083
4.66,-0.0092
4.661,-0.0116
4.662,-0.0032
4.663,-0.0021
4.664,-0.009
4.665,-0.0081
4.666,-0.0105
4.667,-0.0066
4.668,-0.0061
4.669,-0.0042
4.67,0.0009
4.671,-0.001
4.672,-0.0041
4.673,0.0044
4.674,0.0078
4.675,0.0135
4.676,0.0066
4.677,0.0056
4.678,0.0097
4.679,0.0135
4.68,0.0117
4.681,0.006
4.682,0.0022
4.683,-0.0024
4.684,-0.0081
4.685,-0.0074
4.686,-0.0055
4.687,-0.0074
4.688,-0.0068
4.689,-0.0044
4.69,-0.0022
4.691,-0.0011
4.692,-0.0011
4.693,0.0014
4.694,0.0069
4.695,0.0091
4.696,0.0194
4.697,0.0419
4.698,0.0324
4.699,0.0117
4.7,0.0038
4.701,-0.0033
4.702,-0.0055
4.703,-0.0116
4.704,-0.0171
4.705,-0.022
4.706,-0.0264
4.707,-0.0224
4.708,-0.0189
4.709,-0.011
4.71,-0.0119
4.711,-0.0165
4.712,-0.0108
4.713,-0.0024
4.714,-0.0035
4.715,0.0097
4.716,0.0152
4.717,0.0201
4.718,0.0157
4.719,0.0197
4.72,0.0208
4.721,0.0311
4.722,0.0271
4.723,0.0236
4.724,0.0203
4.725,0.0111
4.726,0.0027
4.727,0.006
4.728,-0.001
4.729,-0.0149
4.73,-0.029
4.731,-0.0454
4.732,-0.0608
4.733,-0.0669
4.734,-0.0614
4.735,-0.0531
4.736,-0.0456
4.737,-0.0469
4.738,-0.0581
4.739,-0.0595
4.74,-0.0801
4.741,-0.0888
4.742,-0.1022
4.743,-0.1161
4.744,-0.1185
4.745,-0.0985
4.746,-0.1064
4.747,-0.07
4.748,-0.0227
4.749,-0.029
4.75,-0.0346
4.751,-0.0085
4.752,0.0631
4.753,0.1349
4.754,0.1629
4.755,0.1713
4.756,0.1483
4.757,0.1274
4.758,0.1212
4.759,0.0924
4.76,0.0873
4.761,0.073
4.762,0.0772
4.763,0.089
4.764,0.1139
4.765,0.1234
4.766,0.1382
4.767,0.1408
4.768,0.1336
4.769,0.1182
4.77,0.1203
4.771,0.1221
4.772,0.0972
4.773,0.0435
4.774,0.0051
4.775,-0.0019
4.776,0.0044
4.777,-0.0129
4.778,-0.0284
4.779,-0.0427
4.78,-0.0555
4.781,-0.0359
4.782,-0.0324
4.783,-0.0356
4.784,-0.0443
4.785,-0.0577
4.786,-0.0649
4.787,-0.0714
4.788,-0.0694
4.789,-0.0713
4.79,-0.0729
4.791,-0.0714
4.792,-0.0702
4.793,-0.0667
4.794,-0.0663
4.795,-0.0696
4.796,-0.0627
4.797,-0.0506
4.798,-0.0323
4.799,-0.0202
4.8,-0.0002
4.801,-0.0081
4.802,-0.0152
4.803,-0.0262
4.804,-0.0363
4.805,-0.0454
4.806,-0.0471
4.807,-0.0427
4.808,-0.0414
4.809,-0.0354
4.81,-0.0297
4.811,-0.0288
4.812,-0.0297
4.813,-0.029
4.814,-0.0268
4.815,-0.0222
4.816,-0.0216
4.817,-0.0132
4.818,-0.0048
4.819,0.0031
4.82,0.008
4.821,0.0144
4.822,0.0185
4.823,0.0177
4.824,0.0131
4.825,0.0214
4.826,0.0135
4.827,0.0066
4.828,0.0001
4.829,0.0042
4.83,0.0049
4.831,0.0067
4.832,0.0111
4.833,0.0128
4.834,0.0152
4.835,0.012
4.836,0.0183
4.837,0.0155
4.838,0.0163
4.839,0.0141
4.84,0.0186
4.841,0.0117
4.842,0.0089
4.843,0.0082
4.844,0.0135
4.845,0.0128
4.846,0.0082
4.847,0.0113
4.848,0.0197
4.849,0.0232
4.85,0.0402
4.851,0.0523
4.852,0.0324
4.853,0.019
4.854,0.0022
4.855,-0.0088
4.856,-0.0149
4.857,-0.0204
4.858,-0.022
4.859,-0.0205
4.86,-0.0165
4.861,-0.0154
4.862,-0.0121
4.863,-0.0072
4.864,-0.0099
4.865,-0.014
4.866,-0.0086
4.867,-0.0068
4.868,0.0001
4.869,0.0011
4.87,-0.0013
4.871,-0.0006
4.872,0.0069
4.873,0.0078
4.874,0.0033
4.875,0.0009
4.876,0.0078
4.877,0.0069
4.878,0.0062
4.879,0.004
4.88,0.0022
4.881,0.0003
4.882,0.0042
4.883,0.0009
4.884,-0.0033
4.885,-0.0017
4.886,0.0049
4.887,0.004
4.888,0.0064
4.889,0.0102
4.89,0.0135
4.891,0.004
4.892,-0.0028
4.893,-0.0112
4.894,0.0012
4.895,0.0029
4.896,-0.0063
4.897,0.0073
4.898,0.0164
4.899,0.028
4.9,0.0445
4.901,0.0379
4.902,0.0157
4.903,0.0009
4.904,-0.007
4.905,-0.0046
4.906,-0.0112
4.907,-0.0213
4.908,-0.0194
4.909,-0.0145
4.91,-0.0101
4.911,-0.0114
4.912,-0.0149
4.913,-0.0116
4.914,-0.0046
4.915,-0.0019
4.916,-0.0042
4.917,-0.0064
4.918,-0.007
4.919,-0.0013
4.92,-0.0035
4.921,0.004
4.922,-0.003
4.923,-0.0075
4.924,-0.0052
4.925,-0.003
4.926,-0.0035
4.927,0.0034
4.928,-0.0011
4.929,-0.0004
4.93,0.0003
4.931,0.0036
4.932,0.0031
4.933,-0.0008
4.934,0.0005
4.935,0.0001
4.936,0.0005
4.937,-0.0013
4.938,0.0012
4.939,0.0058
4.94,0.004
4.941,-0.0004
4.942,0.0023
4.943,0.0056
4.944,0.0117
4.945,0.0141
4.946,0.0133
4.947,0.0033
4.948,0.0038
4.949,0.0133
4.95,0.0146
4.951,0.0135
4.952,0.0305
4.953,0.0525
4.954,0.0318
4.955,0.0077
4.956,-0.0085
4.957,-0.0114
4.958,-0.0248
4.959,-0.0271
4.96,-0.0205
4.961,-0.0185
4.962,-0.0277
4.963,-0.0293
4.964,-0.0249
4.965,-0.0154
4.966,-0.007
4.967,-0.0013
4.968,-0.0042
4.969,-0.0107
4.97,-0.0147
4.971,-0.0032
4.972,0.0051
4.973,-0.0053
4.974,-0.0066
4.975,-0.0055
4.976,-0.0088
4.977,-0.0039
4.978,-0.0123
4.979,-0.0044
4.98,-0.0053
4.981,-0.0026
4.982,0.0031
4.983,-0.0022
4.984,-0.0068
4.985,-0.0024
4.986,0.006
4.987,0.0245
4.988,0.0271
4.989,0.0199
4.99,0.0089
4.991,0.015
4.992,0.0058
4.993,0.0009
4.994,-0.0006
4.995,-0.0101
4.996,-0.0041
4.997,-0.003
4.998,-0.0055
4.999,-0.0046
5,0.0093
5.001,0.0113
5.002,0.0351
5.003,0.032
5.004,0.0291
5.005,0.0212
5.006,0.0091
5.007,-0.0019
5.008,-0.0079
5.009,-0.0097
5.01,-0.018
5.011,-0.0224
5.012,-0.0237
5.013,-0.0202
5.014,-0.0145
5.015,-0.0174
5.016,-0.0147
5.017,-0.0107
5.018,-0.0037
5.019,-0.0101
5.02,-0.0125
5.021,-0.0041
5.022,0.0038
5.023,0.0067
5.024,-0.0017
5.025,-0.0028
5.026,-0.0019
5.027,0.0045
5.028,0.017
5.029,0.0225
5.03,0.0075
5.031,0.0055
5.032,0.0036
5.033,-0.0046
5.034,-0.0032
5.035,-0.0019
5.036,-0.003
5.037,0.0027
5.038,0.0077
5.039,0.0086
5.04,0.0011
5.041,0.002
5.042,0.0011
5.043,0.0003
5.044,-0.0066
5.045,-0.0057
5.046,-0.0114
5.047,-0.003
5.048,-0.0041
5.049,-0.0114
5.05,-0.0064
5.051,0.0075
5.052,0.0175
5.053,0.023
5.054,0.038
5.055,0.0562
5.056,0.049
5.057,0.0203
5.058,0.0086
5.059,-0.0021
5.06,-0.0052
5.061,-0.014
5.062,-0.0218
5.063,-0.0242
5.064,-0.0264
5.065,-0.0244
5.066,-0.0226
5.067,-0.0176
5.068,-0.0191
5.069,-0.0259
5.07,-0.0224
5.071,-0.0167
5.072,-0.0075
5.073,-0.0015
5.074,-0.0026
5.075,-0.0017
5.076,-0.0008
5.077,-0.0032
5.078,-0.001
5.079,-0.0015
5.08,0.0016
5.081,-0.0035
5.082,-0.0002
5.083,-0.0021
5.084,-0.0015
5.085,0.0018
5.086,0.0088
5.087,0.0157
5.088,0.0093
5.089,0.0069
5.09,0.0091
5.091,0.0073
5.092,0.0042
5.093,0.0014
5.094,0.0047
5.095,0.0025
5.096,0.0036
5.097,-0.0021
5.098,-0.0028
5.099,0.0088
5.1,0.0157
5.101,0.0075
5.102,0.0179
5.103,0.0302
5.104,0.0384
5.105,0.0428
5.106,0.025
5.107,0.0031
5.108,0.0001
5.109,-0.0132
5.11,-0.0253
5.111,-0.0275
5.112,-0.0255
5.113,-0.02
5.114,-0.0118
5.115,-0.0132
5.116,0.0018
5.117,-0.0042
5.118,0.0012
5.119,0.0029
5.12,-0.0046
5.121,-0.0033
5.122,-0.0044
5.123,-0.0011
5.124,-0.0061
5.125,-0.0033
5.126,-0.0074
5.127,0.0027
5.128,-0.0068
5.129,-0.0103
5.13,-0.0114
5.131,-0.0022
5.132,-0.0083
5.133,-0.0004
5.134,0.0088
5.135,0.0053
5.136,0.0086
5.137,0.0056
5.138,0.0047
5.139,0.0104
5.14,0.0142
5.141,0.0137
5.142,0.0042
5.143,0.0029
5.144,0.0018
5.145,0.0051
5.146,0.0001
5.147,-0.0063
5.148,-0.007
5.149,-0.0048
5.15,-0.0094
5.151,-0.0114
5.152,-0.0057
5.153,-0.0064
5.154,0.0038
5.155,0.0234
5.156,0.0313
5.157,0.0337
5.158,0.0446
5.159,0.0386
5.16,0.0148
5.161,0.0373
5.162,0.0402
5.163,0.0161
5.164,-0.0064
5.165,-0.0213
5.166,-0.0292
5.167,-0.0363
5.168,-0.0385
5.169,-0.0405
5.17,-0.0387
5.171,-0.037
5.172,-0.0205
5.173,-0.0227
5.174,-0.0207
5.175,-0.0152
5.176,-0.0103
5.177,-0.0147
5.178,-0.0107
5.179,-0.0118
5.18,-0.0129
5.181,-0.0059
5.182,-0.0013
5.183,0.0011
5.184,0.0003
5.185,-0.0015
5.186,-0.0033
5.187,-0.0072
5.188,-0.0006
5.189,0.0058
5.19,0.0098
5.191,0.0168
5.192,0.0177
5.193,0.0102
5.194,0.0011
5.195,0.0022
5.196,-0.0035
5.197,0.0056
5.198,0.0045
5.199,0.0078
5.2,0.0049
5.201,0.0077
5.202,0.0091
5.203,0.0115
5.204,0.0185
5.205,0.0157
5.206,0.0282
5.207,0.0373
5.208,0.0622
5.209,0.0445
5.21,0.0283
5.211,0.0016
5.212,-0.009
5.213,-0.0185
5.214,-0.0215
5.215,-0.0189
5.216,-0.0118
5.217,-0.014
5.218,-0.02
5.219,-0.0218
5.22,-0.0202
5.221,-0.0216
5.222,-0.0094
5.223,-0.0143
5.224,-0.0158
5.225,-0.0008
5.226,-0.0028
5.227,-0.001
5.228,0.0007
5.229,0.0022
5.23,0.0009
5.231,-0.0002
5.232,-0.0035
5.233,0.0034
5.234,-0.005
5.235,0.0007
5.236,-0.0042
5.237,-0.0052
5.238,-0.0044
5.239,-0.0052
5.24,-0.0019
5.241,0.0077
5.242,0.0089
5.243,0.0055
5.244,0.0088
5.245,0.0018
5.246,0.0102
5.247,0.0135
5.248,0.0126
5.249,0.0023
5.25,-0.0044
5.251,-0.0055
5.252,0.0047
5.253,0.0062
5.254,0.013
5.255,0.0141
5.256,0.013
5.257,0.0261
5.258,0.0353
5.259,0.0304
5.26,0.0229
5.261,0.0133
5.262,0.0022
5.263,-0.0083
5.264,-0.0178
5.265,-0.0167
5.266,-0.0156
5.267,-0.0185
5.268,-0.0194
5.269,-0.0187
5.27,-0.0165
5.271,-0.0183
5.272,-0.0215
5.273,-0.013
5.274,0.0005
5.275,-0.005
5.276,-0.0099
5.277,-0.0143
5.278,-0.0075
5.279,-0.0015
5.28,-0.0004
5.281,0.0005
5.282,0.0033
5.283,0.004
5.284,-0.0044
5.285,-0.0055
5.286,-0.0046
5.287,-0
5.288,-0.0041
5.289,-0.0019
5.29,0.0027
5.291,-0.0042
5.292,-0.0033
5.293,-0.0026
5.294,-0.0019
5.295,-0
5.296,0.0005
5.297,-0.0057
5.298,-0.0033
5.299,0.002
5.3,0.0066
5.301,0.0135
5.302,-0.0004
5.303,0.0016
5.304,0.0055
5.305,0.0036
5.306,0.0152
5.307,0.0108
5.308,0.0313
5.309,0.0401
5.31,0.0375
5.311,0.0108
5.312,-0.007
5.313,-0.0039
5.314,-0.0127
5.315,-0.0152
5.316,-0.0129
5.317,-0.0151
5.318,-0.013
5.319,-0.0075
5.32,-0.0125
5.321,-0.02
5.322,-0.0187
5.323,-0.0075
5.324,-0.0061
5.325,-0.0101
5.326,0.0034
5.327,-0.0021
5.328,-0.0103
5.329,-0.0028
5.33,-0.0068
5.331,-0.0079
5.332,-0.0022
5.333,0.0047
5.334,0.0056
5.335,0.0064
5.336,0.0086
5.337,0.0148
5.338,0.0155
5.339,0.0117
5.34,0.0071
5.341,0.0027
5.342,0.0066
5.343,0.0042
5.344,-0.0028
5.345,-0.0057
5.346,-0.003
5.347,-0.0022
5.348,0.0016
5.349,-0.0059
5.35,0.0053
5.351,0.0097
5.352,0.0029
5.353,0.0018
5.354,-0.0015
5.355,-0.0026
5.356,-0.0017
5.357,-0.0026
5.358,-0.005
5.359,0.0066
5.36,0.0315
5.361,0.0564
5.362,0.0338
5.363,0.019
5.364,0.0056
5.365,-0.0112
5.366,-0.0178
5.367,-0.0238
5.368,-0.0257
5.369,-0.0174
5.37,-0.0218
5.371,-0.0231
5.372,-0.0119
5.373,-0.0044
5.374,-0.0057
5.375,-0.0022
5.376,-0.0055
5.377,-0.0085
5.378,-0.0075
5.379,-0.0083
5.38,-0.009
5.381,-0.0072
5.382,-0.0141
5.383,-0.0114
5.384,-0.0057
5.385,-0.005
5.386,-0.0055
5.387,-0.0074
5.388,-0.0011
5.389,0.0045
5.39,0.0038
5.391,-0.0037
5.392,-0.0046
5.393,-0.0037
5.394,0.0055
5.395,0.0066
5.396,0.0077
5.397,0.0229
5.398,0.0119
5.399,0.0058
5.4,0.004
5.401,0.0023
5.402,0.0038
5.403,0.0106
5.404,0.0117
5.405,0.015
5.406,0.0194
5.407,0.0223
5.408,0.0269
5.409,0.0229
5.41,0.0344
5.411,0.0294
5.412,0.0219
5.413,0.0069
5.414,-0.0032
5.415,-0.0086
5.416,-0.007
5.417,-0.0174
5.418,-0.0215
5.419,-0.0249
5.42,-0.0147
5.421,-0.016
5.422,-0.0149
5.423,-0.016
5.424,-0.0151
5.425,-0.016
5.426,-0.0103
5.427,-0.0064
5.428,-0.011
5.429,-0.0079
5.43,-0.0096
5.431,-0.0063
5.432,0.0007
5.433,-0.0042
5.434,-0.0033
5.435,-0.0026
5.436,-0.0079
5.437,-0.0017
5.438,0.0007
5.439,-0
5.44,0.0102
5.441,0.0177
5.442,0.0109
5.443,0.0075
5.444,-0.0028
5.445,-0.0068
5.446,-0.0079
5.447,-0.0046
5.448,-0.0075
5.449,0.0027
5.45,-0.0013
5.451,-0.0024
5.452,-0.0035
5.453,0.0056
5.454,0.0045
5.455,0.0102
5.456,-0.001
5.457,0.0047
5.458,0.0091
5.459,0.0214
5.46,0.0164
5.461,0.03
5.462,0.0538
5.463,0.0443
5.464,0.0236
5.465,-0.0006
5.466,-0.0101
5.467,-0.0189
5.468,-0.0268
5.469,-0.0389
5.47,-0.0279
5.471,-0.0218
5.472,-0.02
5.473,-0.0216
5.474,-0.0173
5.475,-0.0185
5.476,-0.0101
5.477,-0.0068
5.478,-0.0077
5.479,-0.0068
5.48,0.0023
5.481,0.0058
5.482,0.0091
5.483,0.0042
5.484,-0.0022
5.485,0.0034
5.486,0.0012
5.487,-0.0006
5.488,0.0064
5.489,0.0018
5.49,0.0025
5.491,0.0078
5.492,0.006
5.493,0.0066
5.494,0.006
5.495,0.0073
5.496,0.0115
5.497,0.0177
5.498,0.0185
5.499,0.0238
5.5,0.0313
5.501,0.0342
5.502,0.0296
5.503,0.0221
5.504,0.0152
5.505,0.0124
5.506,-0
5.507,-0.0055
5.508,-0.0085
5.509,-0.02
5.51,-0.0096
5.511,-0.0246
5.512,-0.0387
5.513,-0.0515
5.514,-0.063
5.515,-0.0555
5.516,-0.0487
5.517,-0.0476
5.518,-0.0352
5.519,-0.0335
5.52,-0.0411
5.521,-0.0616
5.522,-0.0704
5.523,-0.0782
5.524,-0.0951
5.525,-0.0929
5.526,-0.0747
5.527,-0.0819
5.528,-0.0709
5.529,-0.0689
5.53,-0.0634
5.531,-0.0552
5.532,-0.0326
5.533,0.0161
5.534,0.1212
5.535,0.1362
5.536,0.1497
5.537,0.1622
5.538,0.151
5.539,0.1203
5.54,0.0922
5.541,0.0838
5.542,0.0761
5.543,0.0692
5.544,0.0754
5.545,0.0811
5.546,0.1073
5.547,0.1215
5.548,0.1258
5.549,0.1296
5.55,0.1118
5.551,0.1023
5.552,0.0935
5.553,0.0802
5.554,0.0485
5.555,0.0183
5.556,-0.0013
5.557,-0.0048
5.558,0.0047
5.559,0.0018
5.56,-0.013
5.561,-0.0156
5.562,-0.0035
5.563,0.0164
5.564,0.0031
5.565,-0.0189
5.566,-0.0337
5.567,-0.0632
5.568,-0.0749
5.569,-0.0784
5.57,-0.0815
5.571,-0.0727
5.572,-0.0702
5.573,-0.0678
5.574,-0.07
5.575,-0.068
5.576,-0.0698
5.577,-0.0714
5.578,-0.0758
5.579,-0.0691
5.58,-0.0702
5.581,-0.0669
5.582,-0.0577
5.583,-0.0517
5.584,-0.0414
5.585,-0.0346
5.586,-0.0357
5.587,-0.0279
5.588,-0.0288
5.589,-0.0242
5.59,-0.0185
5.591,-0.0101
5.592,-0.0044
5.593,-0.0074
5.594,-0.0028
5.595,-0.0021
5.596,-0.0013
5.597,0.002
5.598,0.0038
5.599,0.0022
5.6,0.0025
5.601,0.0095
5.602,0.0086
5.603,0.0077
5.604,0.01
5.605,0.0108
5.606,0.0126
5.607,0.0082
5.608,0.0109
5.609,0.0164
5.61,0.0084
5.611,0.0062
5.612,0.0095
5.613,0.019
5.614,0.0313
5.615,0.0362
5.616,0.0348
5.617,0.036
5.618,0.0225
5.619,0.0499
5.62,0.0538
5.621,0.0289
5.622,0.0064
5.623,-0.0024
5.624,-0.0158
5.625,-0.0229
5.626,-0.0251
5.627,-0.0191
5.628,-0.0209
5.629,-0.0259
5.63,-0.0215
5.631,-0.0119
5.632,-0.0085
5.633,-0.0118
5.634,-0.0048
5.635,-0.0039
5.636,0.0001
5.637,0.0071
5.638,0.0025
5.639,-0.0015
5.64,0.0023
5.641,0.0042
5.642,0.0023
5.643,0.0029
5.644,0.0042
5.645,-0
5.646,0.0038
5.647,0.0051
5.648,0.0038
5.649,-0.0017
5.65,-0.001
5.651,0.0093
5.652,0.0078
5.653,0.0066
5.654,0.0055
5.655,0.0066
5.656,0.0036
5.657,-0.0028
5.658,-0.0052
5.659,-0.0013
5.66,0.0005
5.661,0.0091
5.662,0.0122
5.663,0.0207
5.664,0.0172
5.665,0.0342
5.666,0.051
5.667,0.0445
5.668,0.0183
5.669,0.0077
5.67,-0.0019
5.671,-0.0048
5.672,-0.0182
5.673,-0.0205
5.674,-0.0183
5.675,-0.0163
5.676,-0.0182
5.677,-0.0165
5.678,-0.0151
5.679,-0.0191
5.68,-0.0055
5.681,-0.0037
5.682,-0.0053
5.683,-0.0097
5.684,-0.003
5.685,-0.0041
5.686,-0.0052
5.687,0.0018
5.688,0.0027
5.689,-0.0048
5.69,0.0001
5.691,0.0029
5.692,0.0005
5.693,-0.0002
5.694,0.0016
5.695,0.0011
5.696,0.0049
5.697,0.0053
5.698,0.0049
5.699,0.0003
5.7,-0.0002
5.701,-0.0075
5.702,-0.0066
5.703,-0.0039
5.704,-0.0032
5.705,0.0053
5.706,-0.0004
5.707,-0.0033
5.708,0.0051
5.709,0.0084
5.71,-0.0028
5.711,0.0016
5.712,0.0062
5.713,0.0049
5.714,0.021
5.715,0.0232
5.716,0.0252
5.717,0.049
5.718,0.0521
5.719,0.0315
5.72,0.0073
5.721,-0.0022
5.722,-0.0229
5.723,-0.0255
5.724,-0.0231
5.725,-0.0209
5.726,-0.0189
5.727,-0.0171
5.728,-0.0088
5.729,-0.0074
5.73,-0.0086
5.731,-0.0097
5.732,-0.0108
5.733,-0.0099
5.734,-0.0127
5.735,-0.0119
5.736,-0.0081
5.737,-0.0075
5.738,-0.0057
5.739,-0.0085
5.74,-0.0088
5.741,-0.0066
5.742,-0.0004
5.743,0.0005
5.744,-0.0002
5.745,-0.0024
5.746,-0.0006
5.747,-0
5.748,0.0027
5.749,0.0023
5.75,0.0036
5.751,0.0098
5.752,0.0053
5.753,0.006
5.754,0.0082
5.755,0.0007
5.756,-0.0022
5.757,0.0005
5.758,-0.007
5.759,-0
5.76,0.0102
5.761,0.0142
5.762,0.0031
5.763,0.0003
5.764,0.0047
5.765,0.0115
5.766,0.0175
5.767,0.0073
5.768,0.006
5.769,0.0049
5.77,0.0152
5.771,0.0357
5.772,0.0445
5.773,0.0258
5.774,0.0089
5.775,-0.0021
5.776,-0.0202
5.777,-0.0226
5.778,-0.0292
5.779,-0.0312
5.78,-0.0257
5.781,-0.024
5.782,-0.0226
5.783,-0.0185
5.784,-0.0174
5.785,-0.0141
5.786,-0.0092
5.787,-0.0046
5.788,-0.0039
5.789,-0.0061
5.79,-0.0042
5.791,-0.0074
5.792,0.0011
5.793,0.0071
5.794,0.0038
5.795,-0.0011
5.796,0.0016
5.797,0.004
5.798,0.0062
5.799,-0
5.8,-0.0008
5.801,-0.003
5.802,0.0016
5.803,0.0022
5.804,0.0095
5.805,0.0086
5.806,0.0131
5.807,0.0155
5.808,0.0133
5.809,0.0071
5.81,0.0111
5.811,0.0073
5.812,0.0027
5.813,-0.0068
5.814,-0.0055
5.815,-0.0042
5.816,0.0093
5.817,0.0148
5.818,0.0397
5.819,0.0432
5.82,0.0337
5.821,0.0188
5.822,0.0001
5.823,-0.007
5.824,-0.0136
5.825,-0.0196
5.826,-0.0178
5.827,-0.0162
5.828,-0.0176
5.829,-0.0108
5.83,-0.0169
5.831,-0.0112
5.832,-0.0083
5.833,-0.0055
5.834,-0.0079
5.835,-0.001
5.836,-0.0037
5.837,-0.0013
5.838,-0.0114
5.839,-0.0127
5.84,-0.0138
5.841,-0.0081
5.842,-0.0032
5.843,-0.0022
5.844,-0.0097
5.845,-0.0068
5.846,-0.0077
5.847,-0.0021
5.848,0.0049
5.849,0.0022
5.85,0.0078
5.851,0.0086
5.852,0.0053
5.853,0.0071
5.854,0.0033
5.855,-0.0033
5.856,0.0031
5.857,-0.0026
5.858,-0.0004
5.859,0.0001
5.86,0.0058
5.861,-0.0057
5.862,-0.0041
5.863,0.0003
5.864,-0.0037
5.865,0.0018
5.866,-0.0017
5.867,0.0062
5.868,0.0071
5.869,0.021
5.87,0.0271
5.871,0.0362
5.872,0.0313
5.873,0.0509
5.874,0.0483
5.875,0.0216
5.876,0.0109
5.877,-0.0052
5.878,-0.0259
5.879,-0.0337
5.88,-0.0313
5.881,-0.0335
5.882,-0.0315
5.883,-0.0297
5.884,-0.0313
5.885,-0.027
5.886,-0.0174
5.887,-0.009
5.888,-0.0123
5.889,-0.0132
5.89,-0.0068
5.891,0.0007
5.892,-0.0022
5.893,0.0023
5.894,0.0064
5.895,0.0011
5.896,-0.0022
5.897,-0.0004
5.898,0.0001
5.899,0.0056
5.9,0.0003
5.901,-0.0042
5.902,-0.0048
5.903,0.0036
5.904,0.0025
5.905,0.0104
5.906,0.0075
5.907,-0.0028
5.908,-0.0015
5.909,-0.0004
5.91,0.0029
5.911,0.0058
5.912,0.0012
5.913,0.0053
5.914,0.0045
5.915,0.0064
5.916,0.0062
5.917,0.0005
5.918,0.012
5.919,0.0137
5.92,0.0212
5.921,0.0307
5.922,0.0296
5.923,0.0307
5.924,0.0258
5.925,0.0194
5.926,0.0234
5.927,0.0181
5.928,0.0271
5.929,0.0331
5.93,0.0207
5.931,0.0091
5.932,-0.0134
5.933,-0.0295
5.934,-0.0383
5.935,-0.0462
5.936,-0.0438
5.937,-0.0372
5.938,-0.0312
5.939,-0.0293
5.94,-0.031
5.941,-0.0266
5.942,-0.0253
5.943,-0.0092
5.944,-0.007
5.945,-0.013
5.946,-0.0112
5.947,-0.0096
5.948,-0.0052
5.949,-0.0011
5.95,0.0023
5.951,-0.001
5.952,-0.0019
5.953,-0.001
5.954,0.0082
5.955,0.0093
5.956,0.006
5.957,0.0051
5.958,0.0078
5.959,0.0055
5.96,0.0108
5.961,0.0075
5.962,0.0056
5.963,0.0051
5.964,0.0117
5.965,0.0089
5.966,0.0049
5.967,0.0062
5.968,0.0069
5.969,0.0075
5.97,0.0144
5.971,0.0247
5.972,0.0287
5.973,0.0322
5.974,0.0379
5.975,0.047
5.976,0.0359
5.977,0.0163
5.978,-0.0079
5.979,-0.0048
5.98,-0.0255
5.981,-0.0281
5.982,-0.016
5.983,-0.0138
5.984,-0.0037
5.985,-0.0165
5.986,-0.0182
5.987,-0.0138
5.988,-0.0178
5.989,-0.0143
5.99,-0.011
5.991,-0.0061
5.992,-0.0125
5.993,-0.0101
5.994,-0.0063
5.995,-0.0081
5.996,-0.0125
5.997,-0.0108
5.998,-0.0053
5.999,-0.0075
6,-0
6.001,0.0049
6.002,0.0022
6.003,0.0029
6.004,0.0036
6.005,0.0031
6.006,0.0049
6.007,0.0088
6.008,0.0084
6.009,0.0053
6.01,0.0115
6.011,0.0218
6.012,0.0122
6.013,0.0088
6.014,0.0009
6.015,0.0018
6.016,0.0045
6.017,-0.0046
6.018,0.0003
6.019,0.0014
6.02,0.0025
6.021,0.0117
6.022,0.0302
6.023,0.0435
6.024,0.0459
6.025,0.0216
6.026,-0.001
6.027,-0.0158
6.028,-0.0183
6.029,-0.0207
6.03,-0.0229
6.031,-0.0209
6.032,-0.0227
6.033,-0.0178
6.034,-0.0163
6.035,-0.0176
6.036,-0.0165
6.037,-0.0108
6.038,-0.0079
6.039,-0.007
6.04,-0.0145
6.041,-0.0096
6.042,-0.0068
6.043,-0.0011
6.044,-0.0004
6.045,0.0071
6.046,0.01
6.047,0.0055
6.048,0.0078
6.049,0.0086
6.05,0.008
6.051,0.0036
6.052,0.0064
6.053,0.0009
6.054,0.0078
6.055,0.0033
6.056,0.004
6.057,0.0033
6.058,0.0051
6.059,0.0056
6.06,-0.0017
6.061,0.0012
6.062,0.004
6.063,0.008
6.064,0.0042
6.065,-0.0033
6.066,-0.0024
6.067,0.0078
6.068,0.0038
6.069,0.004
6.07,-0.0044
6.071,0.008
6.072,-0.0035
6.073,0.019
6.074,0.0415
6.075,0.0327
6.076,0.0194
6.077,0.0025
6.078,-0.0129
6.079,-0.0189
6.08,-0.0244
6.081,-0.0194
6.082,-0.0151
6.083,-0.011
6.084,-0.0121
6.085,-0.02
6.086,-0.0171
6.087,-0.0107
6.088,-0.0066
6.089,-0.0088
6.09,-0.0042
6.091,-0.0138
6.092,-0.0178
6.093,-0.0143
6.094,0.0027
6.095,0.0003
6.096,0.0025
6.097,0.0045
6.098,-0.0046
6.099,-0.0063
6.1,-0.0019
6.101,-0.0006
6.102,0.0005
6.103,-0.0006
6.104,0.0023
6.105,-0.0022
6.106,0.0034
6.107,0.0042
6.108,0.0023
6.109,0.0018
6.11,-0.001
6.111,0.0014
6.112,-0.0037
6.113,0.0009
6.114,0.0066
6.115,0.0058
6.116,0.004
6.117,0.0022
6.118,0.006
6.119,-0.0015
6.12,0.0069
6.121,0.0126
6.122,0.0196
6.123,0.0298
6.124,0.0393
6.125,0.0478
6.126,0.0399
6.127,0.0247
6.128,-0.0085
6.129,-0.0227
6.13,-0.0185
6.131,-0.0303
6.132,-0.0268
6.133,-0.0173
6.134,-0.0085
6.135,-0.0163
6.136,-0.0187
6.137,-0.0165
6.138,-0.0105
6.139,-0.0123
6.14,-0.0041
6.141,-0.0026
6.142,-0.0013
6.143,-0.0074
6.144,0.0005
6.145,-0.0044
6.146,-0.0035
6.147,0.0022
6.148,0.0044
6.149,0.0062
6.15,0.0056
6.151,0.0062
6.152,0.0007
6.153,-0.0032
6.154,-0.0077
6.155,0.0018
6.156,0.0141
6.157,0.0091
6.158,0.0047
6.159,-0.0021
6.16,0.004
6.161,0.0007
6.162,0.0159
6.163,-0.0041
6.164,-0.0066
6.165,0.0005
6.166,-0.0061
6.167,0.004
6.168,0.0058
6.169,0.0009
6.17,-0.0006
6.171,0.0018
6.172,-0.0022
6.173,0.0113
6.174,0.0058
6.175,0.0208
6.176,0.0269
6.177,0.025
6.178,0.03
6.179,0.0225
6.18,0.0185
6.181,0.0124
6.182,0.0203
6.183,0.0355
6.184,0.0333
6.185,0.0111
6.186,-0.0156
6.187,-0.0334
6.188,-0.0429
6.189,-0.0458
6.19,-0.0484
6.191,-0.0412
6.192,-0.0434
6.193,-0.0374
6.194,-0.0319
6.195,-0.0237
6.196,-0.0193
6.197,-0.0125
6.198,-0.009
6.199,-0.0079
6.2,-0.005
6.201,-0.0041
6.202,-0.0064
6.203,-0.0072
6.204,0.0031
6.205,0.0045
6.206,-0.0022
6.207,-0.0011
6.208,0.0045
6.209,0.0075
6.21,0.0084
6.211,0.0027
6.212,0.0049
6.213,0.0016
6.214,0.0111
6.215,0.0098
6.216,0.0133
6.217,0.0122
6.218,0.0093
6.219,0.0157
6.22,0.0214
6.221,0.0098
6.222,0.0091
6.223,0.0075
6.224,0.015
6.225,0.0272
6.226,0.0521
6.227,0.0556
6.228,0.0395
6.229,0.0128
6.23,0.0022
6.231,-0.0074
6.232,-0.0044
6.233,-0.007
6.234,-0.0094
6.235,-0.016
6.236,-0.014
6.237,-0.0048
6.238,0.0001
6.239,-0.0013
6.24,-0.0081
6.241,-0.007
6.242,0.0009
6.243,0.0018
6.244,-0.0085
6.245,-0.0152
6.246,-0.0092
6.247,-0.0103
6.248,-0.0094
6.249,-0.014
6.25,-0.0132
6.251,-0.0125
6.252,-0.005
6.253,-0.0021
6.254,-0.0066
6.255,0.0009
6.256,0.012
6.257,0.0164
6.258,0.0152
6.259,0.0091
6.26,0.0012
6.261,-0.0057
6.262,-0.0121
6.263,-0.0097
6.264,-0.0151
6.265,-0.0105
6.266,-0.0061
6.267,-0.0088
6.268,-0.0075
6.269,-0.0044
6.27,-0.0064
6.271,-0.0008
6.272,-0.0015
6.273,0.0025
6.274,0.0047
6.275,0.0066
6.276,0.0161
6.277,0.0366
6.278,0.0514
6.279,0.0327
6.28,0.0256
6.281,0.0012
6.282,-0.0083
6.283,-0.0112
6.284,-0.0138
6.285,-0.0162
6.286,-0.0183
6.287,-0.0204
6.288,-0.0222
6.289,-0.0205
6.29,-0.0191
6.291,-0.0096
6.292,-0.0085
6.293,-0.0118
6.294,-0.0187
6.295,-0.0123
6.296,-0.0099
6.297,0.0016
6.298,-0.0033
6.299,-0.0019
6.3,0.0049
6.301,0.0038
6.302,0.0027
6.303,0.0077
6.304,0.0122
6.305,0.0082
6.306,0.0012
6.307,0.0003
6.308,-0.0004
6.309,-0.0042
6.31,0.006
6.311,0.0045
6.312,0.0086
6.313,0.0097
6.314,0.0064
6.315,-0.0006
6.316,0.0003
6.317,0.0095
6.318,0.013
6.319,0.0051
6.32,0.0203
6.321,0.0225
6.322,0.0326
6.323,0.0307
6.324,0.0377
6.325,0.0393
6.326,0.0498
6.327,0.0348
6.328,0.0609
6.329,0.0575
6.33,0.0479
6.331,0.0212
6.332,-0.011
6.333,-0.0238
6.334,-0.0356
6.335,-0.0605
6.336,-0.07
6.337,-0.0907
6.338,-0.0881
6.339,-0.0857
6.34,-0.0791
6.341,-0.0812
6.342,-0.0793
6.343,-0.081
6.344,-0.0975
6.345,-0.1218
6.346,-0.1313
6.347,-0.1462
6.348,-0.1487
6.349,-0.1319
6.35,-0.1253
6.351,-0.1072
6.352,-0.0755
6.353,-0.0627
6.354,-0.0509
6.355,-0.0332
6.356,0.0155
6.357,0.1067
6.358,0.169
6.359,0.1578
6.36,0.1475
6.361,0.1382
6.362,0.1298
6.363,0.1375
6.364,0.1305
6.365,0.1243
6.366,0.1071
6.367,0.1122
6.368,0.136
6.369,0.175
6.37,0.2116
6.371,0.2069
6.372,0.1853
6.373,0.1578
6.374,0.1329
6.375,0.1095
6.376,0.0802
6.377,0.0684
6.378,0.0291
6.379,0.0446
6.38,0.0494
6.381,0.0366
6.382,0.017
6.383,-0.0008
6.384,-0.0301
6.385,-0.0575
6.386,-0.0682
6.387,-0.0843
6.388,-0.0872
6.389,-0.0898
6.39,-0.0969
6.391,-0.0903
6.392,-0.0883
6.393,-0.0865
6.394,-0.0881
6.395,-0.0866
6.396,-0.0826
6.397,-0.0791
6.398,-0.0894
6.399,-0.0907
6.4,-0.0942
6.401,-0.0863
6.402,-0.0771
6.403,-0.0586
6.404,-0.0561
6.405,-0.0584
6.406,-0.0475
6.407,-0.0334
6.408,-0.0352
6.409,-0.027
6.41,-0.0313
6.411,-0.0218
6.412,-0.0183
6.413,-0.024
6.414,-0.0211
6.415,-0.009
6.416,-0.0008
6.417,0.0007
6.418,0.0075
6.419,0.004
6.42,-0.0039
6.421,0.0031
6.422,0.0115
6.423,0.0058
6.424,0.0067
6.425,0.0058
6.426,0.0098
6.427,0.0155
6.428,0.0239
6.429,0.025
6.43,0.0402
6.431,0.0602
6.432,0.0576
6.433,0.0357
6.434,0.015
6.435,0.0071
6.436,-0
6.437,-0.0066
6.438,-0.0127
6.439,-0.0108
6.44,-0.0125
6.441,-0.0081
6.442,-0.0094
6.443,-0.001
6.444,-0.0042
6.445,-0.0134
6.446,-0.0099
6.447,-0.0088
6.448,-0.0039
6.449,-0.0048
6.45,-0.0008
6.451,0.0077
6.452,0.0044
6.453,0.0053
6.454,0.0062
6.455,0.0055
6.456,0.0077
6.457,0.0044
6.458,0.0088
6.459,0.0036
6.46,0.0055
6.461,0.006
6.462,0.0122
6.463,0.0098
6.464,0.0091
6.465,0.0097
6.466,0.0102
6.467,0.0086
6.468,0.0119
6.469,0.0131
6.47,0.0077
6.471,0.0055
6.472,0.006
6.473,0.0066
6.474,0.0049
6.475,-0.0006
6.476,0.0001
6.477,0.0025
6.478,0.0031
6.479,0.0126
6.48,0.0058
6.481,0.0243
6.482,0.0538
6.483,0.0342
6.484,0.0236
6.485,0.0075
6.486,-0.0013
6.487,-0.0147
6.488,-0.0171
6.489,-0.0149
6.49,-0.0209
6.491,-0.0154
6.492,-0.0138
6.493,-0.0152
6.494,-0.0112
6.495,-0.0147
6.496,-0.0068
6.497,-0.0138
6.498,-0.0165
6.499,-0.0108
6.5,-0.0055
6.501,0.0047
6.502,0.0152
6.503,0.0164
6.504,0.008
6.505,0.0091
6.506,-0.0021
6.507,-0.0035
6.508,-0.0022
6.509,-0.0057
6.51,-0.0068
6.511,0.0023
6.512,-0.0037
6.513,0.0042
6.514,0.0051
6.515,0.0023
6.516,-0.0052
6.517,0.0018
6.518,-0.001
6.519,-0.0017
6.52,-0.0055
6.521,-0.001
6.522,0.0047
6.523,-0.0037
6.524,-0.0026
6.525,0.0003
6.526,0.0031
6.527,0.0038
6.528,-0.0004
6.529,-0.0011
6.53,0.0091
6.531,0.0316
6.532,0.0478
6.533,0.0448
6.534,0.0261
6.535,0.0093
6.536,-0.0017
6.537,-0.0037
6.538,-0.0055
6.539,-0.0171
6.54,-0.0215
6.541,-0.0202
6.542,-0.0191
6.543,-0.0224
6.544,-0.0132
6.545,-0.0143
6.546,-0.0176
6.547,-0.0127
6.548,-0.0099
6.549,-0.0092
6.55,-0.007
6.551,-0.0037
6.552,-0.0068
6.553,-0.0041
6.554,0.0034
6.555,0.0001
6.556,-0.0028
6.557,-0.0019
6.558,-0.0026
6.559,-0.0064
6.56,-0.0002
6.561,0.0005
6.562,-0.0079
6.563,0.0045
6.564,0.0062
6.565,0.0018
6.566,0.0058
6.567,0.0069
6.568,0.0012
6.569,-0.0017
6.57,0.0029
6.571,0.0069
6.572,0.0016
6.573,-0.0046
6.574,-0.0039
6.575,-0
6.576,0.0018
6.577,0.0088
6.578,-0.0052
6.579,-0.0041
6.58,-0.0021
6.581,0.0034
6.582,0.025
6.583,0.0399
6.584,0.0478
6.585,0.021
6.586,0.0104
6.587,0.0009
6.588,-0.0021
6.589,-0.0154
6.59,-0.0178
6.591,-0.0156
6.592,-0.0136
6.593,-0.0118
6.594,-0.0167
6.595,-0.0123
6.596,-0.0136
6.597,-0.0125
6.598,-0.0068
6.599,-0.0059
6.6,-0.0013
6.601,-0.0021
6.602,-0.0059
6.603,-0.0041
6.604,-0.001
6.605,-0.0004
6.606,-0.0079
6.607,-0.0022
6.608,0.0069
6.609,0.0034
6.61,0.0045
6.611,0.0055
6.612,0.0082
6.613,0.0025
6.614,-0.0013
6.615,0.0033
6.616,0.0038
6.617,0.0022
6.618,0.0045
6.619,0.0042
6.62,0.0031
6.621,0.0088
6.622,0.0064
6.623,0.0056
6.624,0.0011
6.625,0.0016
6.626,0.0044
6.627,0.0109
6.628,0.0025
6.629,0.0036
6.63,0.0003
6.631,-0.0006
6.632,0.0115
6.633,-0
6.634,0.0225
6.635,0.045
6.636,0.0302
6.637,0.006
6.638,-0.0035
6.639,-0.0123
6.64,-0.0149
6.641,-0.0173
6.642,-0.0151
6.643,-0.0211
6.644,-0.0193
6.645,-0.0143
6.646,-0.0129
6.647,-0.0116
6.648,-0.0127
6.649,-0.016
6.65,-0.013
6.651,-0.0121
6.652,-0.0081
6.653,-0.0011
6.654,-0.0002
6.655,-0.0026
6.656,-0.0019
6.657,0.0071
6.658,0.0036
6.659,-0.0042
6.66,0.0027
6.661,0.0018
6.662,-0.0006
6.663,-0.0013
6.664,-0.0019
6.665,-0
6.666,0.0038
6.667,-0.0008
6.668,0.0088
6.669,0.0293
6.67,0.0499
6.671,0.0633
6.672,0.0413
6.673,0.0384
6.674,0.0359
6.675,0.0238
6.676,0.0216
6.677,0.0115
6.678,0.0097
6.679,-0.0019
6.68,-0.0063
6.681,-0.0114
6.682,-0.0182
6.683,-0.0046
6.684,-0.0028
6.685,0.0155
6.686,0.0276
6.687,0.021
6.688,0.0029
6.689,-0.0092
6.69,-0.0292
6.691,-0.037
6.692,-0.0394
6.693,-0.0416
6.694,-0.0396
6.695,-0.0414
6.696,-0.0398
6.697,-0.0354
6.698,-0.0313
6.699,-0.0279
6.7,-0.029
6.701,-0.026
6.702,-0.0215
6.703,-0.0107
6.704,-0.0151
6.705,-0.0138
6.706,-0.0173
6.707,-0.0116
6.708,-0.0145
6.709,-0.0081
6.71,-0.0041
6.711,-0.0094
6.712,-0.0075
6.713,-0.0081
6.714,-0.0097
6.715,-0.0022
6.716,0.008
6.717,0.0067
6.718,0.0007
6.719,0.0086
6.72,-0.0026
6.721,0.0078
6.722,0.0091
6.723,0.008
6.724,0.0047
6.725,0.0077
6.726,0.0086
6.727,0.0029
6.728,0.0051
6.729,0.0033
6.73,0.0014
6.731,0.002
6.732,0.004
6.733,-0.0035
6.734,0.0135
6.735,0.0207
6.736,0.045
6.737,0.0481
6.738,0.0333
6.739,0.0199
6.74,-0.0021
6.741,-0.0169
6.742,-0.0143
6.743,-0.0119
6.744,-0.0097
6.745,0.0084
6.746,0.0012
6.747,-0.0053
6.748,0.0007
6.749,0.0025
6.75,-0.0057
6.751,-0.0072
6.752,-0.0085
6.753,-0.0074
6.754,-0.0107
6.755,-0.0116
6.756,-0.0052
6.757,-0.0028
6.758,-0.0021
6.759,-0.0015
6.76,-0.0059
6.761,-0.0053
6.762,-0.005
6.763,0.002
6.764,0.0049
6.765,-0.0015
6.766,-0.0022
6.767,0.0031
6.768,0.0049
6.769,0.0067
6.77,-0.0017
6.771,-0.0052
6.772,0.0005
6.773,0.0055
6.774,0.01
6.775,0.0157
6.776,0.0088
6.777,0.0115
6.778,0.0023
6.779,0.0058
6.78,0.0047
6.781,-0.0022
6.782,-0.0032
6.783,0.0047
6.784,0.0155
6.785,0.0141
6.786,0.0236
6.787,0.0371
6.788,0.0499
6.789,0.045
6.79,0.0315
6.791,0.0077
6.792,0.0045
6.793,-0.0103
6.794,-0.0182
6.795,-0.0205
6.796,-0.0227
6.797,-0.0167
6.798,-0.0149
6.799,-0.0165
6.8,-0.009
6.801,-0.0077
6.802,-0.0112
6.803,-0.0123
6.804,-0.0114
6.805,-0.005
6.806,-0.0026
6.807,-0.0019
6.808,-0
6.809,-0.0006
6.81,-0.0044
6.811,0.0022
6.812,0.0049
6.813,-0.0026
6.814,-0.0055
6.815,-0.001
6.816,-0.0002
6.817,0.002
6.818,0.0122
6.819,0.0078
6.82,-0.0017
6.821,-0.0006
6.822,0.0005
6.823,0.0157
6.824,0.0047
6.825,-0.0013
6.826,-0.0032
6.827,-0.0048
6.828,-0.0004
6.829,-0.0017
6.83,-0.0028
6.831,0.0005
6.832,-0.0004
6.833,-0.0032
6.834,-0.0011
6.835,-0.0103
6.836,0.0058
6.837,0.008
6.838,0.0181
6.839,0.0419
6.84,0.0514
6.841,0.0307
6.842,0.012
6.843,-0
6.844,-0.0066
6.845,-0.0086
6.846,-0.0178
6.847,-0.0227
6.848,-0.0242
6.849,-0.0255
6.85,-0.0194
6.851,-0.0205
6.852,-0.0176
6.853,-0.0092
6.854,-0.0103
6.855,-0.0094
6.856,-0.0066
6.857,-0.0042
6.858,-0.005
6.859,-0.0032
6.86,-0.0037
6.861,-0.0021
6.862,0.0012
6.863,0.0044
6.864,0.0005
6.865,0.0009
6.866,-0.0004
6.867,0.0042
6.868,0.0023
6.869,0.0062
6.87,0.0066
6.871,0.0034
6.872,0.008
6.873,0.0011
6.874,0.002
6.875,0.0044
6.876,0.0036
6.877,0.0042
6.878,-0.0053
6.879,0.0042
6.88,0.0031
6.881,-0.0026
6.882,0.0003
6.883,0.0124
6.884,0.0108
6.885,-0.0011
6.886,0.0003
6.887,0.0181
6.888,0.0109
6.889,0.0219
6.89,0.028
6.891,0.0335
6.892,0.0384
6.893,0.034
6.894,0.0163
6.895,0.0042
6.896,-0.0024
6.897,-0.0165
6.898,-0.0147
6.899,-0.0196
6.9,-0.0182
6.901,-0.0222
6.902,-0.0233
6.903,-0.0312
6.904,-0.022
6.905,-0.0185
6.906,-0.0196
6.907,-0.0127
6.908,-0.0154
6.909,-0.0114
6.91,-0.0061
6.911,-0.0055
6.912,-0.0138
6.913,-0.0081
6.914,0.0031
6.915,-0.0013
6.916,-0.0053
6.917,-0.0019
6.918,0.0038
6.919,0.0047
6.92,0.002
6.921,0.0012
6.922,0.0034
6.923,0.0053
6.924,0.0009
6.925,0.0036
6.926,-0.003
6.927,0.0091
6.928,0.0108
6.929,0.0033
6.93,0.0073
6.931,-0.0011
6.932,-0.0068
6.933,-0.0039
6.934,-0.0011
6.935,0.0012
6.936,0.0018
6.937,0.004
6.938,0.0142
6.939,0.0218
6.94,0.023
6.941,0.0391
6.942,0.0413
6.943,0.0232
6.944,0.0012
6.945,-0.0075
6.946,-0.0101
6.947,-0.003
6.948,-0.0052
6.949,-0.0233
6.95,-0.0209
6.951,-0.0143
6.952,-0.0123
6.953,-0.0141
6.954,-0.0125
6.955,-0.0081
6.956,-0.0068
6.957,-0.0103
6.958,-0.0114
6.959,-0.0044
6.96,-0.0072
6.961,-0.0112
6.962,-0.009
6.963,-0.0028
6.964,0.008
6.965,0.0095
6.966,0.0027
6.967,-0.0057
6.968,0.0022
6.969,0.0031
6.97,0.0077
6.971,-0.0048
6.972,0.0044
6.973,0.0093
6.974,0.0018
6.975,-0.0022
6.976,-0.0033
6.977,-0.0044
6.978,0.0025
6.979,0.0034
6.98,0.0027
6.981,0.0005
6.982,0.0051
6.983,-0.0019
6.984,0.0045
6.985,0.0053
6.986,-0
6.987,0.0055
6.988,-0.0008
6.989,-0.0032
6.99,-0.001
6.991,0.0036
6.992,-0.0008
6.993,0.0044
6.994,0.0133
6.995,0.0122
6.996,0.0066
6.997,0.0095
6.998,0.0234
6.999,0.0456
7,0.0188
7.001,0.0082
7.002,0.0051
7.003,-0.0097
7.004,-0.0123
7.005,-0.0194
7.006,-0.026
7.007,-0.02
7.008,-0.0182
7.009,-0.0231
7.01,-0.0156
7.011,-0.0169
7.012,-0.0134
7.013,-0.0032
7.014,-0.0127
7.015,-0.0066
7.016,-0.0055
7.017,0.0056
7.018,0.0071
7.019,-0.0024
7.02,-0.0035
7.021,-0.0046
7.022,0.0003
7.023,0.0049
7.024,0.0009
7.025,0.0031
7.026,-0.0044
7.027,-0.0094
7.028,-0.0066
7.029,-0.009
7.03,-0.0083
7.031,-0.0021
7.032,0.0088
7.033,0.0073
7.034,0.0168
7.035,0.0056
7.036,0.0071
7.037,0.0084
7.038,0.0047
7.039,0.0012
7.04,0.0091
7.041,0.0141
7.042,0.0186
7.043,0.0311
7.044,0.0439
7.045,0.0324
7.046,0.0128
7.047,-0.0006
7.048,-0.0077
7.049,-0.0143
7.05,-0.0123
7.051,-0.0141
7.052,-0.0158
7.053,-0.0114
7.054,-0.0101
7.055,-0.0112
7.056,-0.0079
7.057,-0.0108
7.058,-0.0099
7.059,-0.0092
7.06,-0.0085
7.061,-0.0103
7.062,-0.0134
7.063,-0.0118
7.064,-0.0085
7.065,-0.0053
7.066,0.0009
7.067,0.0055
7.068,0.0014
7.069,-0.0086
7.07,0.0009
7.071,0.0044
7.072,0.01
7.073,-0.0011
7.074,-0.0055
7.075,-0.0042
7.076,0.0018
7.077,0.0007
7.078,-0.0002
7.079,-0.0011
7.08,-0.0004
7.081,0.0018
7.082,-0.0015
7.083,-0.0021
7.084,-0.0015
7.085,-0.0028
7.086,-0.0041
7.087,-0.003
7.088,-0.0004
7.089,-0.0004
7.09,0.0029
7.091,0.0091
7.092,0.0175
7.093,0.03
7.094,0.0549
7.095,0.0371
7.096,0.021
7.097,0.0062
7.098,-0.0072
7.099,-0.0096
7.1,-0.0162
7.101,-0.0222
7.102,-0.0167
7.103,-0.0151
7.104,-0.0107
7.105,-0.0174
7.106,-0.0163
7.107,-0.0152
7.108,-0.0103
7.109,-0
7.11,-0.0013
7.111,-0.0074
7.112,-0.013
7.113,-0.0039
7.114,-0.0004
7.115,-0.0037
7.116,-0.0046
7.117,-0
7.118,0.0007
7.119,-0
7.12,0.0005
7.121,-0.0026
7.122,0.0036
7.123,0.0044
7.124,-0.0026
7.125,0.0001
7.126,0.0042
7.127,0.0003
7.128,-0.0002
7.129,-0.0021
7.13,0.0007
7.131,-0.0006
7.132,0.0025
7.133,0.0088
7.134,0.0115
7.135,0.0155
7.136,0.0148
7.137,0.0166
7.138,0.0197
7.139,0.026
7.14,0.0296
7.141,0.0388
7.142,0.0448
7.143,0.0369
7.144,0.0379
7.145,0.0463
7.146,0.0633
7.147,0.0269
7.148,0.0007
7.149,-0.0231
7.15,-0.0447
7.151,-0.0643
7.152,-0.0608
7.153,-0.0769
7.154,-0.0799
7.155,-0.0773
7.156,-0.0652
7.157,-0.0542
7.158,-0.0563
7.159,-0.0654
7.16,-0.0804
7.161,-0.0905
7.162,-0.0996
7.163,-0.1147
7.164,-0.1207
7.165,-0.1115
7.166,-0.1132
7.167,-0.1028
7.168,-0.096
7.169,-0.0949
7.17,-0.0779
7.171,-0.0414
7.172,0.0373
7.173,0.1615
7.174,0.1779
7.175,0.193
7.176,0.1521
7.177,0.1397
7.178,0.106
7.179,0.0752
7.18,0.0659
7.181,0.0406
7.182,0.0329
7.183,0.0679
7.184,0.0868
7.185,0.104
7.186,0.1195
7.187,0.1148
7.188,0.1276
7.189,0.1159
7.19,0.1193
7.191,0.1087
7.192,0.0862
7.193,0.0774
7.194,0.0532
7.195,0.0628
7.196,0.0598
7.197,0.0412
7.198,0.0243
7.199,0.0089
7.2,-0.0092
7.201,-0.026
7.202,-0.046
7.203,-0.0434
7.204,-0.0411
7.205,-0.0476
7.206,-0.0537
7.207,-0.0482
7.208,-0.0531
7.209,-0.0517
7.21,-0.0612
7.211,-0.0647
7.212,-0.0658
7.213,-0.0707
7.214,-0.0735
7.215,-0.0711
7.216,-0.0733
7.217,-0.0751
7.218,-0.0746
7.219,-0.0718
7.22,-0.0643
7.221,-0.0586
7.222,-0.0475
7.223,-0.04
7.224,-0.0412
7.225,-0.0378
7.226,-0.0321
7.227,-0.0312
7.228,-0.0209
7.229,-0.0196
7.23,-0.0185
7.231,-0.0129
7.232,-0.0079
7.233,-0.007
7.234,0.0005
7.235,-0.0044
7.236,-0.0017
7.237,0.0023
7.238,0.0031
7.239,0.0106
7.24,0.0115
7.241,0.0142
7.242,0.0077
7.243,0.0084
7.244,0.0091
7.245,0.0124
7.246,0.0155
7.247,0.0239
7.248,0.0375
7.249,0.0576
7.25,0.039
7.251,0.0221
7.252,-0.0066
7.253,-0.0028
7.254,-0.0063
7.255,-0.0158
7.256,0.0049
7.257,-0.0085
7.258,-0.0061
7.259,-0.0171
7.26,-0.0191
7.261,-0.0136
7.262,-0.0086
7.263,-0.0042
7.264,-0.0055
7.265,-0.0044
7.266,-0.0011
7.267,0.0018
7.268,0.0009
7.269,0.0033
7.27,0.0055
7.271,0.0117
7.272,0.0093
7.273,0.004
7.274,0.0086
7.275,0.008
7.276,0.0097
7.277,0.0051
7.278,0.0056
7.279,0.0062
7.28,0.0075
7.281,0.0078
7.282,0.0051
7.283,0.0086
7.284,0.0064
7.285,0.0075
7.286,0.0086
7.287,0.006
7.288,0.0093
7.289,0.0051
7.29,0.0056
7.291,0.0044
7.292,0.0047
7.293,0.0011
7.294,-0.001
7.295,0.0047
7.296,0.0172
7.297,0.019
7.298,0.0439
7.299,0.0545
7.3,0.0252
7.301,0.0135
7.302,-0.0042
7.303,-0.0138
7.304,-0.0108
7.305,-0.0187
7.306,-0.0163
7.307,-0.0185
7.308,-0.0205
7.309,-0.0224
7.31,-0.0174
7.311,-0.0039
7.312,-0.0167
7.313,-0.0085
7.314,-0.001
7.315,-0.0077
7.316,-0.0042
7.317,-0.0075
7.318,-0.0026
7.319,-0.0053
7.32,-0.0046
7.321,-0.0024
7.322,0.0051
7.323,-0.0019
7.324,0.0027
7.325,0.0051
7.326,0.0012
7.327,-0.0006
7.328,0.0012
7.329,0.0007
7.33,0.002
7.331,0.0007
7.332,0.0018
7.333,0.0029
7.334,0.0033
7.335,0.0034
7.336,0.0077
7.337,0.0045
7.338,0.0018
7.339,0.0051
7.34,-0.001
7.341,0.0014
7.342,0.0007
7.343,0.0012
7.344,-0.0026
7.345,-0.0008
7.346,0.0066
7.347,0.0115
7.348,0.0254
7.349,0.0435
7.35,0.0412
7.351,0.0258
7.352,0.0157
7.353,-0.0044
7.354,-0.0178
7.355,-0.0154
7.356,-0.0132
7.357,-0.0152
7.358,-0.0207
7.359,-0.0191
7.36,-0.0205
7.361,-0.0218
7.362,-0.0207
7.363,-0.0151
7.364,-0.0101
7.365,-0.0055
7.366,-0.0112
7.367,-0.0151
7.368,-0.0061
7.369,-0.0026
7.37,-0.0037
7.371,-0.0008
7.372,0.0038
7.373,-0.0002
7.374,-0.0024
7.375,0.0009
7.376,0.0003
7.377,0.0031
7.378,-0.0015
7.379,0.0016
7.38,-0
7.381,0.0003
7.382,-0.0019
7.383,0.002
7.384,0.0016
7.385,-0.0015
7.386,0.0012
7.387,0.0009
7.388,0.0034
7.389,0.0067
7.39,0.0055
7.391,0.0066
7.392,0.0031
7.393,0.0009
7.394,0.002
7.395,0.0033
7.396,0.0007
7.397,0.0062
7.398,0.0177
7.399,0.0426
7.4,0.0391
7.401,0.0166
7.402,0.0018
7.403,-0.0008
7.404,-0.0129
7.405,-0.0151
7.406,-0.013
7.407,-0.0112
7.408,-0.0162
7.409,-0.0118
7.41,-0.013
7.411,-0.0141
7.412,-0.013
7.413,-0.0121
7.414,-0.0112
7.415,-0.0088
7.416,-0.005
7.417,-0.0068
7.418,-0.0011
7.419,-0.0004
7.42,0.0014
7.421,0.0009
7.422,0.0003
7.423,-0.0021
7.424,0.0022
7.425,-0.0006
7.426,0.0027
7.427,0.0014
7.428,0.0042
7.429,0.0016
7.43,0.0071
7.431,0.0001
7.432,-0.0008
7.433,0.0117
7.434,0.0098
7.435,0.0082
7.436,0.0097
7.437,0.0029
7.438,0.0064
7.439,-0.0015
7.44,-0.0006
7.441,-0.0015
7.442,0.0077
7.443,0.0042
7.444,0.0031
7.445,0.0001
7.446,-0.0004
7.447,0.0023
7.448,0.0148
7.449,0.0166
7.45,0.0117
7.451,0.0342
7.452,0.0437
7.453,0.0289
7.454,0.0102
7.455,-0.0019
7.456,-0.0173
7.457,-0.0152
7.458,-0.0207
7.459,-0.0158
7.46,-0.0202
7.461,-0.0215
7.462,-0.0226
7.463,-0.0193
7.464,-0.0143
7.465,-0.0116
7.466,-0.0108
7.467,-0.0116
7.468,-0.0083
7.469,-0.0039
7.47,-0.0044
7.471,-0.0048
7.472,-0.007
7.473,-0.0059
7.474,-0.007
7.475,-0.0015
7.476,0.0023
7.477,0.0018
7.478,-0
7.479,0.0005
7.48,0.0029
7.481,0.0007
7.482,0.0027
7.483,0.0031
7.484,0.0034
7.485,0.008
7.486,0.0183
7.487,0.0139
7.488,0.0071
7.489,0.0036
7.49,0.0003
7.491,0.0012
7.492,-0.0033
7.493,-0.0074
7.494,-0.0081
7.495,-0.0063
7.496,-0.0044
7.497,-0.0033
7.498,-0.0028
7.499,0.0047
7.5,0.0218
7.501,0.0386
7.502,0.0408
7.503,0.0267
7.504,0.0102
7.505,-0.0052
7.506,-0.0112
7.507,-0.0094
7.508,-0.0176
7.509,-0.0132
7.51,-0.0145
7.511,-0.0134
7.512,-0.0101
7.513,-0.011
7.514,-0.0083
7.515,-0.009
7.516,-0.0083
7.517,-0.005
7.518,-0.0068
7.519,0.0005
7.52,-0.0004
7.521,-0.0013
7.522,0.0011
7.523,0.0003
7.524,0.0009
7.525,0.0014
7.526,0.0009
7.527,0.0022
7.528,-0
7.529,0.002
7.53,-0.0006
7.531,0.0049
7.532,0.0027
7.533,0.006
7.534,0.0029
7.535,-0.001
7.536,-0.0006
7.537,0.0036
7.538,0.0042
7.539,0.0038
7.54,0.0051
7.541,0.0023
7.542,-0.0002
7.543,0.0009
7.544,0.0055
7.545,0.0036
7.546,0.0042
7.547,0.0036
7.548,0.0025
7.549,0.008
7.55,0.0196
7.551,0.0146
7.552,0.0161
7.553,0.0338
7.554,0.041
7.555,0.021
7.556,0.0023
7.557,-0.0048
7.558,-0.0158
7.559,-0.0178
7.56,0.0097
7.561,0.0609
7.562,0.0679
7.563,0.0617
7.564,0.056
7.565,0.0509
7.566,0.0461
7.567,0.0333
7.568,0.0216
7.569,0.0181
7.57,0.0086
7.571,-0.0002
7.572,-0.0081
7.573,-0.0105
7.574,-0.0215
7.575,-0.0235
7.576,-0.0326
7.577,-0.0376
7.578,-0.0332
7.579,-0.0319
7.58,-0.0379
7.581,-0.0436
7.582,-0.0427
7.583,-0.04
7.584,-0.0407
7.585,-0.04
7.586,-0.0394
7.587,-0.0389
7.588,-0.0337
7.589,-0.0356
7.59,-0.0337
7.591,-0.0332
7.592,-0.0308
7.593,-0.0266
7.594,-0.0271
7.595,-0.0248
7.596,-0.0244
7.597,-0.0248
7.598,-0.0205
7.599,-0.0187
7.6,-0.0149
7.601,-0.0125
7.602,-0.0055
7.603,0.0097
7.604,0.034
7.605,0.0309
7.606,0.0161
7.607,0.0027
7.608,-0.0044
7.609,-0.0154
7.61,-0.0174
7.611,-0.0193
7.612,-0.0176
7.613,-0.0191
7.614,-0.0178
7.615,-0.0143
7.616,-0.011
7.617,-0.0061
7.618,-0.007
7.619,-0.0046
7.62,-0.0024
7.621,0.0022
7.622,0.0027
7.623,0.0044
7.624,0.0031
7.625,0.0044
7.626,0.0071
7.627,0.0075
7.628,0.0093
7.629,0.01
7.63,0.0093
7.631,0.0086
7.632,0.0091
7.633,0.0077
7.634,0.0089
7.635,0.0106
7.636,0.012
7.637,0.0091
7.638,0.0111
7.639,0.0077
7.64,0.008
7.641,0.0084
7.642,0.0109
7.643,0.0077
7.644,0.0097
7.645,0.0055
7.646,0.0082
7.647,0.0058
7.648,0.0036
7.649,0.0033
7.65,0.0084
7.651,0.0119
7.652,0.0188
7.653,0.0238
7.654,0.0377
7.655,0.0437
7.656,0.0272
7.657,0.0119
7.658,0.0018
7.659,-0.0074
7.66,-0.0123
7.661,-0.0167
7.662,-0.0099
7.663,-0.0134
7.664,-0.0145
7.665,-0.0116
7.666,-0.0143
7.667,-0.0086
7.668,-0.0125
7.669,-0.013
7.67,-0.0086
7.671,-0.0059
7.672,-0.0035
7.673,-0.0057
7.674,-0.003
7.675,-0.0026
7.676,-0.0008
7.677,-0
7.678,-0.0002
7.679,-0.0026
7.68,-0.0019
7.681,-0
7.682,0.0001
7.683,0.0003
7.684,-0.0002
7.685,0.0027
7.686,0.0023
7.687,0.0066
7.688,0.0014
7.689,0.002
7.69,0.0001
7.691,0.0029
7.692,0.0042
7.693,0.0029
7.694,0.0025
7.695,-0
7.696,0.004
7.697,0.0053
7.698,0.004
7.699,-0.0015
7.7,0.0023
7.701,0.0033
7.702,0.0038
7.703,0.0133
7.704,0.0174
7.705,0.0359
7.706,0.0437
7.707,0.0413
7.708,0.026
7.709,0.0078
7.71,0.0007
7.711,-0.0059
7.712,-0.0119
7.713,-0.0174
7.714,-0.0158
7.715,-0.0173
7.716,-0.0185
7.717,-0.0125
7.718,-0.0158
7.719,-0.0129
7.72,-0.0119
7.721,-0.0096
7.722,-0.0074
7.723,-0.0028
7.724,-0.0072
7.725,-0.0055
7.726,-0.0052
7.727,-0.0048
7.728,-0.0002
7.729,0.0003
7.73,0.0088
7.731,0.0122
7.732,0.0155
7.733,0.0126
7.734,0.0023
7.735,0.0011
7.736,0.0022
7.737,-0.0035
7.738,-0.0026
7.739,-0.0035
7.74,-0.0042
7.741,0.0011
7.742,0.0005
7.743,-0
7.744,-0.0028
7.745,-0.0015
7.746,0.0016
7.747,0.002
7.748,0.0009
7.749,0.0005
7.75,0.0045
7.751,0.0029
7.752,0.0011
7.753,-0.0013
7.754,-0
7.755,0.0062
7.756,0.0201
7.757,0.0302
7.758,0.0393
7.759,0.041
7.76,0.0274
7.761,0.0036
7.762,0.0005
7.763,-0.0143
7.764,-0.0169
7.765,-0.0193
7.766,-0.0259
7.767,-0.0238
7.768,-0.022
7.769,-0.0171
7.77,-0.0185
7.771,-0.0145
7.772,-0.0085
7.773,-0.0074
7.774,-0.0064
7.775,-0.0019
7.776,-0.0026
7.777,0.0044
7.778,-0.0021
7.779,-0.0044
7.78,-0.0037
7.781,-0.0032
7.782,-0.005
7.783,-0.0077
7.784,-0.0081
7.785,-0.0021
7.786,0.002
7.787,0.0058
7.788,0.0077
7.789,0.0071
7.79,0.0098
7.791,0.0075
7.792,0.0071
7.793,0.0051
7.794,0.0033
7.795,0.0014
7.796,0.0047
7.797,0.0025
7.798,0.0005
7.799,-0.0006
7.8,0.0012
7.801,0.0011
7.802,0.0053
7.803,0.0018
7.804,0.0049
7.805,0.0133
7.806,0.0318
7.807,0.0397
7.808,0.0468
7.809,0.0315
7.81,0.0174
7.811,0.0045
7.812,-0.0004
7.813,-0.0048
7.814,-0.0116
7.815,-0.0105
7.816,-0.0116
7.817,-0.0145
7.818,-0.0154
7.819,-0.0178
7.82,-0.02
7.821,-0.0167
7.822,-0.011
7.823,-0.0103
7.824,-0.0108
7.825,-0.009
7.826,-0.0085
7.827,-0.0072
7.828,-0.0059
7.829,-0.0048
7.83,-0.0037
7.831,-0.0041
7.832,-0.0039
7.833,0.0003
7.834,0.0009
7.835,-0.0008
7.836,0.0005
7.837,0.0018
7.838,-0.0028
7.839,0.0016
7.84,0.0011
7.841,0.0007
7.842,0.002
7.843,0.0016
7.844,0.002
7.845,0.0016
7.846,0.0009
7.847,-0.001
7.848,0.0031
7.849,0.0036
7.85,0.0023
7.851,-0.0008
7.852,0.0031
7.853,0.0064
7.854,0.004
7.855,0.0018
7.856,0.008
7.857,0.0016
7.858,0.0141
7.859,0.0415
7.86,0.0298
7.861,0.012
7.862,-0.0041
7.863,-0.0129
7.864,-0.0103
7.865,-0.0174
7.866,-0.0152
7.867,-0.0173
7.868,-0.0118
7.869,-0.0134
7.87,-0.0119
7.871,-0.0107
7.872,-0.0096
7.873,-0.0085
7.874,-0.0075
7.875,-0.003
7.876,-0.007
7.877,-0.0048
7.878,-0.0053
7.879,-0.0059
7.88,-0.0053
7.881,0.0012
7.882,-0.0015
7.883,-0.0008
7.884,-0.0046
7.885,-0.0041
7.886,-0.001
7.887,0.0029
7.888,0.0016
7.889,0.0058
7.89,0.0064
7.891,0.0088
7.892,0.0056
7.893,0.0119
7.894,0.0164
7.895,0.0205
7.896,0.0258
7.897,0.0304
7.898,0.0322
7.899,0.0294
7.9,0.0219
7.901,0.0186
7.902,0.0177
7.903,0.0093
7.904,0.0104
7.905,0.0025
7.906,-0.0066
7.907,-0.0178
7.908,-0.0134
7.909,-0.0174
7.91,-0.0185
7.911,-0.0196
7.912,-0.0205
7.913,-0.027
7.914,-0.0394
7.915,-0.0522
7.916,-0.0506
7.917,-0.0641
7.918,-0.0806
7.919,-0.0872
7.92,-0.0932
7.921,-0.1024
7.922,-0.1273
7.923,-0.1167
7.924,-0.1072
7.925,-0.1042
7.926,-0.0964
7.927,-0.0987
7.928,-0.0788
7.929,-0.0546
7.93,-0.0059
7.931,0.0992
7.932,0.1442
7.933,0.1578
7.934,0.1703
7.935,0.1591
7.936,0.1283
7.937,0.0816
7.938,0.0564
7.939,0.0487
7.94,0.0278
7.941,0.0467
7.942,0.0523
7.943,0.0679
7.944,0.0917
7.945,0.1045
7.946,0.1084
7.947,0.1118
7.948,0.1214
7.949,0.1184
7.95,0.0998
7.951,0.0681
7.952,0.0465
7.953,0.0348
7.954,0.0313
7.955,0.0282
7.956,0.0223
7.957,0.0311
7.958,0.0285
7.959,0.0164
7.96,0.0098
7.961,0.0078
7.962,0.0097
7.963,-0.0053
7.964,-0.0235
7.965,-0.0403
7.966,-0.0513
7.967,-0.0614
7.968,-0.0632
7.969,-0.0682
7.97,-0.0725
7.971,-0.0738
7.972,-0.0773
7.973,-0.0762
7.974,-0.0753
7.975,-0.0762
7.976,-0.0654
7.977,-0.055
7.978,-0.0537
7.979,-0.0548
7.98,-0.0581
7.981,-0.0531
7.982,-0.0522
7.983,-0.0465
7.984,-0.0427
7.985,-0.0365
7.986,-0.0324
7.987,-0.0317
7.988,-0.0242
7.989,-0.0173
7.99,-0.0145
7.991,-0.0121
7.992,-0.0099
7.993,-0.0053
7.994,-0.0022
7.995,-0.0006
7.996,-0.001
7.997,0.0033
7.998,0.0049
7.999,0.0053
8,0.0084
8.001,0.0088
8.002,0.0113
8.003,0.0095
8.004,0.0093
8.005,0.01
8.006,0.0071
8.007,0.0062
8.008,0.0088
8.009,0.0142
8.01,0.0227
8.011,0.0216
8.012,0.0368
8.013,0.0478
8.014,0.0337
8.015,0.0208
8.016,0.0058
8.017,-0.0002
8.018,-0.0021
8.019,-0.0037
8.02,-0.0052
8.021,-0.0064
8.022,-0.0075
8.023,-0.0086
8.024,-0.0116
8.025,-0.0107
8.026,-0.005
8.027,0.0003
8.028,-0.0042
8.029,0.0014
8.03,0.0007
8.031,0.0012
8.032,0.0018
8.033,0.0045
8.034,0.0022
8.035,0.0044
8.036,0.0047
8.037,0.0058
8.038,0.0062
8.039,0.0069
8.04,0.0071
8.041,0.0069
8.042,0.0071
8.043,0.0069
8.044,0.004
8.045,0.0001
8.046,0.0025
8.047,0.0003
8.048,0.0007
8.049,0.0003
8.05,0.0022
8.051,0.0049
8.052,0.0038
8.053,0.002
8.054,0.0047
8.055,0.0066
8.056,0.004
8.057,0.0042
8.058,0.004
8.059,0.0047
8.06,0.0088
8.061,0.0139
8.062,0.0241
8.063,0.0406
8.064,0.0384
8.065,0.0163
8.066,0.0075
8.067,-0.0059
8.068,-0.013
8.069,-0.0152
8.07,-0.0173
8.071,-0.0191
8.072,-0.0141
8.073,-0.0127
8.074,-0.014
8.075,-0.0129
8.076,-0.0118
8.077,-0.0088
8.078,-0.0079
8.079,-0.0086
8.08,-0.0033
8.081,-0.0028
8.082,-0.0022
8.083,0.0016
8.084,0.0003
8.085,-0.001
8.086,-0.0013
8.087,-0.001
8.088,0.0031
8.089,0.0044
8.09,0.0022
8.091,0.0001
8.092,-0.001
8.093,-0.0021
8.094,0.002
8.095,0.0014
8.096,-0.0019
8.097,-0.0015
8.098,-0.0004
8.099,0.0022
8.1,0.0025
8.101,0.004
8.102,0.0027
8.103,0.0025
8.104,0.004
8.105,0.0007
8.106,-0.0015
8.107,-0.0004
8.108,0.0007
8.109,-0.0011
8.11,0.0014
8.111,0.006
8.112,0.0106
8.113,0.0201
8.114,0.0379
8.115,0.0258
8.116,0.0148
8.117,0.0007
8.118,-0.0048
8.119,-0.013
8.12,-0.0145
8.121,-0.0105
8.122,-0.014
8.123,-0.0196
8.124,-0.0147
8.125,-0.0119
8.126,-0.0112
8.127,-0.009
8.128,-0.0096
8.129,-0.0064
8.13,-0.0037
8.131,-0.005
8.132,-0.0072
8.133,-0.0052
8.134,-0.0017
8.135,-0.0039
8.136,-0.0035
8.137,-0.0024
8.138,-0.0028
8.139,-0.0008
8.14,0.0018
8.141,0.0044
8.142,0.0051
8.143,0.0049
8.144,0.0009
8.145,0.0014
8.146,0.0018
8.147,0.0014
8.148,0.0011
8.149,0.0022
8.15,-0.0004
8.151,0.0011
8.152,-0.0002
8.153,-0.0004
8.154,0.0011
8.155,0.0016
8.156,0.0011
8.157,0.0034
8.158,0.0014
8.159,0.0033
8.16,0.0033
8.161,0.004
8.162,0.0075
8.163,0.0029
8.164,0.0124
8.165,0.0329
8.166,0.0241
8.167,0.0055
8.168,-0.0017
8.169,-0.0083
8.17,-0.0103
8.171,-0.0158
8.172,-0.0141
8.173,-0.0097
8.174,-0.0138
8.175,-0.0127
8.176,-0.0094
8.177,-0.0085
8.178,-0.0075
8.179,-0.0068
8.18,-0.003
8.181,-0.0011
8.182,-0.0055
8.183,-0.0028
8.184,-0.0004
8.185,-0.0026
8.186,-0.0015
8.187,0.0034
8.188,0.0053
8.189,0.0022
8.19,0.0027
8.191,0.0014
8.192,0.0027
8.193,0.0023
8.194,0.0027
8.195,0.0031
8.196,0.0023
8.197,0.0016
8.198,0.0009
8.199,0.0011
8.2,0.0012
8.201,0.0034
8.202,0.0027
8.203,0.0025
8.204,0.0011
8.205,0.0005
8.206,0.0034
8.207,0.0038
8.208,0.0034
8.209,0.0031
8.21,0.0003
8.211,0.0025
8.212,-0
8.213,0.0055
8.214,0.017
8.215,0.0353
8.216,0.0377
8.217,0.0223
8.218,0.0042
8.219,-0.003
8.22,-0.0096
8.221,-0.0116
8.222,-0.0097
8.223,-0.0114
8.224,-0.0039
8.225,-0.0107
8.226,-0.0046
8.227,0.0124
8.228,0.0245
8.229,0.0223
8.23,0.0042
8.231,-0.0079
8.232,-0.0189
8.233,-0.0209
8.234,-0.0264
8.235,-0.0215
8.236,-0.02
8.237,-0.016
8.238,-0.0149
8.239,-0.0138
8.24,-0.0108
8.241,-0.0099
8.242,-0.0107
8.243,-0.0085
8.244,-0.001
8.245,-0.0019
8.246,-0.0028
8.247,-0.0035
8.248,-0.0042
8.249,-0.0037
8.25,-0.0032
8.251,0.0007
8.252,0.0031
8.253,0.0044
8.254,0.0033
8.255,0.0044
8.256,0.0047
8.257,0.0062
8.258,0.0049
8.259,0.0078
8.26,0.0053
8.261,0.0034
8.262,0.0033
8.263,0.004
8.264,0.0082
8.265,0.0051
8.266,0.0135
8.267,0.032
8.268,0.0294
8.269,0.0126
8.27,0.0016
8.271,-0.0085
8.272,-0.0103
8.273,-0.0152
8.274,-0.0138
8.275,-0.0178
8.276,-0.0143
8.277,-0.0176
8.278,-0.0107
8.279,-0.0079
8.28,-0.0086
8.281,-0.0094
8.282,-0.0061
8.283,-0.0066
8.284,-0.0015
8.285,-0.0048
8.286,-0.0004
8.287,-0.0021
8.288,-0.0008
8.289,-0.0021
8.29,0.0007
8.291,-0.0019
8.292,0.0022
8.293,0.0045
8.294,0.0042
8.295,-0.0004
8.296,0.0014
8.297,0.002
8.298,0.0016
8.299,0.002
8.3,0.0023
8.301,0.0034
8.302,0.0001
8.303,0.0012
8.304,-0.0013
8.305,0.0012
8.306,-0.0002
8.307,0.0011
8.308,0.0018
8.309,0.0053
8.31,0.0029
8.311,0.0033
8.312,0.0005
8.313,0.0003
8.314,0.0022
8.315,0.0025
8.316,0.0071
8.317,0.0174
8.318,0.0399
8.319,0.0238
8.32,0.0089
8.321,-0.0044
8.322,-0.0068
8.323,-0.0134
8.324,-0.0154
8.325,-0.0173
8.326,-0.0123
8.327,-0.0167
8.328,-0.0154
8.329,-0.0143
8.33,-0.011
8.331,-0.0101
8.332,-0.011
8.333,-0.0086
8.334,-0.0079
8.335,-0.0074
8.336,-0.003
8.337,-0.0035
8.338,-0.0048
8.339,-0.0026
8.34,0.0001
8.341,0.002
8.342,-0.0021
8.343,-0.0008
8.344,0.0044
8.345,-0.0002
8.346,0.0042
8.347,0.0003
8.348,0.0049
8.349,0.0005
8.35,-0
8.351,0.0023
8.352,0.0027
8.353,0.0016
8.354,0.002
8.355,0.0009
8.356,0.0001
8.357,0.0033
8.358,0.0022
8.359,0.004
8.36,0.0022
8.361,0.0001
8.362,0.0003
8.363,0.0005
8.364,-0.0004
8.365,-0.001
8.366,0.0023
8.367,0.0093
8.368,0.0245
8.369,0.0399
8.37,0.0419
8.371,0.0254
8.372,0.0055
8.373,-0.0024
8.374,-0.0096
8.375,-0.0162
8.376,-0.0182
8.377,-0.02
8.378,-0.0183
8.379,-0.0198
8.38,-0.0158
8.381,-0.0147
8.382,-0.0158
8.383,-0.0129
8.384,-0.0119
8.385,-0.0127
8.386,-0.0057
8.387,-0.0103
8.388,-0.0063
8.389,-0.007
8.39,-0.0008
8.391,-0
8.392,0.0007
8.393,0.0012
8.394,0.0007
8.395,-0.001
8.396,0.0036
8.397,0.0042
8.398,0.0036
8.399,0.0023
8.4,0.0045
8.401,0.0018
8.402,0.0036
8.403,0.0003
8.404,0.0023
8.405,0.0027
8.406,0.0045
8.407,0.0031
8.408,0.0023
8.409,0.0047
8.41,0.0027
8.411,0.0009
8.412,0.0001
8.413,0.0036
8.414,0.0023
8.415,-0.0011
8.416,0.0001
8.417,0.0064
8.418,0.0166
8.419,0.0207
8.42,0.0342
8.421,0.0287
8.422,0.0271
8.423,0.0375
8.424,0.0362
8.425,0.0278
8.426,0.0108
8.427,-0.0061
8.428,-0.0215
8.429,-0.0315
8.43,-0.0297
8.431,-0.0313
8.432,-0.0299
8.433,-0.0312
8.434,-0.0301
8.435,-0.0244
8.436,-0.0215
8.437,-0.0151
8.438,-0.0143
8.439,-0.0121
8.44,-0.0103
8.441,-0.0085
8.442,-0.0057
8.443,-0.0053
8.444,-0.0002
8.445,-0.0008
8.446,-0.0052
8.447,-0
8.448,0.0018
8.449,0.0012
8.45,0.004
8.451,0.0053
8.452,0.004
8.453,0.0051
8.454,0.0047
8.455,0.0088
8.456,0.0033
8.457,0.0086
8.458,0.004
8.459,0.0071
8.46,0.0033
8.461,0.0045
8.462,0.0058
8.463,0.0031
8.464,0.002
8.465,0.0009
8.466,0.0047
8.467,0.0033
8.468,0.0075
8.469,0.0144
8.47,0.0117
8.471,0.0141
8.472,0.0194
8.473,0.0296
8.474,0.0401
8.475,0.0278
8.476,0.0095
8.477,-0.0026
8.478,-0.0136
8.479,-0.0196
8.48,-0.0215
8.481,-0.0198
8.482,-0.0183
8.483,-0.0171
8.484,-0.016
8.485,-0.0171
8.486,-0.0141
8.487,-0.0132
8.488,-0.014
8.489,-0.0132
8.49,-0.0114
8.491,-0.0132
8.492,-0.0094
8.493,-0.0061
8.494,-0.003
8.495,-0.005
8.496,-0.0024
8.497,-0.0006
8.498,0.0027
8.499,0.0049
8.5,0.0022
8.501,0.004
8.502,0.0073
8.503,0.0045
8.504,0.0027
8.505,0.0038
8.506,0.0058
8.507,0.0077
8.508,0.0069
8.509,0.0034
8.51,0.0058
8.511,0.01
8.512,0.0084
8.513,0.0071
8.514,0.0084
8.515,0.0104
8.516,0.0078
8.517,0.0077
8.518,0.0095
8.519,0.0141
8.52,0.0186
8.521,0.0282
8.522,0.0459
8.523,0.0338
8.524,0.0139
8.525,0.0005
8.526,-0.0066
8.527,-0.0132
8.528,-0.0193
8.529,-0.0211
8.53,-0.0227
8.531,-0.0152
8.532,-0.0165
8.533,-0.0176
8.534,-0.0143
8.535,-0.0114
8.536,-0.016
8.537,-0.0136
8.538,-0.0129
8.539,-0.0123
8.54,-0.0092
8.541,-0.0053
8.542,-0.0041
8.543,-0.0037
8.544,-0.0033
8.545,-0.0044
8.546,0.0003
8.547,-0.0015
8.548,-0.0021
8.549,-0.0008
8.55,-0.0011
8.551,0.0051
8.552,0.0023
8.553,0.0031
8.554,0.0038
8.555,0.002
8.556,0.0025
8.557,0.0053
8.558,0.0029
8.559,0.0051
8.56,0.0047
8.561,0.0012
8.562,-0
8.563,0.0027
8.564,0.0031
8.565,0.0012
8.566,-0.0008
8.567,0.0018
8.568,0.0003
8.569,0.0022
8.57,0.0062
8.571,0.0146
8.572,0.0157
8.573,0.0327
8.574,0.0399
8.575,0.0245
8.576,0.0144
8.577,-0.0021
8.578,-0.013
8.579,-0.0151
8.58,-0.0169
8.581,-0.0185
8.582,-0.0171
8.583,-0.0158
8.584,-0.0123
8.585,-0.0112
8.586,-0.0121
8.587,-0.0112
8.588,-0.0088
8.589,-0.0066
8.59,-0.0021
8.591,-0.0064
8.592,-0.0037
8.593,-0.005
8.594,-0.0037
8.595,-0.0033
8.596,-0.0015
8.597,-0.0011
8.598,0.0009
8.599,0.0051
8.6,0.0095
8.601,0.0111
8.602,0.0135
8.603,0.0177
8.604,0.0205
8.605,0.025
8.606,0.0256
8.607,0.0294
8.608,0.0261
8.609,0.0192
8.61,0.0163
8.611,0.0117
8.612,0.0124
8.613,0.0055
8.614,-0.001
8.615,-0.0101
8.616,-0.0213
8.617,-0.0317
8.618,-0.0385
8.619,-0.0465
8.62,-0.0577
8.621,-0.0473
8.622,-0.046
8.623,-0.0275
8.624,-0.0033
8.625,-0.0002
8.626,-0.027
8.627,-0.0663
8.628,-0.0714
8.629,-0.0857
8.63,-0.1159
8.631,-0.1277
8.632,-0.117
8.633,-0.1075
8.634,-0.0987
8.635,-0.0909
8.636,-0.0885
8.637,-0.0641
8.638,-0.0154
8.639,0.0897
8.64,0.1347
8.641,0.1483
8.642,0.1607
8.643,0.1496
8.644,0.1393
8.645,0.1113
8.646,0.0521
8.647,0.0445
8.648,0.0375
8.649,0.0313
8.65,0.0485
8.651,0.0434
8.652,0.0576
8.653,0.0792
8.654,0.091
8.655,0.1016
8.656,0.1047
8.657,0.1135
8.658,0.1109
8.659,0.089
8.66,0.0564
8.661,0.0435
8.662,0.0318
8.663,0.0283
8.664,0.0188
8.665,0.0159
8.666,0.0238
8.667,0.0166
8.668,0.0012
8.669,-0.0129
8.67,-0.026
8.671,-0.0352
8.672,-0.0136
8.673,-0.0224
8.674,-0.0198
8.675,-0.0127
8.676,-0.0105
8.677,-0.0044
8.678,-0.0173
8.679,-0.0422
8.68,-0.0599
8.681,-0.076
8.682,-0.079
8.683,-0.0815
8.684,-0.0887
8.685,-0.0865
8.686,-0.0844
8.687,-0.079
8.688,-0.0773
8.689,-0.0698
8.69,-0.0603
8.691,-0.0568
8.692,-0.0489
8.693,-0.0398
8.694,-0.0387
8.695,-0.033
8.696,-0.026
8.697,-0.0215
8.698,-0.0174
8.699,-0.0213
8.7,-0.0138
8.701,-0.0046
8.702,-0.0011
8.703,-0.0044
8.704,0.0025
8.705,0.0053
8.706,0.006
8.707,0.0053
8.708,0.0058
8.709,0.0064
8.71,0.0137
8.711,0.0108
8.712,0.0135
8.713,0.0227
8.714,0.0238
8.715,0.0249
8.716,0.0157
8.717,0.0122
8.718,0.0111
8.719,0.0102
8.72,0.0075
8.721,0.0077
8.722,0.0069
8.723,0.0185
8.724,0.0234
8.725,0.0249
8.726,0.0399
8.727,0.0499
8.728,0.0298
8.729,0.0164
8.73,-0.0004
8.731,-0.007
8.732,-0.009
8.733,-0.0108
8.734,-0.0092
8.735,-0.0107
8.736,-0.0119
8.737,-0.013
8.738,-0.0097
8.739,-0.0088
8.74,-0.0061
8.741,-0.0068
8.742,-0.0046
8.743,-0
8.744,-0.0006
8.745,0.0022
8.746,-0.0011
8.747,-0.0008
8.748,0.002
8.749,-0.0015
8.75,0.0036
8.751,-0.001
8.752,0.0034
8.753,0.004
8.754,0.0044
8.755,0.004
8.756,0.0029
8.757,0.0033
8.758,0.0058
8.759,0.0012
8.76,0.0058
8.761,0.0064
8.762,0.0058
8.763,0.0034
8.764,0.0066
8.765,0.0038
8.766,-0.0011
8.767,0.0022
8.768,0.0053
8.769,0.0014
8.77,0.0047
8.771,0.0016
8.772,0.0018
8.773,-0.001
8.774,0.0047
8.775,0.0172
8.776,0.0373
8.777,0.0399
8.778,0.0327
8.779,0.0174
8.78,-0.0008
8.781,-0.0079
8.782,-0.0145
8.783,-0.0165
8.784,-0.0147
8.785,-0.013
8.786,-0.0116
8.787,-0.0156
8.788,-0.0145
8.789,-0.0112
8.79,-0.0042
8.791,-0.0033
8.792,-0.0057
8.793,-0.005
8.794,-0.0083
8.795,-0.0013
8.796,-0.0004
8.797,-0.0044
8.798,-0.0022
8.799,-0.0041
8.8,-0.0035
8.801,-0.003
8.802,0.0036
8.803,0.0009
8.804,0.0016
8.805,0.0009
8.806,0.0055
8.807,0.0036
8.808,0.002
8.809,-0.0004
8.81,-0
8.811,0.0027
8.812,-0.0022
8.813,-0.0004
8.814,-0.0022
8.815,-0.0017
8.816,0.0007
8.817,0.0029
8.818,0.0025
8.819,-0
8.82,-0.0019
8.821,0.0014
8.822,0.0011
8.823,0.0011
8.824,0.0022
8.825,0.0078
8.826,0.0038
8.827,0.0153
8.828,0.0369
8.829,0.0282
8.83,0.0095
8.831,-0.0026
8.832,-0.0092
8.833,-0.0152
8.834,-0.0171
8.835,-0.0187
8.836,-0.0112
8.837,-0.0125
8.838,-0.016
8.839,-0.0149
8.84,-0.0079
8.841,-0.0088
8.842,-0.0081
8.843,-0.0059
8.844,-0.0077
8.845,-0.0108
8.846,-0.0092
8.847,-0.0059
8.848,-0.0008
8.849,-0.0026
8.85,-0.0021
8.851,-0.0026
8.852,-0.0013
8.853,-0.0017
8.854,-0.0037
8.855,-0.0041
8.856,-0.0008
8.857,0.002
8.858,0.0031
8.859,0.002
8.86,0.0018
8.861,0.006
8.862,0.0016
8.863,0.0011
8.864,0.0007
8.865,-0.0024
8.866,-0.0013
8.867,-0.0039
8.868,0.0009
8.869,-0.001
8.87,0.0029
8.871,0.0025
8.872,-0.0006
8.873,0.0056
8.874,0.0047
8.875,0.0075
8.876,0.0098
8.877,0.0137
8.878,0.0239
8.879,0.0375
8.88,0.021
8.881,0.0188
8.882,0.0007
8.883,-0.0064
8.884,-0.0174
8.885,-0.0154
8.886,-0.0173
8.887,-0.009
8.888,-0.0134
8.889,-0.0147
8.89,-0.0112
8.891,-0.0079
8.892,-0.0088
8.893,-0.0061
8.894,-0.0068
8.895,-0.0046
8.896,-0.0052
8.897,-0.0046
8.898,0.0005
8.899,-0.0041
8.9,-0.0022
8.901,-0.0039
8.902,-0.0035
8.903,0.0007
8.904,0.0045
8.905,0.01
8.906,0.0062
8.907,0.0067
8.908,0.0049
8.909,0.0033
8.91,0.0056
8.911,0.0025
8.912,0.0014
8.913,-0.0011
8.914,0.0029
8.915,0.0005
8.916,-0.0026
8.917,-0.0015
8.918,-0.0011
8.919,-0.0059
8.92,-0.0028
8.921,0.0034
8.922,0.0011
8.923,0.0033
8.924,-0
8.925,-0.0004
8.926,0.0001
8.927,0.0086
8.928,0.012
8.929,0.0245
8.93,0.0395
8.931,0.0496
8.932,0.0221
8.933,0.0104
8.934,0.0282
8.935,0.0313
8.936,0.0045
8.937,-0.0132
8.938,-0.0163
8.939,-0.0312
8.94,-0.0337
8.941,-0.0266
8.942,-0.0288
8.943,-0.0268
8.944,-0.0286
8.945,-0.0237
8.946,-0.0193
8.947,-0.0205
8.948,-0.0194
8.949,-0.0138
8.95,-0.0108
8.951,-0.0063
8.952,-0.0039
8.953,-0.0046
8.954,-0.0052
8.955,-0.0021
8.956,-0.0004
8.957,0.002
8.958,0.0007
8.959,0.0034
8.96,0.0091
8.961,0.0183
8.962,0.0148
8.963,0.0045
8.964,0.0005
8.965,-0.0006
8.966,-0.0017
8.967,-0.0026
8.968,-0.0017
8.969,-0.0024
8.97,0.0029
8.971,0.0023
8.972,0.0029
8.973,0.0023
8.974,0.0036
8.975,-0.0006
8.976,-0.0004
8.977,0.0034
8.978,0.0001
8.979,0.0071
8.98,0.0141
8.981,0.028
8.982,0.038
8.983,0.0252
8.984,0.0069
8.985,-0.0052
8.986,-0.0118
8.987,-0.0138
8.988,-0.0156
8.989,-0.0107
8.99,-0.0151
8.991,-0.0163
8.992,-0.0152
8.993,-0.0119
8.994,-0.0129
8.995,-0.0119
8.996,-0.0063
8.997,-0.0024
8.998,-0.007
8.999,-0.0013
9,-0.0021
9.001,-0.0002
9.002,-0.0033
9.003,-0.0017
9.004,0.0007
9.005,0.0029
9.006,0.0009
9.007,0.0005
9.008,0.0016
9.009,0.0023
9.01,0.0031
9.011,-0.001
9.012,-0.0004
9.013,0.0009
9.014,-0.0022
9.015,-0.0042
9.016,0.0014
9.017,0.0055
9.018,0.0047
9.019,-0.0015
9.02,-0.0022
9.021,-0
9.022,-0.0033
9.023,-0.0002
9.024,0.0049
9.025,0.0031
9.026,0.0036
9.027,0.0047
9.028,0.0053
9.029,0.0086
9.03,0.0146
9.031,0.0271
9.032,0.0435
9.033,0.0369
9.034,0.0148
9.035,0.0355
9.036,0.0329
9.037,0.0161
9.038,0.0007
9.039,-0.0174
9.04,-0.0246
9.041,-0.0268
9.042,-0.0288
9.043,-0.027
9.044,-0.0286
9.045,-0.0242
9.046,-0.0255
9.047,-0.022
9.048,-0.0209
9.049,-0.014
9.05,-0.0112
