0,-0.0008
0.001,0.0014
0.002,0.0025
0.003,-0.0001
0.004,-0.0027
0.005,0.0001
0.006,-0.001
0.007,-0.0021
0.008,-0.0001
0.009,0.003
0.01,0.0092
0.011,0.0177
0.012,0.0098
0.013,0.0147
0.014,0.0211
0.015,0.0336
0.016,0.0427
0.017,0.0211
0.018,0.0123
0.019,-0.0063
0.02,-0.0184
0.021,-0.0162
0.022,-0.0223
0.023,-0.0204
0.024,-0.0287
0.025,-0.0243
0.026,-0.0256
0.027,-0.0195
0.028,-0.0138
0.029,-0.0109
0.03,-0.0045
0.031,-0.0052
0.032,-0.0074
0.033,-0.0056
0.034,-0.0061
0.035,-0.0034
0.036,0.0012
0.037,-0.0007
0.038,-0.0034
0.039,-0.0021
0.04,-0.0034
0.041,-0.0007
0.042,-0.0018
0.043,0.0015
0.044,-0.0012
0.045,0.0014
0.046,0.0003
0.047,0.0043
0.048,0.007
0.049,0.0047
0.05,0.0034
0.051,0.0072
0.052,0.0083
0.053,0.0125
0.054,0.0074
0.055,0.0177
0.056,0.0402
0.057,0.0307
0.058,0.0158
0.059,0.0025
0.06,-0.0096
0.061,-0.0118
0.062,-0.0138
0.063,-0.012
0.064,-0.017
0.065,-0.0155
0.066,-0.0142
0.067,-0.0177
0.068,-0.0144
0.069,-0.0135
0.07,-0.0107
0.071,-0.01
0.072,-0.0061
0.073,-0.0043
0.074,-0.0061
0.075,-0.0045
0.076,-0.0012
0.077,0.0039
0.078,0.0034
0.079,0.009
0.08,0.0052
0.081,0.0034
0.082,0.0003
0.083,0.0008
0.084,0.0004
0.085,-0.0018
0.086,-0.0021
0.087,0.0036
0.088,0.0012
0.089,0.0004
0.09,0.0023
0.091,0.0041
0.092,0.0014
0.093,0.0017
0.094,-0.0014
0.095,-0.0025
0.096,-0.0021
0.097,-0.001
0.098,-0.003
0.099,-0.0012
0.1,0.0006
0.101,0.0028
0.102,0.0065
0.103,0.0034
0.104,0.0061
0.105,0.0118
0.106,0.0242
0.107,0.0334
0.108,0.0383
0.109,0.0459
0.11,0.0526
0.111,0.0341
0.112,0.0047
0.113,-0.0149
0.114,-0.0256
0.115,-0.0351
0.116,-0.038
0.117,-0.0354
0.118,-0.0331
0.119,-0.0265
0.12,-0.0285
0.121,-0.023
0.122,-0.0213
0.123,-0.0138
0.124,-0.0098
0.125,-0.0063
0.126,-0.003
0.127,-0.0021
0.128,-0.0012
0.129,0.0012
0.13,-0.0027
0.131,-0.0008
0.132,0.001
0.133,0.0004
0.134,-0.0019
0.135,0.0012
0.136,0.0032
0.137,0.0074
0.138,0.009
0.139,0.0078
0.14,0.0056
0.141,0.0118
0.142,0.0109
0.143,0.0069
0.144,0.009
0.145,0.0085
0.146,0.0041
0.147,0.0069
0.148,0.0072
0.149,0.0021
0.15,0.0015
0.151,0.001
0.152,-0.0007
0.153,0.0021
0.154,0.0034
0.155,0.0103
0.156,0.0112
0.157,0.0233
0.158,0.0151
0.159,0.0376
0.16,0.0601
0.161,0.0334
0.162,0.0085
0.163,-0.0076
0.164,-0.0164
0.165,-0.0243
0.166,-0.0267
0.167,-0.0289
0.168,-0.0309
0.169,-0.0327
0.17,-0.0245
0.171,-0.0201
0.172,-0.0188
0.173,-0.0177
0.174,-0.0144
0.175,-0.0074
0.176,-0.0083
0.177,-0.0027
0.178,-0.0034
0.179,-0.004
0.18,-0.0034
0.181,-0.0029
0.182,-0.0032
0.183,-0.0054
0.184,-0.0008
0.185,0.0036
0.186,0.0008
0.187,0.0004
0.188,0.0017
0.189,0.0021
0.19,-0.0014
0.191,-0.0018
0.192,0.001
0.193,0.0045
0.194,0.0067
0.195,0.0087
0.196,0.0061
0.197,0.0101
0.198,0.0105
0.199,0.0092
0.2,0.0065
0.201,0.0039
0.202,0.0028
0.203,0.0043
0.204,0.0043
0.205,0.0006
0.206,0.0081
0.207,0.0138
0.208,0.0188
0.209,0.0327
0.21,0.0508
0.211,0.034
0.212,0.0096
0.213,0.0001
0.214,-0.0087
0.215,-0.0166
0.216,-0.0237
0.217,-0.0215
0.218,-0.0235
0.219,-0.0217
0.22,-0.0168
0.221,-0.0212
0.222,-0.0224
0.223,-0.014
0.224,-0.0129
0.225,-0.0138
0.226,-0.0074
0.227,-0.0067
0.228,0.0003
0.229,0.0105
0.23,0.0092
0.231,0.0127
0.232,0.016
0.233,0.021
0.234,0.0182
0.235,0.0257
0.236,0.0208
0.237,0.0217
0.238,0.0241
0.239,0.0156
0.24,0.0123
0.241,0.0054
0.242,0.0081
0.243,-0.0043
0.244,-0.0208
0.245,-0.0274
0.246,-0.0375
0.247,-0.0393
0.248,-0.0543
0.249,-0.0523
0.25,-0.0468
0.251,-0.0452
0.252,-0.0437
0.253,-0.0505
0.254,-0.0616
0.255,-0.0528
0.256,-0.0543
0.257,-0.0638
0.258,-0.0799
0.259,-0.1043
0.26,-0.1012
0.261,-0.0924
0.262,-0.0629
0.263,-0.0354
0.264,-0.0248
0.265,-0.0279
0.266,0.0047
0.267,0.0523
0.268,0.1096
0.269,0.1326
0.27,0.1396
0.271,0.1334
0.272,0.1277
0.273,0.1015
0.274,0.0872
0.275,0.083
0.276,0.0713
0.277,0.0748
0.278,0.0843
0.279,0.0991
0.28,0.107
0.281,0.1191
0.282,0.1257
0.283,0.1156
0.284,0.1028
0.285,0.0946
0.286,0.0902
0.287,0.0697
0.288,0.0252
0.289,-0.0065
0.29,-0.0008
0.291,-0.006
0.292,-0.0107
0.293,-0.0235
0.294,-0.0353
0.295,-0.0459
0.296,-0.0428
0.297,-0.0516
0.298,-0.0541
0.299,-0.0517
0.3,-0.0539
0.301,-0.064
0.302,-0.0658
0.303,-0.0576
0.304,-0.0561
0.305,-0.0574
0.306,-0.058
0.307,-0.0569
0.308,-0.049
0.309,-0.0461
0.31,-0.0322
0.311,-0.006
0.312,-0.0025
0.313,-0.0186
0.314,-0.0334
0.315,-0.0413
0.316,-0.0437
0.317,-0.0459
0.318,-0.0439
0.319,-0.042
0.32,-0.0371
0.321,-0.0327
0.322,-0.0287
0.323,-0.0252
0.324,-0.0263
0.325,-0.0234
0.326,-0.017
0.327,-0.0177
0.328,-0.0155
0.329,-0.0093
0.33,-0.0052
0.331,0.0017
0.332,0.0008
0.333,0.0015
0.334,0.0054
0.335,0.0059
0.336,0.0065
0.337,0.0037
0.338,0.0025
0.339,0.0094
0.34,0.0085
0.341,0.0112
0.342,0.0089
0.343,0.0111
0.344,0.0156
0.345,0.0162
0.346,0.0134
0.347,0.0147
0.348,0.0134
0.349,0.0173
0.35,0.014
0.351,0.021
0.352,0.0361
0.353,0.034
0.354,0.0199
0.355,0.0034
0.356,-0.0032
0.357,-0.0089
0.358,-0.0069
0.359,0.0059
0.36,0.001
0.361,0.0235
0.362,0.0396
0.363,0.0248
0.364,0.0114
0.365,-0.0007
0.366,-0.0029
0.367,-0.0049
0.368,-0.0104
0.369,-0.0186
0.37,-0.0111
0.371,-0.0098
0.372,-0.0133
0.373,-0.0166
0.374,-0.0157
0.375,-0.0166
0.376,-0.0126
0.377,-0.0104
0.378,-0.0109
0.379,-0.0127
0.38,-0.0076
0.381,-0.0138
0.382,-0.0063
0.383,-0.0034
0.384,-0.0061
0.385,0.0014
0.386,0.0023
0.387,0.0087
0.388,0.0079
0.389,0.0195
0.39,0.0244
0.391,0.02
0.392,0.0188
0.393,0.0299
0.394,0.0285
0.395,0.0189
0.396,0.0105
0.397,0.0094
0.398,0.0025
0.399,0.0034
0.4,-0.0023
0.401,-0.0045
0.402,-0.012
0.403,-0.0029
0.404,-0.004
0.405,-0.0029
0.406,-0.0038
0.407,-0.0029
0.408,-0.0038
0.409,-0.0078
0.41,0.0037
0.411,0.0153
0.412,0.0318
0.413,0.0517
0.414,0.0438
0.415,0.0219
0.416,0.007
0.417,-0.0063
0.418,-0.004
0.419,-0.0149
0.42,-0.0129
0.421,-0.0148
0.422,-0.0164
0.423,-0.0149
0.424,-0.0137
0.425,-0.0102
0.426,-0.0135
0.427,-0.0126
0.428,-0.0153
0.429,-0.016
0.43,-0.0107
0.431,-0.0074
0.432,-0.0105
0.433,-0.0078
0.434,-0.0054
0.435,-0.0032
0.436,-0.0078
0.437,-0.0008
0.438,0.0019
0.439,0.0043
0.44,0.0036
0.441,0.0069
0.442,0.0087
0.443,0.0048
0.444,0.0025
0.445,0.0028
0.446,0.0008
0.447,-0.0034
0.448,0.0028
0.449,0.0036
0.45,0.0043
0.451,0.0037
0.452,-0.0007
0.453,-0.0034
0.454,-0.0058
0.455,-0.0045
0.456,0.0017
0.457,0.0101
0.458,0.0023
0.459,0.0101
0.46,0.0131
0.461,0.0233
0.462,0.0166
0.463,0.025
0.464,0.0398
0.465,0.0418
0.466,0.0253
0.467,0.0144
0.468,0.0003
0.469,-0.0126
0.47,-0.0241
0.471,-0.0285
0.472,-0.0245
0.473,-0.0279
0.474,-0.0246
0.475,-0.0237
0.476,-0.0228
0.477,-0.0204
0.478,-0.0182
0.479,-0.0107
0.48,-0.0058
0.481,-0.0085
0.482,-0.0045
0.483,-0.0023
0.484,-0.0029
0.485,0.0003
0.486,0.003
0.487,0.0006
0.488,-0.0025
0.489,0.0003
0.49,-0.0023
0.491,-0.0034
0.492,-0.0036
0.493,-0.001
0.494,-0.0021
0.495,0.0025
0.496,0.0043
0.497,0.0037
0.498,0.0032
0.499,-0.0001
0.5,0.0003
0.501,0.0065
0.502,0.0186
0.503,0.0202
0.504,0.0158
0.505,0.009
0.506,0.0056
0.507,0.0023
0.508,-0.0007
0.509,-0.0016
0.51,0.0006
0.511,0.0014
0.512,0.0067
0.513,0.0048
0.514,0.0144
0.515,0.0349
0.516,0.0319
0.517,0.0133
0.518,-0.0036
0.519,-0.0102
0.52,-0.0162
0.521,-0.0181
0.522,-0.0164
0.523,-0.0149
0.524,-0.0162
0.525,-0.0223
0.526,-0.012
0.527,-0.0133
0.528,-0.0122
0.529,-0.0133
0.53,-0.0083
0.531,-0.0093
0.532,-0.0085
0.533,-0.0093
0.534,-0.003
0.535,0.0045
0.536,-0.0005
0.537,0.0004
0.538,-0.0019
0.539,0.0034
0.54,0.0015
0.541,0.0021
0.542,0.0026
0.543,0.003
0.544,0.0081
0.545,0.0076
0.546,0.007
0.547,0.0054
0.548,0.005
0.549,0.0063
0.55,0.0052
0.551,-0.0005
0.552,-0.0012
0.553,0.0041
0.554,0.0059
0.555,0.0054
0.556,0.0015
0.557,0.007
0.558,-0.0014
0.559,-0.0003
0.56,0.0047
0.561,0.0021
0.562,0.003
0.563,0.007
0.564,0.0123
0.565,0.0199
0.566,0.0268
0.567,0.0332
0.568,0.0372
0.569,0.0319
0.57,0.0301
0.571,0.0231
0.572,0.0204
0.573,0.0261
0.574,0.0299
0.575,0.0281
0.576,0.0186
0.577,-0.0019
0.578,-0.0287
0.579,-0.0322
0.58,-0.0417
0.581,-0.0446
0.582,-0.042
0.583,-0.0397
0.584,-0.0331
0.585,-0.0311
0.586,-0.0256
0.587,-0.0272
0.588,-0.0168
0.589,-0.01
0.59,-0.0089
0.591,-0.0122
0.592,-0.0093
0.593,-0.0047
0.594,-0.004
0.595,-0.0032
0.596,0.0001
0.597,-0.0005
0.598,0.0034
0.599,0.0037
0.6,0.0059
0.601,0.007
0.602,0.0059
0.603,0.0019
0.604,0.0032
0.605,0.0054
0.606,0.0058
0.607,0.0032
0.608,0.0058
0.609,0.0078
0.61,0.007
0.611,0.0111
0.612,0.0065
0.613,0.0103
0.614,0.0178
0.615,0.0145
0.616,0.0297
0.617,0.0541
0.618,0.038
0.619,0.0173
0.62,-0.0014
0.621,-0.0038
0.622,-0.0148
0.623,-0.0127
0.624,-0.0146
0.625,-0.0228
0.626,-0.0184
0.627,-0.0171
0.628,-0.0137
0.629,-0.0126
0.63,-0.0076
0.631,-0.0067
0.632,-0.0091
0.633,-0.0069
0.634,-0.0036
0.635,-0.0041
0.636,-0.0047
0.637,0.0008
0.638,0.0015
0.639,0.0048
0.64,0.003
0.641,-0.0008
0.642,-0.0005
0.643,0.0037
0.644,0.001
0.645,0.0023
0.646,0.0036
0.647,-0.0027
0.648,0.0037
0.649,0.0045
0.65,0.0006
0.651,0.0012
0.652,0.0017
0.653,0.0001
0.654,-0.0012
0.655,0.001
0.656,0.0037
0.657,0.0056
0.658,0.003
0.659,0.005
0.66,0.0008
0.661,0.0014
0.662,0.0041
0.663,0.0036
0.664,0.0039
0.665,0.0109
0.666,0.022
0.667,0.0446
0.668,0.0541
0.669,0.0393
0.67,0.0151
0.671,-0.001
0.672,-0.0159
0.673,-0.0184
0.674,-0.0256
0.675,-0.0234
0.676,-0.0254
0.677,-0.0199
0.678,-0.0149
0.679,-0.0135
0.68,-0.0122
0.681,-0.0111
0.682,-0.01
0.683,-0.0109
0.684,-0.0082
0.685,-0.0105
0.686,-0.0036
0.687,-0.0063
0.688,-0.0056
0.689,-0.0078
0.69,-0.0032
0.691,-0.0001
0.692,0.0026
0.693,0.0039
0.694,0.0026
0.695,0.003
0.696,0.0065
0.697,0.0034
0.698,0.0054
0.699,0.0111
0.7,0.0087
0.701,0.0065
0.702,0.0032
0.703,0.0014
0.704,0.0052
0.705,0.0039
0.706,0.0008
0.707,-0.003
0.708,-0.0027
0.709,-0.0005
0.71,-0.0008
0.711,0.0048
0.712,0.0025
0.713,0.0003
0.714,0.0028
0.715,-0.0034
0.716,0.009
0.717,0.0109
0.718,0.0224
0.719,0.036
0.72,0.0415
0.721,0.0299
0.722,0.0464
0.723,0.053
0.724,0.0349
0.725,-0.0016
0.726,-0.0171
0.727,-0.0314
0.728,-0.0356
0.729,-0.0395
0.73,-0.043
0.731,-0.0398
0.732,-0.0311
0.733,-0.0336
0.734,-0.0265
0.735,-0.0243
0.736,-0.0142
0.737,-0.0051
0.738,-0.0001
0.739,0.0014
0.74,-0.0027
0.741,-0.0061
0.742,-0.0072
0.743,-0.0043
0.744,0.0021
0.745,0.0028
0.746,-0.001
0.747,0.0092
0.748,0.0167
0.749,0.018
0.75,0.0069
0.751,0.0054
0.752,0.0067
0.753,0.0006
0.754,-0.0027
0.755,0.0023
0.756,-0.0005
0.757,-0.0061
0.758,-0.0083
0.759,-0.0089
0.76,-0.0007
0.761,0.0004
0.762,0.0054
0.763,0.0063
0.764,0.0039
0.765,0.0006
0.766,0.009
0.767,0.0123
0.768,0.0153
0.769,0.0292
0.77,0.0352
0.771,0.0297
0.772,0.0215
0.773,0.0019
0.774,-0.0115
0.775,-0.0138
0.776,-0.0204
0.777,-0.0184
0.778,-0.0166
0.779,-0.0182
0.78,-0.0197
0.781,-0.0129
0.782,-0.0118
0.783,-0.0175
0.784,-0.0146
0.785,-0.0137
0.786,-0.0061
0.787,-0.0052
0.788,-0.0043
0.789,-0.0051
0.79,-0.0058
0.791,-0.0012
0.792,0.0032
0.793,0.0026
0.794,0.0014
0.795,0.0026
0.796,-0.0019
0.797,0.0076
0.798,0.0089
0.799,0.0054
0.8,-0.0003
0.801,0.0026
0.802,0.0054
0.803,0.0094
0.804,0.0072
0.805,0.0118
0.806,0.0061
0.807,0.0039
0.808,0.0006
0.809,0.0001
0.81,-0.0027
0.811,-0.0003
0.812,-0.0007
0.813,0.0004
0.814,0.0001
0.815,0.0019
0.816,0.0065
0.817,0.005
0.818,0.0092
0.819,0.0149
0.82,0.0264
0.821,0.0513
0.822,0.0548
0.823,0.0387
0.824,0.012
0.825,-0.0129
0.826,-0.016
0.827,-0.0248
0.828,-0.0223
0.829,-0.0294
0.83,-0.0272
0.831,-0.0171
0.832,-0.0153
0.833,-0.017
0.834,-0.0126
0.835,-0.0138
0.836,-0.0104
0.837,-0.0071
0.838,-0.0021
0.839,-0.0085
0.84,-0.0029
0.841,-0.0021
0.842,-0.0027
0.843,-0.0021
0.844,-0.0027
0.845,-0.0023
0.846,-0.0027
0.847,-0.0016
0.848,-0.0027
0.849,-0.0023
0.85,-0.0056
0.851,-0.0034
0.852,-0.0007
0.853,0.0012
0.854,0.0023
0.855,0.0069
0.856,0.0063
0.857,0.0019
0.858,0.0036
0.859,0.0069
0.86,0.012
0.861,0.0125
0.862,0.0081
0.863,0.0076
0.864,0.0072
0.865,0.005
0.866,0.0012
0.867,-0.0016
0.868,-0.0049
0.869,0.0021
0.87,0.0133
0.871,0.0329
0.872,0.0515
0.873,0.0539
0.874,0.0296
0.875,0.007
0.876,-0.0018
0.877,-0.0096
0.878,-0.012
0.879,-0.0098
0.88,-0.0199
0.881,-0.0144
0.882,-0.0226
0.883,-0.0241
0.884,-0.0201
0.885,-0.0212
0.886,-0.0245
0.887,-0.0175
0.888,-0.0129
0.889,-0.0089
0.89,-0.0051
0.891,-0.0069
0.892,-0.0038
0.893,-0.0054
0.894,0.0001
0.895,-0.0007
0.896,0.0069
0.897,0.0078
0.898,0.0069
0.899,0.0028
0.9,-0.001
0.901,0.0023
0.902,-0.0034
0.903,-0.0012
0.904,0.0006
0.905,0.0025
0.906,0.0052
0.907,0.0065
0.908,0.0034
0.909,0.0037
0.91,0.0056
0.911,0.003
0.912,0.0023
0.913,0.0036
0.914,0.0037
0.915,0.0059
0.916,0.0052
0.917,0.0012
0.918,-0.003
0.919,0.0008
0.92,0.0083
0.921,0.0094
0.922,0.0246
0.923,0.049
0.924,0.0329
0.925,0.0122
0.926,-0.0065
0.927,-0.0137
0.928,-0.0115
0.929,-0.0135
0.93,-0.0116
0.931,-0.0133
0.932,-0.0177
0.933,-0.0164
0.934,-0.0175
0.935,-0.0186
0.936,-0.0157
0.937,-0.0148
0.938,-0.0107
0.939,-0.01
0.94,-0.0094
0.941,-0.01
0.942,-0.0049
0.943,-0.0016
0.944,0.0015
0.945,-0.0036
0.946,0.0054
0.947,0.0019
0.948,0.0052
0.949,0.0003
0.95,0.0067
0.951,0.009
0.952,0.0098
0.953,0.0103
0.954,0.0134
0.955,0.0083
0.956,0.005
0.957,0.0019
0.958,-0.0032
0.959,-0.0027
0.96,-0.0008
0.961,0.003
0.962,0.0063
0.963,0.0003
0.964,0.0026
0.965,0.0019
0.966,-0.0043
0.967,-0.0019
0.968,-0.0041
0.969,-0.0052
0.97,-0.0058
0.971,0.0037
0.972,0.016
0.973,0.031
0.974,0.0451
0.975,0.0653
0.976,0.0466
0.977,0.0199
0.978,0.0021
0.979,-0.0074
0.98,-0.0162
0.981,-0.0241
0.982,-0.0217
0.983,-0.0239
0.984,-0.0259
0.985,-0.0241
0.986,-0.0191
0.987,-0.0206
0.988,-0.0138
0.989,-0.0127
0.99,-0.0116
0.991,-0.0146
0.992,-0.0137
0.993,-0.0012
0.994,0.0116
0.995,0.0067
0.996,0.0023
0.997,-0.0018
0.998,-0.0052
0.999,-0.0063
1,-0.0093
1.001,-0.0047
1.002,-0.0007
1.003,0.0015
1.004,0.009
1.005,0.0041
1.006,0.0014
1.007,0.0006
1.008,0.0014
1.009,0.0019
1.01,0.0076
1.011,0.0069
1.012,0.0023
1.013,0.0041
1.014,0.0079
1.015,0.0112
1.016,0.009
1.017,0.0045
1.018,0.0039
1.019,-0.0012
1.02,-0.0016
1.021,-0.0021
1.022,0.0074
1.023,0.0169
1.024,0.0354
1.025,0.0488
1.026,0.0319
1.027,0.0297
1.028,0.0036
1.029,0.0001
1.03,-0.0094
1.031,-0.0182
1.032,-0.0208
1.033,-0.0232
1.034,-0.021
1.035,-0.019
1.036,-0.0135
1.037,-0.0118
1.038,-0.0133
1.039,-0.012
1.04,-0.0155
1.041,-0.0122
1.042,-0.0113
1.043,-0.0104
1.044,-0.0096
1.045,-0.0043
1.046,0.0019
1.047,-0.0021
1.048,0.0017
1.049,-0.0016
1.05,-0.001
1.051,0.0017
1.052,0.0004
1.053,0.0008
1.054,0.0028
1.055,0.0039
1.056,0.0028
1.057,-0.0005
1.058,-0.0001
1.059,0.001
1.06,-0.0025
1.061,-0.0003
1.062,0.0025
1.063,0.0074
1.064,0.0107
1.065,0.0037
1.066,0.001
1.067,0.0034
1.068,0.0026
1.069,0.0116
1.07,0.0105
1.071,0.0079
1.072,0.0023
1.073,0.0092
1.074,0.0156
1.075,0.0248
1.076,0.0383
1.077,0.0585
1.078,0.0451
1.079,0.0231
1.08,0.0025
1.081,-0.0054
1.082,-0.0175
1.083,-0.0241
1.084,-0.0261
1.085,-0.0279
1.086,-0.0263
1.087,-0.0248
1.088,-0.0261
1.089,-0.0201
1.09,-0.0144
1.091,-0.0115
1.092,-0.0142
1.093,-0.0102
1.094,-0.0063
1.095,-0.0058
1.096,-0.004
1.097,-0.0001
1.098,-0.0014
1.099,0.0017
1.1,-0.0021
1.101,-0.0034
1.102,-0.0012
1.103,-0.004
1.104,0.001
1.105,-0.0023
1.106,0.0008
1.107,0.007
1.108,0.0078
1.109,0.0056
1.11,0.0101
1.111,0.012
1.112,0.0114
1.113,0.0169
1.114,0.0177
1.115,0.0182
1.116,0.0213
1.117,0.0186
1.118,0.021
1.119,0.0279
1.12,0.027
1.121,0.0186
1.122,0.0167
1.123,0.0111
1.124,0.016
1.125,0.0224
1.126,0.0349
1.127,0.0184
1.128,-0.0148
1.129,-0.0386
1.13,-0.0602
1.131,-0.064
1.132,-0.0605
1.133,-0.0574
1.134,-0.0603
1.135,-0.0629
1.136,-0.075
1.137,-0.0816
1.138,-0.0917
1.139,-0.0935
1.14,-0.105
1.141,-0.1155
1.142,-0.1142
1.143,-0.1107
1.144,-0.1074
1.145,-0.0922
1.146,-0.0768
1.147,-0.0668
1.148,-0.0393
1.149,0.012
1.15,0.0891
1.151,0.1403
1.152,0.1497
1.153,0.1581
1.154,0.1504
1.155,0.1434
1.156,0.1246
1.157,0.1074
1.158,0.1022
1.159,0.0784
1.16,0.0913
1.161,0.0951
1.162,0.1129
1.163,0.1224
1.164,0.1431
1.165,0.1352
1.166,0.1231
1.167,0.1032
1.168,0.1006
1.169,0.0935
1.17,0.0603
1.171,0.0078
1.172,0.0008
1.173,-0.0067
1.174,-0.0129
1.175,-0.0072
1.176,-0.0124
1.177,-0.0076
1.178,-0.0034
1.179,-0.0072
1.18,-0.025
1.181,-0.0411
1.182,-0.0499
1.183,-0.0686
1.184,-0.0807
1.185,-0.0829
1.186,-0.0768
1.187,-0.0713
1.188,-0.0763
1.189,-0.0748
1.19,-0.0761
1.191,-0.0796
1.192,-0.0785
1.193,-0.0755
1.194,-0.0691
1.195,-0.0616
1.196,-0.0525
1.197,-0.0464
1.198,-0.0431
1.199,-0.034
1.2,-0.0329
1.201,-0.0318
1.202,-0.0309
1.203,-0.0263
1.204,-0.0223
1.205,-0.0215
1.206,-0.017
1.207,-0.0151
1.208,-0.0113
1.209,-0.0109
1.21,-0.0067
1.211,-0.004
1.212,-0.0007
1.213,0.0063
1.214,0.0072
1.215,0.01
1.216,0.014
1.217,0.0162
1.218,0.0144
1.219,0.0074
1.22,0.0083
1.221,0.0076
1.222,0.0054
1.223,0.01
1.224,0.0087
1.225,0.0118
1.226,0.0202
1.227,0.0191
1.228,0.0361
1.229,0.0433
1.23,0.0543
1.231,0.0643
1.232,0.0369
1.233,0.0173
1.234,-0.0076
1.235,-0.0107
1.236,-0.0137
1.237,-0.0162
1.238,-0.0091
1.239,-0.0069
1.24,-0.0049
1.241,-0.003
1.242,-0.008
1.243,-0.0094
1.244,-0.0107
1.245,-0.0072
1.246,-0.0105
1.247,-0.0056
1.248,-0.0065
1.249,-0.0058
1.25,-0.0051
1.251,-0.0045
1.252,-0.0027
1.253,-0.001
1.254,-0.0034
1.255,-0.0003
1.256,0.0043
1.257,0.0061
1.258,0.0034
1.259,0.0047
1.26,0.0015
1.261,0.0054
1.262,0.0058
1.263,0.0079
1.264,0.01
1.265,0.0058
1.266,0.0063
1.267,-0.0012
1.268,0.0067
1.269,0.0076
1.27,0.0103
1.271,0.0096
1.272,0.0089
1.273,0.0107
1.274,0.0037
1.275,0.0014
1.276,0.0004
1.277,0.0079
1.278,0.0231
1.279,0.0475
1.28,0.0506
1.281,0.0299
1.282,0.0112
1.283,-0.0008
1.284,-0.0118
1.285,-0.0098
1.286,-0.008
1.287,-0.0096
1.288,-0.0082
1.289,-0.0094
1.29,-0.0155
1.291,-0.0122
1.292,-0.0191
1.293,-0.0182
1.294,-0.0126
1.295,-0.0118
1.296,-0.0056
1.297,0.0019
1.298,-0.001
1.299,0.0036
1.3,-0.0005
1.301,-0.0027
1.302,-0.0045
1.303,-0.004
1.304,-0.0034
1.305,-0.0038
1.306,-0.0007
1.307,0.0004
1.308,-0.0038
1.309,0.0025
1.31,0.0065
1.311,0.0026
1.312,0.0021
1.313,0.0026
1.314,0.0054
1.315,0.003
1.316,0.0017
1.317,-0.0021
1.318,-0.0025
1.319,-0.0029
1.32,-0.0008
1.321,0.0017
1.322,-0.0001
1.323,0.0026
1.324,0.0001
1.325,-0.0025
1.326,-0.0016
1.327,-0.0001
1.328,0.0041
1.329,0.0136
1.33,0.0286
1.331,0.0508
1.332,0.0479
1.333,0.0292
1.334,0.0072
1.335,-0.0016
1.336,-0.0094
1.337,-0.0166
1.338,-0.0232
1.339,-0.0212
1.34,-0.023
1.341,-0.0213
1.342,-0.017
1.343,-0.0182
1.344,-0.0148
1.345,-0.0159
1.346,-0.0149
1.347,-0.014
1.348,-0.01
1.349,-0.0061
1.35,-0.0056
1.351,-0.0087
1.352,-0.0025
1.353,-0.0001
1.354,-0.0023
1.355,-0.0018
1.356,0.0014
1.357,0.003
1.358,0.0026
1.359,0.0014
1.36,0.0017
1.361,0.0074
1.362,0.0017
1.363,0.0025
1.364,0.007
1.365,0.0052
1.366,0.0047
1.367,0.0043
1.368,0.0012
1.369,0.0001
1.37,0.0019
1.371,0.0015
1.372,0.0014
1.373,-0.0018
1.374,-0.0007
1.375,-0.0032
1.376,-0.0014
1.377,-0.0008
1.378,0.0012
1.379,0.0054
1.38,0.0149
1.381,0.0354
1.382,0.0502
1.383,0.0528
1.384,0.0261
1.385,0.0083
1.386,-0.0012
1.387,-0.01
1.388,-0.0179
1.389,-0.025
1.39,-0.0228
1.391,-0.0168
1.392,-0.0223
1.393,-0.014
1.394,-0.0155
1.395,-0.0142
1.396,-0.0107
1.397,-0.0118
1.398,-0.0069
1.399,-0.006
1.4,-0.0036
1.401,-0.0074
1.402,-0.0056
1.403,-0.0051
1.404,0.0012
1.405,0.0036
1.406,0.0014
1.407,0.0019
1.408,0.0025
1.409,-0.0014
1.41,0.001
1.411,0.0023
1.412,0.0026
1.413,0.0083
1.414,0.0059
1.415,0.0081
1.416,0.0063
1.417,0.0058
1.418,0.0063
1.419,0.0039
1.42,0.0036
1.421,0.0056
1.422,0.0021
1.423,-0.0021
1.424,0.0017
1.425,-0.0016
1.426,0.0036
1.427,0.0069
1.428,0.0072
1.429,0.0067
1.43,0.0151
1.431,0.0186
1.432,0.0219
1.433,0.0248
1.434,0.0332
1.435,0.048
1.436,0.042
1.437,0.0255
1.438,0.0012
1.439,-0.0083
1.44,-0.0171
1.441,-0.025
1.442,-0.0226
1.443,-0.0248
1.444,-0.0268
1.445,-0.025
1.446,-0.0234
1.447,-0.0098
1.448,-0.0116
1.449,-0.0133
1.45,-0.0177
1.451,-0.0164
1.452,-0.0129
1.453,-0.0186
1.454,-0.0137
1.455,-0.0072
1.456,-0.0016
1.457,0.0006
1.458,0.0001
1.459,-0.0018
1.46,0.001
1.461,0.0023
1.462,-0.0038
1.463,-0.0014
1.464,0.0025
1.465,0.0127
1.466,0.0171
1.467,0.0103
1.468,0.0092
1.469,0.0059
1.47,0.001
1.471,0.0037
1.472,0.0045
1.473,0.0023
1.474,-0.001
1.475,0.0008
1.476,0.0036
1.477,0.0032
1.478,0.001
1.479,0.0058
1.48,0.0096
1.481,0.0072
1.482,0.005
1.483,0.0012
1.484,0.0078
1.485,0.0199
1.486,0.0149
1.487,0.0074
1.488,0.0087
1.489,0.0147
1.49,0.0318
1.491,0.0486
1.492,0.0376
1.493,0.0155
1.494,0.0006
1.495,-0.0127
1.496,-0.0151
1.497,-0.0261
1.498,-0.0281
1.499,-0.0226
1.5,-0.0276
1.501,-0.0261
1.502,-0.0274
1.503,-0.019
1.504,-0.0157
1.505,-0.0166
1.506,-0.0138
1.507,-0.0146
1.508,-0.0153
1.509,-0.0107
1.51,-0.0076
1.511,0.0008
1.512,0.0043
1.513,0.0076
1.514,0.0067
1.515,0.0058
1.516,0.0065
1.517,0.0087
1.518,0.0025
1.519,0.0017
1.52,-0.0021
1.521,-0.0003
1.522,-0.0021
1.523,0.0017
1.524,0.0014
1.525,-0.0018
1.526,-0.0038
1.527,-0.0003
1.528,0.0028
1.529,0.009
1.53,0.0131
1.531,0.0085
1.532,0.021
1.533,0.0264
1.534,0.0281
1.535,0.0325
1.536,0.023
1.537,0.0415
1.538,0.0493
1.539,0.0372
1.54,0.0129
1.541,-0.0032
1.542,-0.0181
1.543,-0.0259
1.544,-0.0331
1.545,-0.0265
1.546,-0.0245
1.547,-0.0263
1.548,-0.0246
1.549,-0.0232
1.55,-0.0245
1.551,-0.021
1.552,-0.0177
1.553,-0.0168
1.554,-0.014
1.555,-0.01
1.556,-0.0122
1.557,-0.0076
1.558,-0.0019
1.559,-0.0012
1.56,0.0034
1.561,0.0015
1.562,0.0054
1.563,0.0058
1.564,0.0089
1.565,0.0144
1.566,0.009
1.567,0.0045
1.568,-0.0012
1.569,0.0041
1.57,0.0023
1.571,0.0054
1.572,0.0003
1.573,0.0048
1.574,0.0004
1.575,0.0056
1.576,0.0037
1.577,0.0006
1.578,0.0012
1.579,-0.0021
1.58,0.0048
1.581,0.0036
1.582,0.0065
1.583,0.0111
1.584,0.0167
1.585,0.022
1.586,0.0323
1.587,0.0519
1.588,0.0385
1.589,0.0118
1.59,-0.006
1.591,-0.0091
1.592,-0.012
1.593,-0.0094
1.594,-0.0118
1.595,-0.0184
1.596,-0.0164
1.597,-0.0182
1.598,-0.0166
1.599,-0.021
1.6,-0.017
1.601,-0.0204
1.602,-0.0193
1.603,-0.0144
1.604,-0.0135
1.605,-0.0078
1.606,-0.0025
1.607,0.0008
1.608,-0.0049
1.609,-0.0027
1.61,0.0019
1.611,0.0025
1.612,0.0041
1.613,0.0087
1.614,0.0069
1.615,0.0041
1.616,0.0037
1.617,-0.0032
1.618,-0.0023
1.619,0.0023
1.62,0.003
1.621,0.0083
1.622,0.0037
1.623,0.0069
1.624,0.0107
1.625,0.0032
1.626,0.0043
1.627,0.0034
1.628,0.0025
1.629,0.0001
1.63,0.0054
1.631,0.0048
1.632,0.0028
1.633,0.0023
1.634,0.0107
1.635,0.0167
1.636,0.0246
1.637,0.0316
1.638,0.0455
1.639,0.0435
1.64,0.0197
1.641,-0.0029
1.642,-0.0116
1.643,-0.0142
1.644,-0.0166
1.645,-0.0188
1.646,-0.0168
1.647,-0.0186
1.648,-0.017
1.649,-0.0155
1.65,-0.0142
1.651,-0.0177
1.652,-0.0144
1.653,-0.0135
1.654,-0.0089
1.655,-0.0065
1.656,-0.0072
1.657,-0.0054
1.658,-0.0036
1.659,-0.0063
1.66,-0.003
1.661,0.0001
1.662,0.0004
1.663,0.0015
1.664,-0.0003
1.665,0.0037
1.666,0.0043
1.667,0.003
1.668,-0.0001
1.669,0.0019
1.67,0.0008
1.671,0.0019
1.672,0.0021
1.673,0.0039
1.674,0.0004
1.675,-0.0018
1.676,0.001
1.677,0.0021
1.678,-0.0005
1.679,0.0041
1.68,0.0059
1.681,0.0041
1.682,0.0047
1.683,0.0065
1.684,0.0052
1.685,0.0122
1.686,0.0213
1.687,0.0398
1.688,0.0532
1.689,0.0508
1.69,0.0264
1.691,0.0039
1.692,-0.0049
1.693,-0.0127
1.694,-0.0151
1.695,-0.0217
1.696,-0.0237
1.697,-0.0219
1.698,-0.017
1.699,-0.0155
1.7,-0.0115
1.701,-0.0199
1.702,-0.0166
1.703,-0.0116
1.704,-0.0089
1.705,-0.0065
1.706,-0.0087
1.707,-0.0093
1.708,-0.0087
1.709,-0.0049
1.71,-0.0052
1.711,-0.0049
1.712,-0.0029
1.713,-0.0003
1.714,-0.0007
1.715,0.0039
1.716,0.0021
1.717,-0.001
1.718,0.0052
1.719,0.0076
1.72,0.0083
1.721,0.0089
1.722,0.0107
1.723,0.0112
1.724,0.0079
1.725,0.001
1.726,-0.006
1.727,-0.0051
1.728,0.0025
1.729,0.0015
1.73,0.0118
1.731,0.0323
1.732,0.0175
1.733,0.0041
1.734,-0.0023
1.735,-0.0047
1.736,-0.0025
1.737,-0.0005
1.738,0.0123
1.739,0.0206
1.74,0.0431
1.741,0.0462
1.742,0.0433
1.743,0.0246
1.744,0.0026
1.745,-0.0181
1.746,-0.0206
1.747,-0.0278
1.748,-0.03
1.749,-0.0239
1.75,-0.0257
1.751,-0.0241
1.752,-0.0197
1.753,-0.021
1.754,-0.0221
1.755,-0.0164
1.756,-0.0155
1.757,-0.0127
1.758,-0.0104
1.759,-0.0065
1.76,-0.0083
1.761,-0.0065
1.762,-0.0027
1.763,0.0019
1.764,0.0001
1.765,0.0017
1.766,0.0004
1.767,-0.0027
1.768,-0.0007
1.769,0.0004
1.77,0.0008
1.771,0.0054
1.772,0.0036
1.773,0.0067
1.774,0.0151
1.775,0.009
1.776,0.0079
1.777,0.007
1.778,0.0098
1.779,0.009
1.78,0.0129
1.781,0.0096
1.782,0.0078
1.783,0.0039
1.784,-0.0027
1.785,-0.0008
1.786,-0.0036
1.787,0.0021
1.788,0.0105
1.789,0.0275
1.79,0.0495
1.791,0.0288
1.792,0.021
1.793,0.0041
1.794,-0.0025
1.795,-0.0126
1.796,-0.0107
1.797,-0.0058
1.798,-0.0072
1.799,-0.0032
1.8,-0.0067
1.801,-0.01
1.802,-0.0149
1.803,-0.0159
1.804,-0.0166
1.805,-0.0144
1.806,-0.0054
1.807,-0.0065
1.808,-0.0032
1.809,-0.0023
1.81,0.0023
1.811,0.0063
1.812,0.0041
1.813,-0.0005
1.814,-0.0049
1.815,-0.0054
1.816,0.0001
1.817,-0.0007
1.818,-0.0052
1.819,-0.0021
1.82,-0.0027
1.821,-0.003
1.822,-0.0027
1.823,-0.0007
1.824,-0.0032
1.825,0.0015
1.826,0.001
1.827,0.0061
1.828,0.0043
1.829,0.01
1.83,0.0092
1.831,0.0074
1.832,0.0105
1.833,0.0021
1.834,-0.0014
1.835,-0.0071
1.836,-0.0111
1.837,-0.0061
1.838,0.0078
1.839,0.0138
1.84,0.023
1.841,0.0279
1.842,0.0294
1.843,0.0334
1.844,0.0369
1.845,0.038
1.846,0.0491
1.847,0.0416
1.848,0.0211
1.849,-0.0115
1.85,-0.0243
1.851,-0.0281
1.852,-0.0316
1.853,-0.0347
1.854,-0.0318
1.855,-0.0292
1.856,-0.0316
1.857,-0.0294
1.858,-0.0274
1.859,-0.0256
1.86,-0.0206
1.861,-0.0162
1.862,-0.0094
1.863,-0.0129
1.864,-0.0096
1.865,-0.0067
1.866,-0.004
1.867,-0.0047
1.868,-0.0025
1.869,-0.0019
1.87,0.005
1.871,0.0004
1.872,0.0061
1.873,0.0083
1.874,0.0037
1.875,0.0019
1.876,0.0025
1.877,0.0037
1.878,0.0025
1.879,0.0063
1.88,0.0076
1.881,0.0063
1.882,0.0059
1.883,0.0101
1.884,0.0039
1.885,0.0047
1.886,0.0025
1.887,-0.0016
1.888,0.0003
1.889,-0.0029
1.89,0.0056
1.891,0.0241
1.892,0.0482
1.893,0.0578
1.894,0.0429
1.895,0.0242
1.896,0.0074
1.897,-0.0036
1.898,-0.0056
1.899,-0.0074
1.9,-0.0058
1.901,-0.0072
1.902,-0.0113
1.903,-0.0102
1.904,-0.0045
1.905,0.0025
1.906,0.0089
1.907,0.0048
1.908,0.0041
1.909,-0.0049
1.91,-0.0133
1.911,-0.01
1.912,-0.0149
1.913,-0.0213
1.914,-0.027
1.915,-0.034
1.916,-0.0404
1.917,-0.0512
1.918,-0.0497
1.919,-0.051
1.92,-0.0571
1.921,-0.0514
1.922,-0.0444
1.923,-0.036
1.924,-0.0417
1.925,-0.0466
1.926,-0.0457
1.927,-0.0565
1.928,-0.073
1.929,-0.0884
1.93,-0.0823
1.931,-0.0658
1.932,-0.0593
1.933,-0.0572
1.934,-0.0554
1.935,-0.0338
1.936,0.0107
1.937,0.0935
1.938,0.1295
1.939,0.1632
1.94,0.1735
1.941,0.2015
1.942,0.1931
1.943,0.17
1.944,0.1068
1.945,0.0645
1.946,0.0415
1.947,0.0484
1.948,0.0422
1.949,0.0365
1.95,0.0416
1.951,0.0464
1.952,0.0592
1.953,0.0709
1.954,0.0744
1.955,0.0713
1.956,0.0625
1.957,0.0546
1.958,0.0426
1.959,0.0182
1.96,-0.0043
1.961,-0.0072
1.962,0.0061
1.963,0.0085
1.964,-0.0025
1.965,-0.0166
1.966,-0.0331
1.967,-0.0441
1.968,-0.042
1.969,-0.0475
1.97,-0.0525
1.971,-0.0481
1.972,-0.0549
1.973,-0.056
1.974,-0.0571
1.975,-0.06
1.976,-0.0497
1.977,-0.043
1.978,-0.0395
1.979,-0.0473
1.98,-0.0464
1.981,-0.051
1.982,-0.0517
1.983,-0.0525
1.984,-0.045
1.985,-0.04
1.986,-0.0391
1.987,-0.0367
1.988,-0.0298
1.989,-0.0228
1.99,-0.0274
1.991,-0.0199
1.992,-0.0087
1.993,0.0078
1.994,0.01
1.995,0.0402
1.996,0.0444
1.997,0.0248
1.998,-0.0001
1.999,-0.0096
2,-0.0126
2.001,-0.0151
2.002,-0.0223
2.003,-0.0201
2.004,-0.0181
2.005,-0.0199
2.006,-0.0149
2.007,-0.0135
2.008,-0.0094
2.009,-0.0083
2.01,-0.0072
2.011,-0.0043
2.012,0.0021
2.013,0.0045
2.014,0.0023
2.015,0.0017
2.016,0.0061
2.017,0.01
2.018,0.0133
2.019,0.0101
2.02,0.0074
2.021,0.0032
2.022,0.0083
2.023,0.0078
2.024,0.0047
2.025,0.0052
2.026,0.0076
2.027,0.0118
2.028,0.0101
2.029,0.0069
2.03,0.0047
2.031,0.0067
2.032,0.0048
2.033,0.0074
2.034,0.0067
2.035,0.0074
2.036,0.0067
2.037,0.0056
2.038,0.0026
2.039,0.0045
2.04,0.0079
2.041,0.0112
2.042,0.0175
2.043,0.0259
2.044,0.0429
2.045,0.055
2.046,0.0396
2.047,0.0255
2.048,0.009
2.049,-0.0019
2.05,-0.012
2.051,-0.0102
2.052,-0.0151
2.053,-0.0166
2.054,-0.0098
2.055,-0.0087
2.056,-0.0076
2.057,-0.0085
2.058,-0.0113
2.059,-0.0105
2.06,-0.0036
2.061,-0.0082
2.062,-0.0074
2.063,-0.0052
2.064,-0.0047
2.065,0.0036
2.066,-0.0043
2.067,-0.0072
2.068,-0.0063
2.069,-0.0007
2.07,0.0001
2.071,-0.0032
2.072,-0.0027
2.073,0.0001
2.074,0.0067
2.075,0.0003
2.076,-0.0005
2.077,0.0003
2.078,-0.0003
2.079,0.0015
2.08,0.0021
2.081,0.0076
2.082,0.0037
2.083,0.0032
2.084,0.0026
2.085,0.0054
2.086,0.005
2.087,0.0008
2.088,-0.0008
2.089,0.0015
2.09,-0.0045
2.091,-0.0104
2.092,-0.0047
2.093,0.0069
2.094,0.0184
2.095,0.0288
2.096,0.0329
2.097,0.0464
2.098,0.0556
2.099,0.0473
2.1,0.0248
2.101,0.0023
2.102,-0.0065
2.103,-0.0199
2.104,-0.0223
2.105,-0.0289
2.106,-0.0349
2.107,-0.0367
2.108,-0.0285
2.109,-0.027
2.11,-0.023
2.111,-0.0265
2.112,-0.0186
2.113,-0.0157
2.114,-0.0111
2.115,-0.0104
2.116,-0.0096
2.117,-0.0063
2.118,-0.0032
2.119,-0.0071
2.12,-0.0005
2.121,0.0023
2.122,0.0015
2.123,0.0023
2.124,0.0056
2.125,0.005
2.126,0.0045
2.127,0.0041
2.128,0.0054
2.129,0.005
2.13,0.0092
2.131,0.0054
2.132,0.005
2.133,0.0072
2.134,0.0017
2.135,0.007
2.136,0.0076
2.137,0.0045
2.138,0.0017
2.139,0.0072
2.14,0.0019
2.141,0.0025
2.142,0.0043
2.143,0.0025
2.144,0.0109
2.145,0.0048
2.146,0.0219
2.147,0.0535
2.148,0.0319
2.149,0.0123
2.15,-0.0054
2.151,-0.0085
2.152,-0.0115
2.153,-0.0193
2.154,-0.0265
2.155,-0.0199
2.156,-0.0179
2.157,-0.016
2.158,-0.0177
2.159,-0.0162
2.16,-0.0202
2.161,-0.0142
2.162,-0.0109
2.163,-0.008
2.164,-0.0071
2.165,-0.0047
2.166,-0.004
2.167,-0.0007
2.168,0.0025
2.169,0.0008
2.17,0.0032
2.171,0.0001
2.172,0.0028
2.173,0.0032
2.174,0.0036
2.175,-0.001
2.176,-0.0005
2.177,0.0026
2.178,0.001
2.179,-0.0003
2.18,0.001
2.181,0.003
2.182,0.0087
2.183,0.0079
2.184,0.0058
2.185,0.0052
2.186,0.0008
2.187,0.0059
2.188,0.0054
2.189,0.0048
2.19,0.0032
2.191,0.0028
2.192,0.0006
2.193,0.0079
2.194,0.0069
2.195,0.0125
2.196,0.0182
2.197,0.0297
2.198,0.0546
2.199,0.0369
2.2,0.0144
2.201,0.0056
2.202,-0.0078
2.203,-0.0149
2.204,-0.0171
2.205,-0.0151
2.206,-0.0206
2.207,-0.019
2.208,-0.0234
2.209,-0.0193
2.21,-0.0159
2.211,-0.0126
2.212,-0.0135
2.213,-0.0051
2.214,-0.004
2.215,-0.0089
2.216,-0.008
2.217,-0.004
2.218,-0.0001
2.219,-0.0019
2.22,0.0037
2.221,0.0107
2.222,0.0153
2.223,0.021
2.224,0.0094
2.225,0.0078
2.226,-0.0027
2.227,-0.0014
2.228,-0.0003
2.229,-0.0014
2.23,-0.0023
2.231,-0.0014
2.232,-0.0038
2.233,-0.0016
2.234,-0.0021
2.235,-0.004
2.236,-0.0001
2.237,0.0032
2.238,0.0028
2.239,0.0001
2.24,-0.0041
2.241,-0.0047
2.242,-0.006
2.243,0.0001
2.244,-0.0023
2.245,-0.0016
2.246,0.0069
2.247,0.0079
2.248,0.0231
2.249,0.0297
2.25,0.0277
2.251,0.0296
2.252,0.0279
2.253,0.0354
2.254,0.0341
2.255,0.0281
2.256,0.0248
2.257,0.0178
2.258,0.0133
2.259,0.0076
2.26,0.0145
2.261,0.0285
2.262,-0.0018
2.263,-0.0234
2.264,-0.0351
2.265,-0.0457
2.266,-0.0488
2.267,-0.0517
2.268,-0.0492
2.269,-0.0468
2.27,-0.0402
2.271,-0.0342
2.272,-0.0287
2.273,-0.0237
2.274,-0.0162
2.275,-0.0149
2.276,-0.0089
2.277,-0.0078
2.278,-0.0029
2.279,-0.0038
2.28,0.0003
2.281,-0.0005
2.282,0.0041
2.283,0.0059
2.284,0.0065
2.285,0.0078
2.286,0.0129
2.287,0.0147
2.288,0.0116
2.289,0.0078
2.29,0.0081
2.291,0.0039
2.292,0.009
2.293,0.0096
2.294,0.0052
2.295,0.0058
2.296,0.003
2.297,0.0105
2.298,0.0275
2.299,0.0543
2.3,0.0578
2.301,0.0285
2.302,0.0089
2.303,-0.0018
2.304,-0.0113
2.305,-0.0142
2.306,-0.0168
2.307,-0.0144
2.308,-0.0122
2.309,-0.0102
2.31,-0.0157
2.311,-0.014
2.312,-0.0096
2.313,-0.0083
2.314,-0.0049
2.315,-0.006
2.316,-0.0051
2.317,-0.0041
2.318,-0.0049
2.319,0.0004
2.32,0.0079
2.321,0.003
2.322,0.0021
2.323,0.0028
2.324,0.005
2.325,0.0032
2.326,0.0026
2.327,-0.0036
2.328,0.0004
2.329,0.0043
2.33,0.0061
2.331,0.0067
2.332,0.0039
2.333,0.0006
2.334,0.001
2.335,0.0021
2.336,0.0039
2.337,0.0036
2.338,0.0015
2.339,-0.0021
2.34,-0.0025
2.341,-0.0047
2.342,-0.0027
2.343,0.003
2.344,0.0037
2.345,0.0015
2.346,0.0028
2.347,0.0074
2.348,0.0169
2.349,0.0156
2.35,0.0292
2.351,0.053
2.352,0.0499
2.353,0.0292
2.354,0.0105
2.355,-0.0063
2.356,-0.0173
2.357,-0.0234
2.358,-0.0289
2.359,-0.0272
2.36,-0.0257
2.361,-0.0245
2.362,-0.021
2.363,-0.0243
2.364,-0.0234
2.365,-0.017
2.366,-0.0146
2.367,-0.0107
2.368,-0.0061
2.369,-0.0056
2.37,-0.0018
2.371,-0.0041
2.372,-0.0045
2.373,0.0017
2.374,0.0008
2.375,0.0048
2.376,0.007
2.377,0.0065
2.378,0.007
2.379,0.0087
2.38,0.0074
2.381,0.0032
2.382,0.0026
2.383,-0.0019
2.384,0.0012
2.385,0.0006
2.386,0.0039
2.387,0.0017
2.388,0.0014
2.389,-0.0043
2.39,-0.0051
2.391,-0.0029
2.392,0.0047
2.393,0.0017
2.394,0.0008
2.395,0.0065
2.396,0.0043
2.397,0.0021
2.398,0.0003
2.399,0.0098
2.4,0.0193
2.401,0.0329
2.402,0.0383
2.403,0.0233
2.404,0.0213
2.405,0.0048
2.406,-0.0105
2.407,-0.0126
2.408,-0.0144
2.409,-0.0193
2.41,-0.0179
2.411,-0.0166
2.412,-0.0131
2.413,-0.0142
2.414,-0.0133
2.415,-0.0087
2.416,-0.0094
2.417,-0.0148
2.418,-0.0129
2.419,-0.0072
2.42,-0.008
2.421,-0.0061
2.422,-0.0005
2.423,-0.0027
2.424,0.0019
2.425,-0.0012
2.426,-0.0007
2.427,0.0069
2.428,0.0058
2.429,0.0028
2.43,0.0019
2.431,0.0043
2.432,0.0036
2.433,-0.001
2.434,0.0034
2.435,0.0061
2.436,0.0048
2.437,0.0036
2.438,0.0047
2.439,0.0043
2.44,0.0061
2.441,0.0063
2.442,0.0105
2.443,0.0036
2.444,-0.0029
2.445,-0.0005
2.446,-0.0012
2.447,-0.0058
2.448,-0.006
2.449,0.001
2.45,0.0037
2.451,0.0112
2.452,0.0204
2.453,0.034
2.454,0.0431
2.455,0.0415
2.456,0.0371
2.457,0.0303
2.458,0.0191
2.459,0.0266
2.46,0.0253
2.461,0.0069
2.462,-0.001
2.463,-0.023
2.464,-0.0318
2.465,-0.0397
2.466,-0.0373
2.467,-0.0307
2.468,-0.0246
2.469,-0.0228
2.47,-0.0278
2.471,-0.0263
2.472,-0.0276
2.473,-0.0287
2.474,-0.0276
2.475,-0.0267
2.476,-0.0239
2.477,-0.0246
2.478,-0.0224
2.479,-0.0135
2.48,-0.01
2.481,-0.0133
2.482,-0.0083
2.483,-0.0111
2.484,-0.0054
2.485,-0.0032
2.486,0.0014
2.487,0.0019
2.488,0.0025
2.489,0.0058
2.49,0.0127
2.491,0.0136
2.492,0.0127
2.493,0.0052
2.494,0.0061
2.495,0.007
2.496,0.0094
2.497,0.0072
2.498,0.009
2.499,0.005
2.5,0.0069
2.501,0.0153
2.502,0.0338
2.503,0.0524
2.504,0.0548
2.505,0.0349
2.506,0.0107
2.507,-0.0054
2.508,-0.0142
2.509,-0.0168
2.51,-0.0096
2.511,-0.0074
2.512,-0.0175
2.513,-0.0193
2.514,-0.0111
2.515,-0.0067
2.516,-0.0135
2.517,-0.01
2.518,-0.0089
2.519,-0.006
2.52,-0.0069
2.521,-0.0029
2.522,-0.0021
2.523,0.0081
2.524,0.0096
2.525,0.0083
2.526,0.0118
2.527,0.0107
2.528,0.0058
2.529,0.003
2.53,0.0023
2.531,0.0001
2.532,-0.0005
2.533,-0.0074
2.534,-0.012
2.535,0.0004
2.536,0.0023
2.537,0.0072
2.538,0.0087
2.539,-0.0008
2.54,-0.0043
2.541,-0.0076
2.542,-0.0007
2.543,0.0039
2.544,0.0131
2.545,0.0047
2.546,0.0036
2.547,-0.0014
2.548,-0.0023
2.549,-0.003
2.55,-0.0038
2.551,-0.003
2.552,0.0045
2.553,0.0177
2.554,0.0158
2.555,0.0374
2.556,0.0462
2.557,0.0329
2.558,0.0061
2.559,-0.0045
2.56,-0.014
2.561,-0.0228
2.562,-0.0202
2.563,-0.0179
2.564,-0.0201
2.565,-0.014
2.566,-0.0159
2.567,-0.0076
2.568,-0.0151
2.569,-0.0111
2.57,-0.0122
2.571,-0.0043
2.572,-0.0034
2.573,-0.0043
2.574,0.0014
2.575,0.0052
2.576,0.0034
2.577,0.0003
2.578,-0.0014
2.579,0.0061
2.58,0.0094
2.581,0.0123
2.582,0.0059
2.583,0.0067
2.584,0.0089
2.585,0.0056
2.586,0.0037
2.587,0.001
2.588,0.0006
2.589,0.0003
2.59,0.0006
2.591,0.0032
2.592,0.0014
2.593,-0.0032
2.594,0.0001
2.595,0.0019
2.596,-0.0008
2.597,0.0015
2.598,0.0047
2.599,0.0067
2.6,0.007
2.601,0.0014
2.602,0.0017
2.603,0.0063
2.604,0.0166
2.605,0.0361
2.606,0.044
2.607,0.0416
2.608,0.0217
2.609,-0.0078
2.61,-0.0195
2.611,-0.023
2.612,-0.0325
2.613,-0.0296
2.614,-0.027
2.615,-0.0246
2.616,-0.0224
2.617,-0.0204
2.618,-0.0186
2.619,-0.0071
2.62,-0.0085
2.621,-0.0072
2.622,-0.0012
2.623,-0.0045
2.624,-0.0016
2.625,-0.0025
2.626,0.0032
2.627,0.0039
2.628,0.0085
2.629,0.0054
2.63,-0.0019
2.631,-0.0029
2.632,-0.0001
2.633,0.0023
2.634,-0.0016
2.635,0.003
2.636,0.0025
2.637,0.0041
2.638,0.0028
2.639,-0.0003
2.64,0.0043
2.641,0.0037
2.642,0.0021
2.643,-0.0003
2.644,0.0019
2.645,0.0047
2.646,0.0065
2.647,0.0069
2.648,0.0067
2.649,0.0036
2.65,0.0015
2.651,0.0072
2.652,0.0079
2.653,0.0039
2.654,0.0155
2.655,0.0171
2.656,0.0275
2.657,0.0371
2.658,0.0405
2.659,0.0235
2.66,0.0164
2.661,-0.0036
2.662,-0.0115
2.663,-0.0138
2.664,-0.0292
2.665,-0.0312
2.666,-0.0257
2.667,-0.0142
2.668,-0.0098
2.669,-0.0138
2.67,-0.0149
2.671,-0.0093
2.672,-0.0063
2.673,0.0058
2.674,0.0107
2.675,0.0092
2.676,0.0079
2.677,0.0215
2.678,0.027
2.679,0.0319
2.68,0.0184
2.681,0.0092
2.682,0.0043
2.683,0.0058
2.684,-0.0065
2.685,-0.0181
2.686,-0.0316
2.687,-0.0371
2.688,-0.0486
2.689,-0.0561
2.69,-0.0574
2.691,-0.0539
2.692,-0.0461
2.693,-0.049
2.694,-0.0574
2.695,-0.0607
2.696,-0.0699
2.697,-0.086
2.698,-0.0882
2.699,-0.1023
2.7,-0.1188
2.701,-0.1122
2.702,-0.0981
2.703,-0.0777
2.704,-0.0503
2.705,-0.0307
2.706,-0.0201
2.707,-0.004
2.708,0.0286
2.709,0.0936
2.71,0.159
2.711,0.1674
2.712,0.1597
2.713,0.1667
2.714,0.1729
2.715,0.1326
2.716,0.096
2.717,0.0913
2.718,0.0955
2.719,0.1151
2.72,0.1257
2.721,0.1352
2.722,0.1264
2.723,0.129
2.724,0.1121
2.725,0.0968
2.726,0.0827
2.727,0.0625
2.728,0.0546
2.729,0.0378
2.73,0.0047
2.731,-0.0287
2.732,-0.0245
2.733,-0.0206
2.734,-0.0241
2.735,-0.0402
2.736,-0.049
2.737,-0.0569
2.738,-0.064
2.739,-0.0574
2.74,-0.0675
2.741,-0.0547
2.742,-0.0596
2.743,-0.0701
2.744,-0.0713
2.745,-0.0578
2.746,-0.0523
2.747,-0.0441
2.748,-0.0484
2.749,-0.0497
2.75,-0.0486
2.751,-0.0565
2.752,-0.0556
2.753,-0.0528
2.754,-0.0528
2.755,-0.0505
2.756,-0.042
2.757,-0.0318
2.758,-0.0113
2.759,-0.0025
2.76,0.0109
2.761,0.0037
2.762,0.0369
2.763,0.0416
2.764,0.02
2.765,-0.0074
2.766,-0.0252
2.767,-0.0347
2.768,-0.0435
2.769,-0.0409
2.77,-0.0386
2.771,-0.0276
2.772,-0.0336
2.773,-0.0281
2.774,-0.0232
2.775,-0.0157
2.776,-0.0144
2.777,-0.006
2.778,-0.0049
2.779,0.0001
2.78,0.0122
2.781,0.0138
2.782,0.0034
2.783,0.0074
2.784,0.0063
2.785,0.0096
2.786,0.0067
2.787,0.0094
2.788,0.0134
2.789,0.0112
2.79,0.0107
2.791,0.0089
2.792,0.0105
2.793,0.0138
2.794,0.0096
2.795,0.0123
2.796,0.0136
2.797,0.0206
2.798,0.0197
2.799,0.0076
2.8,0.0125
2.801,0.005
2.802,0.001
2.803,-0.0001
2.804,0.0056
2.805,0.0138
2.806,0.0167
2.807,0.0177
2.808,0.0301
2.809,0.0539
2.81,0.07
2.811,0.0314
2.812,0.0263
2.813,0.012
2.814,-0.0008
2.815,-0.0126
2.816,-0.0091
2.817,-0.0186
2.818,-0.0215
2.819,-0.019
2.82,-0.0166
2.821,-0.0232
2.822,-0.0212
2.823,-0.0193
2.824,-0.0177
2.825,-0.0102
2.826,-0.0007
2.827,0.0028
2.828,-0.0051
2.829,-0.0041
2.83,-0.0014
2.831,-0.0038
2.832,-0.0016
2.833,0.0017
2.834,0.0112
2.835,0.01
2.836,0.0015
2.837,0.0072
2.838,0.0003
2.839,-0.0007
2.84,0.0017
2.841,0.0056
2.842,0.0023
2.843,-0.0008
2.844,-0.0036
2.845,0.0039
2.846,-0.0018
2.847,0.0032
2.848,0.0004
2.849,-0.0003
2.85,0.005
2.851,0.0069
2.852,-0.0014
2.853,0.0019
2.854,0.0028
2.855,0.0056
2.856,0.0043
2.857,0.005
2.858,0.0134
2.859,0.0259
2.86,0.0508
2.861,0.0473
2.862,0.0378
2.863,0.0111
2.864,0.0076
2.865,-0.0019
2.866,-0.0107
2.867,-0.0186
2.868,-0.0257
2.869,-0.0235
2.87,-0.0296
2.871,-0.0314
2.872,-0.0364
2.873,-0.0259
2.874,-0.0219
2.875,-0.0135
2.876,0.0036
2.877,0.0107
2.878,-0.0003
2.879,-0.0104
2.88,-0.0085
2.881,0.003
2.882,0.0105
2.883,0.0037
2.884,-0.0047
2.885,-0.0058
2.886,-0.0067
2.887,-0.0076
2.888,-0.0036
2.889,-0.0029
2.89,0.0047
2.891,0.0076
2.892,0.0048
2.893,0.0072
2.894,0.0019
2.895,0.0065
2.896,0.0083
2.897,0.0134
2.898,0.0032
2.899,0.0017
2.9,0.0085
2.901,0.0074
2.902,-0.0005
2.903,-0.0034
2.904,0.0087
2.905,0.0103
2.906,0.0059
2.907,0.0123
2.908,0.0056
2.909,0.0067
2.91,0.0056
2.911,0.0208
2.912,0.0407
2.913,0.0594
2.914,0.0374
2.915,0.0286
2.916,-0.0008
2.917,-0.0126
2.918,-0.0232
2.919,-0.0263
2.92,-0.0292
2.921,-0.0213
2.922,-0.0237
2.923,-0.0259
2.924,-0.0199
2.925,-0.0254
2.926,-0.0237
2.927,-0.0133
2.928,-0.0146
2.929,-0.0085
2.93,-0.0052
2.931,-0.0061
2.932,-0.0089
2.933,0.0036
2.934,0.0054
2.935,-0.0029
2.936,-0.0164
2.937,-0.0072
2.938,-0.0023
2.939,-0.0067
2.94,-0.0027
2.941,0.0058
2.942,0.0001
2.943,0.0153
2.944,0.0087
2.945,0.0026
2.946,0.0081
2.947,0.0131
2.948,0.0056
2.949,0.0015
2.95,0.0127
2.951,0.0023
2.952,0.009
2.953,0.0056
2.954,0.0023
2.955,0.0092
2.956,0.0138
2.957,0.0014
2.958,-0.0001
2.959,0.0054
2.96,0.0103
2.961,0.0147
2.962,0.0079
2.963,0.009
2.964,0.0239
2.965,0.0501
2.966,0.0535
2.967,0.0374
2.968,0.0167
2.969,0.0034
2.97,-0.0038
2.971,-0.0148
2.972,-0.0208
2.973,-0.0153
2.974,-0.0104
2.975,-0.0148
2.976,-0.0215
2.977,-0.0204
2.978,-0.0193
2.979,-0.0305
2.98,-0.0261
2.981,-0.0083
2.982,-0.006
2.983,-0.0126
2.984,-0.0065
2.985,-0.0047
2.986,-0.0063
2.987,-0.0078
2.988,-0.0038
2.989,-0.0003
2.99,0.003
2.991,0.0039
2.992,0.0048
2.993,0.0123
2.994,0.0032
2.995,0.0021
2.996,-0.0082
2.997,-0.0069
2.998,-0.0034
2.999,0.0023
3,-0.0007
3.001,0.0058
3.002,0.0065
3.003,0.0043
3.004,0.0048
3.005,0.0067
3.006,0.0118
3.007,0.0015
3.008,-0.0029
3.009,0.0006
3.01,0.0019
3.011,0.0131
3.012,0.0206
3.013,0.0411
3.014,0.0499
3.015,0.0473
3.016,0.0305
3.017,0.0061
3.018,-0.0034
3.019,-0.0122
3.02,-0.0148
3.021,-0.0171
3.022,-0.0149
3.023,-0.0129
3.024,-0.0148
3.025,-0.0131
3.026,-0.0116
3.027,-0.0184
3.028,-0.0195
3.029,-0.0116
3.03,-0.0087
3.031,-0.0171
3.032,-0.0093
3.033,-0.0102
3.034,-0.0038
3.035,-0.003
3.036,-0.0023
3.037,-0.0069
3.038,-0.0063
3.039,-0.0012
3.04,0.0034
3.041,0.0052
3.042,0.0025
3.043,0.0037
3.044,-0.0032
3.045,0.0059
3.046,-0.0025
3.047,-0.0014
3.048,0.0015
3.049,0.0025
3.05,0.0032
3.051,0.0039
3.052,0.0021
3.053,0.0116
3.054,0.0129
3.055,0.0069
3.056,0.0036
3.057,0.0065
3.058,0.0092
3.059,-0.0032
3.06,-0.0082
3.061,-0.0027
3.062,0.0089
3.063,0.0103
3.064,0.0281
3.065,0.0449
3.066,0.0559
3.067,0.0257
3.068,0.0129
3.069,0.0012
3.07,-0.0094
3.071,-0.019
3.072,-0.016
3.073,-0.0186
3.074,-0.0257
3.075,-0.0235
3.076,-0.0175
3.077,-0.0193
3.078,-0.0243
3.079,-0.0199
3.08,-0.0159
3.081,-0.0124
3.082,-0.0067
3.083,-0.0076
3.084,-0.016
3.085,-0.0058
3.086,-0.0045
3.087,0.0039
3.088,0.0164
3.089,0.0147
3.09,0.0072
3.091,-0.0023
3.092,0.0012
3.093,0.0069
3.094,0.0098
3.095,0.0219
3.096,0.0169
3.097,0.0034
3.098,0.0015
3.099,0.0032
3.1,-0.0012
3.101,-0.0052
3.102,-0.0087
3.103,-0.0076
3.104,-0.0047
3.105,-0.0019
3.106,-0.0043
3.107,0.001
3.108,0.0004
3.109,0.001
3.11,0.0015
3.111,0.0087
3.112,0.009
3.113,0.016
3.114,0.0312
3.115,0.0512
3.116,0.0433
3.117,0.0264
3.118,0.0065
3.119,-0.0069
3.12,-0.0093
3.121,-0.0159
3.122,-0.0179
3.123,-0.0197
3.124,-0.0148
3.125,-0.0191
3.126,-0.0179
3.127,-0.0118
3.128,-0.0129
3.129,-0.0138
3.13,-0.0074
3.131,-0.0067
3.132,-0.012
3.133,-0.0102
3.134,-0.0107
3.135,-0.0102
3.136,-0.0078
3.137,-0.0074
3.138,-0.0063
3.139,-0.0045
3.14,0.001
3.141,0.0079
3.142,0.0089
3.143,0.0032
3.144,0.0054
3.145,0.0116
3.146,0.0109
3.147,0.0131
3.148,0.0041
3.149,-0.0019
3.15,-0.0008
3.151,-0.0058
3.152,-0.0049
3.153,-0.0041
3.154,-0.0034
3.155,0.0012
3.156,0.0056
3.157,0.0061
3.158,0.0028
3.159,0.0098
3.16,0.0107
3.161,0.0043
3.162,0.0058
3.163,0.0001
3.164,0.0116
3.165,0.0199
3.166,0.0424
3.167,0.0455
3.168,0.0248
3.169,0.0061
3.17,0.0037
3.171,-0.0116
3.172,-0.0137
3.173,-0.0191
3.174,-0.0208
3.175,-0.0164
3.176,-0.0124
3.177,-0.0159
3.178,-0.0056
3.179,-0.0096
3.18,-0.0107
3.181,-0.0051
3.182,-0.006
3.183,-0.0105
3.184,-0.0162
3.185,-0.014
3.186,-0.0122
3.187,-0.0027
3.188,0.0014
3.189,-0.0021
3.19,-0.0032
3.191,-0.0023
3.192,-0.0032
3.193,0.0043
3.194,0.0034
3.195,0.0043
3.196,0.0019
3.197,0.0026
3.198,0.0045
3.199,0.0001
3.2,0.0039
3.201,0.0105
3.202,0.0059
3.203,0.0052
3.204,0.0045
3.205,0.012
3.206,0.0149
3.207,0.0065
3.208,0.0032
3.209,0.0023
3.21,-0.0023
3.211,-0.0016
3.212,-0.0008
3.213,0.0014
3.214,0.0019
3.215,0.0089
3.216,0.0228
3.217,0.0409
3.218,0.048
3.219,0.0237
3.22,0.0076
3.221,-0.0131
3.222,-0.0157
3.223,-0.0181
3.224,-0.0159
3.225,-0.0179
3.226,-0.016
3.227,-0.0177
3.228,-0.0191
3.229,-0.0204
3.23,-0.0239
3.231,-0.016
3.232,-0.0069
3.233,-0.0129
3.234,-0.0072
3.235,-0.0043
3.236,0.0003
3.237,0.001
3.238,-0.0029
3.239,0.0034
3.24,0.0109
3.241,0.0079
3.242,0.0034
3.243,-0.0007
3.244,-0.0014
3.245,0.0061
3.246,-0.0008
3.247,0.0056
3.248,0.0015
3.249,-0.0038
3.25,-0.0019
3.251,0.0012
3.252,0.0063
3.253,0.0045
3.254,0.0026
3.255,-0.0001
3.256,0.0074
3.257,0.0131
3.258,0.0081
3.259,0.0054
3.26,0.0014
3.261,-0.0008
3.262,0.0054
3.263,0.0014
3.264,0.005
3.265,-0.0003
3.266,0.01
3.267,0.0144
3.268,0.0321
3.269,0.0393
3.27,0.0415
3.271,0.0274
3.272,0.0036
3.273,-0.0126
3.274,-0.0096
3.275,-0.0122
3.276,-0.0146
3.277,-0.0168
3.278,-0.0148
3.279,-0.0202
3.28,-0.0153
3.281,-0.0138
3.282,-0.0071
3.283,-0.0082
3.284,-0.0115
3.285,-0.0144
3.286,-0.0135
3.287,-0.0142
3.288,-0.0089
3.289,-0.0071
3.29,-0.0027
3.291,-0.0065
3.292,-0.0041
3.293,-0.0038
3.294,0.0017
3.295,0.0087
3.296,0.0151
3.297,0.0111
3.298,0.0041
3.299,-0.0005
3.3,0.0019
3.301,0.0026
3.302,-0.0019
3.303,0.0025
3.304,0.0109
3.305,0.0074
3.306,0.0017
3.307,0.0008
3.308,-0.0076
3.309,-0.0019
3.31,0.003
3.311,0.0003
3.312,-0.0054
3.313,-0.0016
3.314,0.0017
3.315,-0.006
3.316,-0.0078
3.317,0.0006
3.318,0.009
3.319,0.0215
3.32,0.0431
3.321,0.0519
3.322,0.0332
3.323,0.0211
3.324,0.0012
3.325,-0.0122
3.326,-0.0146
3.327,-0.0124
3.328,-0.0063
3.329,-0.0191
3.33,-0.0241
3.331,-0.0256
3.332,-0.0133
3.333,-0.0083
3.334,-0.0098
3.335,-0.0085
3.336,-0.0074
3.337,-0.0041
3.338,-0.0051
3.339,-0.0135
3.34,-0.0124
3.341,-0.0153
3.342,-0.0126
3.343,-0.0085
3.344,-0.0107
3.345,-0.0061
3.346,0.0034
3.347,0.0211
3.348,0.014
3.349,0.003
3.35,0.009
3.351,0.0145
3.352,0.0096
3.353,0.0052
3.354,0.0012
3.355,0.0001
3.356,-0.0032
3.357,-0.0003
3.358,-0.0067
3.359,0.0041
3.36,-0.0034
3.361,0.0034
3.362,0.0023
3.363,-0.001
3.364,-0.0019
3.365,-0.001
3.366,-0.0045
3.367,-0.0038
3.368,0.0078
3.369,0.0028
3.37,0.0253
3.371,0.0415
3.372,0.0327
3.373,0.0193
3.374,0.0025
3.375,-0.0085
3.376,-0.0105
3.377,-0.0087
3.378,-0.0137
3.379,-0.0151
3.38,-0.0083
3.381,-0.0195
3.382,-0.021
3.383,-0.017
3.384,-0.0135
3.385,-0.0056
3.386,-0.0047
3.387,-0.0111
3.388,-0.0087
3.389,-0.0049
3.39,-0.0067
3.391,-0.0023
3.392,0.0015
3.393,0.009
3.394,0.0079
3.395,0.003
3.396,0.0094
3.397,0.0087
3.398,0.0048
3.399,0.0111
3.4,0.007
3.401,0.0017
3.402,0.0023
3.403,-0.0034
3.404,-0.0056
3.405,0.0019
3.406,0.0048
3.407,-0.0036
3.408,0.0021
3.409,-0.0008
3.41,-0.0054
3.411,-0.0061
3.412,-0.0115
3.413,-0.012
3.414,-0.0063
3.415,-0.0041
3.416,0.0048
3.417,0.005
3.418,-0.0034
3.419,0.0114
3.42,0.0134
3.421,0.0409
3.422,0.0526
3.423,0.0349
3.424,0.0253
3.425,0.0105
3.426,-0.0029
3.427,-0.01
3.428,-0.0078
3.429,-0.0098
3.43,-0.0116
3.431,-0.0166
3.432,-0.0091
3.433,-0.0131
3.434,-0.0071
3.435,-0.0104
3.436,-0.0074
3.437,-0.0102
3.438,-0.0094
3.439,-0.0133
3.44,-0.0151
3.441,-0.017
3.442,-0.0096
3.443,-0.0047
3.444,-0.0074
3.445,-0.0098
3.446,-0.006
3.447,-0.0105
3.448,-0.0036
3.449,-0.0027
3.45,0.0098
3.451,0.0189
3.452,0.0239
3.453,0.0253
3.454,0.0158
3.455,0.0098
3.456,-0.0005
3.457,0.0063
3.458,0.0028
3.459,-0.0005
3.46,-0.0054
3.461,0.001
3.462,-0.0047
3.463,-0.0069
3.464,-0.0036
3.465,-0.0005
3.466,-0.0089
3.467,-0.0078
3.468,-0.0089
3.469,-0.001
3.47,0.0039
3.471,0.0142
3.472,0.0264
3.473,0.038
3.474,0.0484
3.475,0.0279
3.476,0.0131
3.477,-0.0056
3.478,-0.0127
3.479,-0.0149
3.48,-0.017
3.481,-0.0151
3.482,-0.0102
3.483,-0.0027
3.484,-0.004
3.485,-0.0074
3.486,0.0028
3.487,0.0069
3.488,0.0153
3.489,0.021
3.49,0.0219
3.491,0.0228
3.492,0.0136
3.493,0.0001
3.494,-0.0054
3.495,-0.0038
3.496,-0.0113
3.497,-0.01
3.498,-0.0212
3.499,-0.0316
3.5,-0.0439
3.501,-0.0455
3.502,-0.053
3.503,-0.0543
3.504,-0.0459
3.505,-0.0538
3.506,-0.0528
3.507,-0.0389
3.508,-0.0369
3.509,-0.0571
3.51,-0.0649
3.511,-0.0673
3.512,-0.0917
3.513,-0.1078
3.514,-0.1166
3.515,-0.114
3.516,-0.092
3.517,-0.0713
3.518,-0.058
3.519,-0.0521
3.52,-0.0254
3.521,0.0283
3.522,0.1284
3.523,0.1967
3.524,0.2341
3.525,0.2229
3.526,0.1922
3.527,0.1828
3.528,0.1237
3.529,0.1006
3.53,0.0656
3.531,0.0594
3.532,0.0537
3.533,0.0589
3.534,0.0636
3.535,0.0678
3.536,0.0795
3.537,0.083
3.538,0.0861
3.539,0.0832
3.54,0.0753
3.541,0.0682
3.542,0.0704
3.543,0.0442
3.544,-0.0023
3.545,-0.0085
3.546,-0.0029
3.547,-0.008
3.548,-0.0127
3.549,-0.0256
3.55,-0.0452
3.551,-0.0417
3.552,-0.0512
3.553,-0.0541
3.554,-0.0516
3.555,-0.0492
3.556,-0.0514
3.557,-0.0534
3.558,-0.0552
3.559,-0.0635
3.56,-0.056
3.561,-0.0492
3.562,-0.0457
3.563,-0.049
3.564,-0.0602
3.565,-0.0527
3.566,-0.0486
3.567,-0.0497
3.568,-0.053
3.569,-0.0481
3.57,-0.0455
3.571,-0.0409
3.572,-0.0285
3.573,-0.0193
3.574,-0.0043
3.575,0.0098
3.576,0.0263
3.577,0.0153
3.578,-0.0029
3.579,-0.01
3.58,-0.021
3.581,-0.019
3.582,-0.0281
3.583,-0.0265
3.584,-0.0221
3.585,-0.0261
3.586,-0.0201
3.587,-0.0144
3.588,-0.0094
3.589,-0.0085
3.59,0.0006
3.591,-0.0029
3.592,-0.0061
3.593,-0.0012
3.594,-0.0003
3.595,0.0054
3.596,0.0061
3.597,0.0043
3.598,0.0112
3.599,0.0085
3.6,0.0109
3.601,0.0116
3.602,0.0083
3.603,0.0065
3.604,0.007
3.605,0.0058
3.606,0.0127
3.607,0.0078
3.608,0.005
3.609,0.0058
3.61,0.0036
3.611,0.0069
3.612,0.0125
3.613,0.0147
3.614,0.0114
3.615,0.012
3.616,0.0103
3.617,0.0178
3.618,0.0122
3.619,0.0171
3.62,0.0125
3.621,0.0087
3.622,0.0063
3.623,0.0178
3.624,0.0261
3.625,0.0305
3.626,0.0264
3.627,0.0449
3.628,0.0583
3.629,0.0316
3.63,0.0067
3.631,-0.0159
3.632,-0.0188
3.633,-0.0162
3.634,-0.0186
3.635,-0.0252
3.636,-0.0272
3.637,-0.0181
3.638,-0.0197
3.639,-0.0153
3.64,-0.0166
3.641,-0.0155
3.642,-0.0122
3.643,-0.0093
3.644,-0.0047
3.645,-0.0023
3.646,-0.0045
3.647,-0.0027
3.648,-0.0021
3.649,-0.0038
3.65,0.0008
3.651,-0.001
3.652,-0.0005
3.653,-0.0008
3.654,0.0043
3.655,0.0076
3.656,0.0045
3.657,0.005
3.658,0.0054
3.659,0.0076
3.66,0.0048
3.661,0.0074
3.662,0.0078
3.663,0.005
3.664,0.0069
3.665,0.0058
3.666,0.0012
3.667,-0.0007
3.668,0.0025
3.669,0.003
3.67,0.0006
3.671,0.0037
3.672,0.0065
3.673,0.0076
3.674,0.0133
3.675,0.0257
3.676,0.0459
3.677,0.0484
3.678,0.0316
3.679,0.0072
3.68,-0.0023
3.681,-0.0052
3.682,-0.0078
3.683,-0.0199
3.684,-0.0177
3.685,-0.0116
3.686,-0.0171
3.687,-0.0221
3.688,-0.0177
3.689,-0.0137
3.69,-0.0148
3.691,-0.0181
3.692,-0.0049
3.693,0.0006
3.694,-0.001
3.695,-0.0054
3.696,-0.0067
3.697,0.0118
3.698,0.0197
3.699,0.0076
3.7,0.001
3.701,-0.001
3.702,0.0045
3.703,0.0028
3.704,0.0043
3.705,0.0003
3.706,-0.0032
3.707,-0.0021
3.708,-0.003
3.709,-0.0058
3.71,-0.0098
3.711,-0.012
3.712,-0.0018
3.713,-0.0032
3.714,-0.0127
3.715,-0.0016
3.716,-0.0001
3.717,-0.0069
3.718,0.0015
3.719,0.0004
3.72,0.0034
3.721,0.0006
3.722,0.0014
3.723,-0.0016
3.724,0.0085
3.725,0.0125
3.726,0.016
3.727,0.033
3.728,0.0598
3.729,0.042
3.73,0.0195
3.731,0.0047
3.732,-0.0032
3.733,-0.0104
3.734,-0.0082
3.735,-0.0223
3.736,-0.0131
3.737,-0.0115
3.738,-0.0129
3.739,-0.0089
3.74,-0.0124
3.741,-0.0135
3.742,-0.0105
3.743,-0.0133
3.744,-0.0076
3.745,-0.0023
3.746,-0.0069
3.747,-0.0126
3.748,-0.0104
3.749,-0.0085
3.75,-0.0054
3.751,-0.0016
3.752,-0.0049
3.753,-0.0027
3.754,0.0028
3.755,0.005
3.756,-0.004
3.757,-0.0051
3.758,0.0006
3.759,0.0015
3.76,0.0079
3.761,0.0103
3.762,-0.0012
3.763,-0.0029
3.764,-0.0043
3.765,-0.0003
3.766,-0.0014
3.767,-0.0025
3.768,0.0045
3.769,-0.0019
3.77,0.0004
3.771,-0.0049
3.772,-0.0054
3.773,-0.001
3.774,0.0101
3.775,0.0096
3.776,0.012
3.777,0.0189
3.778,0.0259
3.779,0.0398
3.78,0.0459
3.781,0.044
3.782,0.0224
3.783,0.0017
3.784,-0.0061
3.785,-0.0133
3.786,-0.0287
3.787,-0.0267
3.788,-0.0248
3.789,-0.0265
3.79,-0.0221
3.791,-0.0234
3.792,-0.0199
3.793,-0.0188
3.794,-0.0179
3.795,-0.0094
3.796,-0.0083
3.797,-0.0113
3.798,-0.0049
3.799,0.0008
3.8,0.0015
3.801,0.0048
3.802,-0.0034
3.803,0.0023
3.804,0.0072
3.805,0.0081
3.806,0.0058
3.807,-0.0012
3.808,0.0034
3.809,0.001
3.81,0.0079
3.811,0.007
3.812,0.0078
3.813,0.0116
3.814,0.0111
3.815,0.0067
3.816,-0.0018
3.817,-0.0029
3.818,-0.0018
3.819,-0.0008
3.82,0.0037
3.821,0.003
3.822,-0.0008
3.823,-0.0027
3.824,-0.0008
3.825,0.0006
3.826,0.0012
3.827,0.0087
3.828,0.0211
3.829,0.0394
3.83,0.0466
3.831,0.0356
3.832,0.0134
3.833,-0.0014
3.834,-0.0093
3.835,-0.0164
3.836,-0.023
3.837,-0.017
3.838,-0.0224
3.839,-0.0208
3.84,-0.0164
3.841,-0.0177
3.842,-0.0142
3.843,-0.0109
3.844,-0.0118
3.845,-0.0109
3.846,-0.0052
3.847,-0.003
3.848,-0.0012
3.849,-0.0018
3.85,0.001
3.851,0.0014
3.852,0.0026
3.853,-0.0012
3.854,-0.0036
3.855,-0.0049
3.856,-0.001
3.857,-0.0007
3.858,-0.0003
3.859,0.0059
3.86,0.0123
3.861,0.0067
3.862,0.0136
3.863,0.009
3.864,-0.0001
3.865,0.001
3.866,0.0043
3.867,0.0112
3.868,0.0048
3.869,-0.0027
3.87,-0.0036
3.871,-0.0045
3.872,-0.0005
3.873,0.0079
3.874,0.0069
3.875,0.0059
3.876,0.0028
3.877,0.0074
3.878,0.0182
3.879,0.0167
3.88,0.0318
3.881,0.0459
3.882,0.055
3.883,0.0301
3.884,0.0195
3.885,0.0034
3.886,-0.0173
3.887,-0.0252
3.888,-0.0131
3.889,-0.0197
3.89,-0.0257
3.891,-0.0202
3.892,-0.0252
3.893,-0.0208
3.894,-0.014
3.895,-0.0129
3.896,-0.0118
3.897,-0.0089
3.898,-0.0116
3.899,-0.0041
3.9,-0.0091
3.901,-0.0118
3.902,-0.0078
3.903,-0.0025
3.904,-0.0043
3.905,-0.0038
3.906,-0.0021
3.907,0.0003
3.908,0.0054
3.909,0.0008
3.91,0.0026
3.911,0.0021
3.912,0.0034
3.913,0.0003
3.914,-0.0018
3.915,-0.0014
3.916,0.0041
3.917,-0.0043
3.918,0.0036
3.919,0.0026
3.92,0.0054
3.921,0.0047
3.922,-0.0007
3.923,-0.0001
3.924,0.003
3.925,0.0003
3.926,0.0048
3.927,-0.0001
3.928,0.0043
3.929,0.0127
3.93,0.0312
3.931,0.0499
3.932,0.0475
3.933,0.0231
3.934,0.007
3.935,-0.0078
3.936,-0.0157
3.937,-0.0181
3.938,-0.0202
3.939,-0.0102
3.94,-0.0193
3.941,-0.021
3.942,-0.0074
3.943,-0.0056
3.944,-0.0007
3.945,-0.0111
3.946,-0.0098
3.947,-0.0087
3.948,-0.012
3.949,-0.0111
3.95,-0.0157
3.951,-0.0133
3.952,-0.008
3.953,0.001
3.954,0.0021
3.955,-0.0036
3.956,-0.0065
3.957,-0.0056
3.958,-0.0032
3.959,0.0021
3.96,0.0026
3.961,-0.0018
3.962,-0.0056
3.963,-0.001
3.964,0.0047
3.965,0.0039
3.966,0.0085
3.967,0.0041
3.968,0.0069
3.969,-0.0007
3.97,0.0072
3.971,0.0043
3.972,-0.0003
3.973,0.0021
3.974,-0.0001
3.975,0.0032
3.976,0.005
3.977,-0.0023
3.978,0.0014
3.979,0.0043
3.98,0.0107
3.981,0.0131
3.982,0.0246
3.983,0.0495
3.984,0.0389
3.985,0.0164
3.986,0.0015
3.987,-0.0063
3.988,-0.0087
3.989,-0.0109
3.99,-0.021
3.991,-0.0228
3.992,-0.0179
3.993,-0.0104
3.994,-0.0116
3.995,-0.0082
3.996,-0.0049
3.997,-0.0118
3.998,-0.0091
3.999,-0.0051
4,0.0003
4.001,0.0021
4.002,-0.001
4.003,-0.0061
4.004,-0.0043
4.005,0.0052
4.006,0.0039
4.007,0.0028
4.008,0.0039
4.009,0.0069
4.01,0.0023
4.011,0.003
4.012,-0.0008
4.013,-0.0027
4.014,0.0043
4.015,0.0089
4.016,0.0096
4.017,0.0074
4.018,0.0069
4.019,0.0037
4.02,-0.0014
4.021,-0.0019
4.022,0.0025
4.023,0.0008
4.024,-0.0005
4.025,-0.0008
4.026,-0.0005
4.027,0.0021
4.028,0.0003
4.029,0.0021
4.03,0.0067
4.031,0.0156
4.032,0.0096
4.033,0.0266
4.034,0.0435
4.035,0.0281
4.036,0.0059
4.037,-0.0089
4.038,-0.0115
4.039,-0.0186
4.04,-0.0296
4.041,-0.0276
4.042,-0.0221
4.043,-0.0204
4.044,-0.016
4.045,-0.0148
4.046,-0.0137
4.047,-0.0148
4.048,-0.0157
4.049,-0.0072
4.05,-0.0105
4.051,-0.0096
4.052,-0.0051
4.053,-0.0058
4.054,-0.008
4.055,-0.0047
4.056,0.001
4.057,0.0017
4.058,0.0012
4.059,-0.0032
4.06,0.0019
4.061,0.0001
4.062,0.0019
4.063,0.0003
4.064,0.0069
4.065,0.0133
4.066,0.0058
4.067,0.0008
4.068,-0.0019
4.069,-0.006
4.07,-0.0021
4.071,0.0054
4.072,0.0045
4.073,0.0036
4.074,-0.0021
4.075,-0.0029
4.076,0.0061
4.077,0.005
4.078,0.0061
4.079,-0.0008
4.08,-0.0038
4.081,0.0026
4.082,0.0151
4.083,0.0133
4.084,0.0349
4.085,0.0556
4.086,0.0477
4.087,0.0308
4.088,0.0109
4.089,-0.0025
4.09,-0.0096
4.091,-0.0162
4.092,-0.0182
4.093,-0.0201
4.094,-0.0184
4.095,-0.014
4.096,-0.0153
4.097,-0.0093
4.098,-0.0082
4.099,-0.0072
4.1,-0.0082
4.101,-0.0074
4.102,-0.019
4.103,-0.014
4.104,-0.0096
4.105,-0.0056
4.106,0.0004
4.107,0.0037
4.108,0.0047
4.109,0.0092
4.11,0.0116
4.111,0.0109
4.112,0.0114
4.113,0.0197
4.114,0.0208
4.115,0.0096
4.116,0.0052
4.117,0.0065
4.118,0.0004
4.119,0.0015
4.12,0.0065
4.121,0.0092
4.122,0.0085
4.123,0.0078
4.124,0.0123
4.125,0.0092
4.126,0.0041
4.127,0.0036
4.128,0.0105
4.129,0.0078
4.13,0.0003
4.131,0.0028
4.132,0.0078
4.133,0.0162
4.134,0.0129
4.135,0.0281
4.136,0.0524
4.137,0.0363
4.138,0.0096
4.139,-0.0082
4.14,-0.0113
4.141,-0.0261
4.142,-0.0235
4.143,-0.0259
4.144,-0.0281
4.145,-0.0301
4.146,-0.0283
4.147,-0.0267
4.148,-0.0281
4.149,-0.0294
4.15,-0.0182
4.151,-0.0226
4.152,-0.0213
4.153,-0.0202
4.154,-0.017
4.155,-0.0078
4.156,-0.0089
4.157,-0.01
4.158,-0.0109
4.159,-0.0045
4.16,-0.0038
4.161,-0.0016
4.162,0.0047
4.163,0.0023
4.164,-0.003
4.165,-0.0036
4.166,0.0008
4.167,0.0047
4.168,0.0079
4.169,0.0048
4.17,0.0021
4.171,0.0047
4.172,0.005
4.173,0.0036
4.174,0.0054
4.175,0.003
4.176,0.0037
4.177,0.0045
4.178,0.0026
4.179,0.0061
4.18,0.0136
4.181,0.0103
4.182,0.005
4.183,0.0041
4.184,-0.0023
4.185,0.0017
4.186,0.001
4.187,-0.0036
4.188,0.0047
4.189,0.0103
4.19,0.0094
4.191,0.0048
4.192,0.0123
4.193,0.0215
4.194,0.0376
4.195,0.0398
4.196,0.0177
4.197,0.0147
4.198,-0.0094
4.199,-0.019
4.2,-0.0219
4.201,-0.0245
4.202,-0.0268
4.203,-0.0246
4.204,-0.0226
4.205,-0.0171
4.206,-0.0221
4.207,-0.0146
4.208,-0.0159
4.209,-0.0124
4.21,-0.0021
4.211,0.0047
4.212,0.0012
4.213,0.0001
4.214,0.001
4.215,0.0094
4.216,0.0105
4.217,0.0114
4.218,0.0142
4.219,0.0217
4.22,0.0246
4.221,0.0255
4.222,0.0296
4.223,0.0318
4.224,0.0272
4.225,0.0177
4.226,0.0136
4.227,0.0125
4.228,0.0136
4.229,-0.0016
4.23,-0.0126
4.231,-0.0226
4.232,-0.0354
4.233,-0.0382
4.234,-0.0431
4.235,-0.0356
4.236,-0.0479
4.237,-0.0296
4.238,-0.0224
4.239,-0.0159
4.24,-0.0259
4.241,-0.0351
4.242,-0.06
4.243,-0.0922
4.244,-0.0964
4.245,-0.1319
4.246,-0.1462
4.247,-0.1504
4.248,-0.1308
4.249,-0.0986
4.25,-0.077
4.251,-0.0732
4.252,-0.0625
4.253,-0.0332
4.254,0.0259
4.255,0.1191
4.256,0.1564
4.257,0.1676
4.258,0.1779
4.259,0.1872
4.26,0.1619
4.261,0.1389
4.262,0.1039
4.263,0.085
4.264,0.0678
4.265,0.073
4.266,0.0777
4.267,0.0735
4.268,0.0773
4.269,0.088
4.27,0.0911
4.271,0.094
4.272,0.0966
4.273,0.0894
4.274,0.0741
4.275,0.0761
4.276,0.0632
4.277,0.0383
4.278,0.0134
4.279,0.0039
4.28,0.0069
4.281,0.0094
4.282,0.0023
4.283,-0.0087
4.284,-0.0184
4.285,-0.0204
4.286,-0.0149
4.287,-0.0199
4.288,-0.0063
4.289,-0.0045
4.29,-0.0294
4.291,-0.0543
4.292,-0.0638
4.293,-0.0726
4.294,-0.0701
4.295,-0.0724
4.296,-0.0658
4.297,-0.0679
4.298,-0.0807
4.299,-0.0757
4.3,-0.0713
4.301,-0.0673
4.302,-0.0684
4.303,-0.0651
4.304,-0.0622
4.305,-0.0576
4.306,-0.0501
4.307,-0.0389
4.308,-0.0345
4.309,-0.025
4.31,-0.0239
4.311,-0.0228
4.312,-0.0199
4.313,-0.0135
4.314,-0.0111
4.315,-0.0058
4.316,0.0004
4.317,0.0028
4.318,0.0021
4.319,-0.0012
4.32,-0.0007
4.321,0.0067
4.322,0.0076
4.323,0.003
4.324,0.0037
4.325,0.0059
4.326,0.0092
4.327,0.0074
4.328,0.0058
4.329,0.0133
4.33,0.0144
4.331,0.0094
4.332,0.0048
4.333,0.0072
4.334,0.0111
4.335,0.0058
4.336,0.009
4.337,0.0186
4.338,0.0199
4.339,0.036
4.34,0.0559
4.341,0.0534
4.342,0.0365
4.343,0.0166
4.344,-0.0021
4.345,-0.0045
4.346,-0.0067
4.347,-0.0127
4.348,-0.0146
4.349,-0.0096
4.35,-0.014
4.351,-0.0181
4.352,-0.0146
4.353,-0.0157
4.354,-0.0127
4.355,-0.0063
4.356,-0.0007
4.357,0.0001
4.358,0.0019
4.359,-0.0038
4.36,-0.0107
4.361,-0.0061
4.362,-0.0038
4.363,0.0078
4.364,0.0061
4.365,0.0047
4.366,0.0087
4.367,0.0076
4.368,0.0043
4.369,0.0052
4.37,0.0043
4.371,0.005
4.372,0.0028
4.373,0.0034
4.374,0.0028
4.375,0.0079
4.376,0.0074
4.377,0.0105
4.378,0.0089
4.379,0.0065
4.38,0.0043
4.381,-0.0019
4.382,0.0026
4.383,0.0067
4.384,0.0028
4.385,-0.0005
4.386,-0.0001
4.387,-0.0007
4.388,0.0078
4.389,0.0189
4.39,0.0325
4.391,0.0416
4.392,0.0532
4.393,0.0427
4.394,0.0222
4.395,0.0015
4.396,-0.0063
4.397,-0.0087
4.398,-0.0197
4.399,-0.0257
4.4,-0.0202
4.401,-0.0186
4.402,-0.0201
4.403,-0.0188
4.404,-0.0177
4.405,-0.0166
4.406,-0.0157
4.407,-0.0093
4.408,-0.0116
4.409,-0.0063
4.41,-0.0069
4.411,-0.0025
4.412,-0.003
4.413,-0.0007
4.414,0.0025
4.415,0.0045
4.416,0.0041
4.417,0.0052
4.418,0.0079
4.419,0.0122
4.42,0.0059
4.421,0.0052
4.422,0.0167
4.423,0.025
4.424,0.0264
4.425,0.0277
4.426,0.0217
4.427,0.0206
4.428,0.0177
4.429,0.0131
4.43,0.0107
4.431,0.0054
4.432,0.0008
4.433,0.0103
4.434,0.0144
4.435,0.0109
4.436,0.0076
4.437,-0.0023
4.438,-0.0093
4.439,-0.0047
4.44,-0.004
4.441,-0.0061
4.442,0.0041
4.443,0.0266
4.444,0.0171
4.445,-0.0036
4.446,-0.0115
4.447,-0.0186
4.448,-0.0208
4.449,-0.0309
4.45,-0.029
4.451,-0.0274
4.452,-0.0289
4.453,-0.0356
4.454,-0.0245
4.455,-0.0201
4.456,-0.0188
4.457,-0.0153
4.458,-0.0096
4.459,-0.0005
4.46,-0.0065
4.461,-0.0054
4.462,-0.0063
4.463,-0.0054
4.464,-0.0061
4.465,-0.0083
4.466,-0.0038
4.467,-0.0019
4.468,-0.0058
4.469,-0.0071
4.47,-0.0049
4.471,-0.0021
4.472,-0.0025
4.473,-0.0029
4.474,0.0017
4.475,0.0107
4.476,0.0096
4.477,0.0039
4.478,0.0089
4.479,0.0079
4.48,0.0072
4.481,0.005
4.482,0.0045
4.483,0.0039
4.484,0.0034
4.485,0.0021
4.486,-0.0049
4.487,0.0063
4.488,0.0138
4.489,0.0034
4.49,-0.0007
4.491,0.0129
4.492,0.0257
4.493,0.0473
4.494,0.0561
4.495,0.0482
4.496,0.0314
4.497,0.007
4.498,-0.0025
4.499,-0.0113
4.5,-0.0138
4.501,-0.021
4.502,-0.0188
4.503,-0.0248
4.504,-0.0267
4.505,-0.0184
4.506,-0.014
4.507,-0.0208
4.508,-0.0173
4.509,-0.0094
4.51,-0.0104
4.511,-0.0094
4.512,-0.0071
4.513,-0.0032
4.514,-0.0051
4.515,-0.0056
4.516,-0.004
4.517,0.0006
4.518,0.005
4.519,0.0023
4.52,-0.001
4.521,-0.0007
4.522,-0.0034
4.523,-0.0091
4.524,-0.0051
4.525,-0.0029
4.526,0.0074
4.527,0.0089
4.528,0.0021
4.529,0.0056
4.53,0.0067
4.531,0.0058
4.532,0.0048
4.533,0.0056
4.534,0.0017
4.535,0.0012
4.536,0.0056
4.537,0.0072
4.538,0.0017
4.539,0.0028
4.54,0.0067
4.541,0.0169
4.542,0.0184
4.543,0.0252
4.544,0.0413
4.545,0.0523
4.546,0.0382
4.547,0.0144
4.548,-0.0018
4.549,-0.0105
4.55,-0.0184
4.551,-0.016
4.552,-0.0226
4.553,-0.0166
4.554,-0.0184
4.555,-0.0201
4.556,-0.0215
4.557,-0.0148
4.558,-0.0137
4.559,-0.0104
4.56,-0.0074
4.561,-0.0029
4.562,0.0028
4.563,-0.0025
4.564,-0.0019
4.565,0.0063
4.566,0.0052
4.567,-0.004
4.568,0.0096
4.569,0.0004
4.57,0.0021
4.571,0.0065
4.572,0.0025
4.573,0.0059
4.574,0.0003
4.575,-0.0047
4.576,-0.0038
4.577,0.0087
4.578,-0.0005
4.579,0.0012
4.58,-0.0032
4.581,0.0008
4.582,0.0043
4.583,0.0076
4.584,0.0047
4.585,0.0019
4.586,0.0012
4.587,0.0004
4.588,0.0023
4.589,0.0017
4.59,0.0043
4.591,0.0015
4.592,0.009
4.593,0.0147
4.594,0.0118
4.595,0.0257
4.596,0.0479
4.597,0.033
4.598,0.0089
4.599,-0.0072
4.6,-0.016
4.601,-0.0186
4.602,-0.0257
4.603,-0.0191
4.604,-0.0171
4.605,-0.0263
4.606,-0.0213
4.607,-0.0199
4.608,-0.0186
4.609,-0.0151
4.61,-0.0094
4.611,-0.0104
4.612,-0.0113
4.613,-0.0038
4.614,-0.0029
4.615,-0.0056
4.616,-0.0032
4.617,0.0021
4.618,-0.0012
4.619,-0.0043
4.62,-0.0049
4.621,0.0026
4.622,0.0037
4.623,0.0047
4.624,0.0131
4.625,0.0052
4.626,0.0043
4.627,0.0034
4.628,0.0026
4.629,0.0034
4.63,0.0052
4.631,0.0034
4.632,0.0006
4.633,0.0003
4.634,-0.0019
4.635,0.0036
4.636,0.0043
4.637,0.001
4.638,0.0092
4.639,-0.001
4.64,-0.0023
4.641,-0.0045
4.642,0.0039
4.643,0.021
4.644,0.0281
4.645,0.048
4.646,0.0402
4.647,0.0233
4.648,0.0079
4.649,-0.0061
4.65,-0.008
4.651,-0.0096
4.652,-0.014
4.653,-0.0235
4.654,-0.0201
4.655,-0.0144
4.656,-0.0074
4.657,-0.0065
4.658,-0.0122
4.659,-0.0129
4.66,-0.0067
4.661,-0.0074
4.662,-0.0067
4.663,-0.0085
4.664,-0.0029
4.665,-0.0051
4.666,-0.0032
4.667,-0.0027
4.668,-0.001
4.669,0.0014
4.67,0.0017
4.671,0.0006
4.672,-0.0005
4.673,-0.003
4.674,0.0015
4.675,0.0034
4.676,0.0003
4.677,0.0008
4.678,0.0012
4.679,0.0081
4.68,0.0173
4.681,0.0162
4.682,0.0151
4.683,0.0039
4.684,-0.0036
4.685,-0.0049
4.686,0.0087
4.687,0.0032
4.688,0.0015
4.689,0.0001
4.69,-0.004
4.691,-0.01
4.692,-0.0082
4.693,-0.0025
4.694,0.0087
4.695,0.0101
4.696,0.0224
4.697,0.034
4.698,0.0504
4.699,0.0261
4.7,0.0166
4.701,0.0017
4.702,-0.0061
4.703,-0.0182
4.704,-0.016
4.705,-0.0221
4.706,-0.0239
4.707,-0.0354
4.708,-0.025
4.709,-0.0127
4.71,-0.0111
4.711,-0.0126
4.712,-0.0193
4.713,-0.0133
4.714,-0.0076
4.715,-0.0105
4.716,-0.006
4.717,-0.0067
4.718,-0.0045
4.719,-0.0012
4.72,0.0083
4.721,0.0123
4.722,0.0134
4.723,0.0032
4.724,0.0019
4.725,0.0103
4.726,0.0092
4.727,0.0101
4.728,0.0092
4.729,0.0001
4.73,-0.0034
4.731,-0.0001
4.732,0.0008
4.733,-0.0001
4.734,-0.0041
4.735,0.0012
4.736,-0.0007
4.737,0.0063
4.738,0.0109
4.739,0.0069
4.74,0.0015
4.741,-0.0003
4.742,0.0015
4.743,0.0028
4.744,0.0067
4.745,0.0142
4.746,0.022
4.747,0.025
4.748,0.0389
4.749,0.049
4.75,0.0361
4.751,0.0112
4.752,0.0006
4.753,-0.0155
4.754,-0.0184
4.755,-0.021
4.756,-0.0186
4.757,-0.0252
4.758,-0.0191
4.759,-0.0173
4.76,-0.0157
4.761,-0.0201
4.762,-0.0188
4.763,-0.0076
4.764,-0.0091
4.765,-0.0078
4.766,-0.0018
4.767,-0.0074
4.768,-0.0065
4.769,-0.0074
4.77,-0.0034
4.771,-0.0012
4.772,-0.0007
4.773,-0.0001
4.774,-0.0007
4.775,-0.0061
4.776,0.0023
4.777,0.0101
4.778,0.0052
4.779,-0.0032
4.78,0.0001
4.781,0.001
4.782,0.0056
4.783,0.0063
4.784,0.0041
4.785,0.0036
4.786,0.0004
4.787,0.001
4.788,0.0023
4.789,-0.0019
4.79,0.0019
4.791,0.0074
4.792,0.0052
4.793,-0.0023
4.794,-0.0082
4.795,-0.0052
4.796,0.0087
4.797,0.0147
4.798,0.0422
4.799,0.0539
4.8,0.0504
4.801,0.0343
4.802,0.0076
4.803,-0.0102
4.804,-0.0133
4.805,-0.0162
4.806,-0.0188
4.807,-0.0259
4.808,-0.0149
4.809,-0.025
4.81,-0.0159
4.811,-0.0142
4.812,-0.0127
4.813,-0.0005
4.814,-0.0021
4.815,-0.0065
4.816,-0.0105
4.817,-0.0045
4.818,-0.0078
4.819,-0.0029
4.82,0.0036
4.821,0.0028
4.822,-0.0025
4.823,-0.0019
4.824,0.0025
4.825,-0.0027
4.826,-0.0021
4.827,0.0023
4.828,0.005
4.829,-0.0005
4.83,0.0079
4.831,0.0069
4.832,-0.0023
4.833,-0.0012
4.834,0.0021
4.835,0.003
4.836,-0.0034
4.837,-0.0027
4.838,-0.0096
4.839,-0.0032
4.84,0.0008
4.841,-0.0014
4.842,0.0019
4.843,0.0001
4.844,0.0039
4.845,0.0079
4.846,0.0083
4.847,0.0153
4.848,0.0103
4.849,0.0242
4.85,0.0504
4.851,0.0327
4.852,0.0166
4.853,0.0017
4.854,-0.0061
4.855,-0.0182
4.856,-0.016
4.857,-0.0181
4.858,-0.0199
4.859,-0.0149
4.86,-0.0135
4.861,-0.0122
4.862,-0.0157
4.863,-0.0146
4.864,-0.0076
4.865,-0.014
4.866,-0.0148
4.867,-0.0109
4.868,-0.0034
4.869,-0.0005
4.87,0.0004
4.871,-0.0052
4.872,-0.003
4.873,-0.0025
4.874,0.0045
4.875,0.0072
4.876,0.0015
4.877,0.0054
4.878,0.0072
4.879,0.0041
4.88,0.0036
4.881,0.0023
4.882,0.001
4.883,0.0006
4.884,-0.0043
4.885,-0.0038
4.886,-0.0007
4.887,0.0056
4.888,-0.0001
4.889,-0.0023
4.89,0.0023
4.891,0.0092
4.892,0.0065
4.893,0.0008
4.894,0.003
4.895,0.0012
4.896,-0.0008
4.897,0.0023
4.898,0.0107
4.899,0.0167
4.9,0.0316
4.901,0.0457
4.902,0.0402
4.903,0.0418
4.904,0.0283
4.905,0.0045
4.906,-0.0051
4.907,-0.0138
4.908,-0.0164
4.909,-0.0188
4.91,-0.0166
4.911,-0.0146
4.912,-0.0201
4.913,-0.0151
4.914,-0.0137
4.915,-0.0069
4.916,-0.0058
4.917,-0.0115
4.918,-0.0105
4.919,-0.0096
4.92,-0.012
4.921,-0.0098
4.922,-0.008
4.923,-0.0061
4.924,-0.01
4.925,-0.0025
4.926,0.0123
4.927,0.0103
4.928,0.0012
4.929,0.0061
4.93,0.0105
4.931,0.001
4.932,-0.0051
4.933,-0.0061
4.934,-0.0071
4.935,-0.0007
4.936,-0.0047
4.937,-0.0054
4.938,-0.0049
4.939,-0.0054
4.94,-0.0049
4.941,-0.0025
4.942,-0.0003
4.943,-0.0041
4.944,-0.0008
4.945,0.0052
4.946,0.0059
4.947,0.0043
4.948,0.0036
4.949,0.0098
4.95,0.009
4.951,0.0206
4.952,0.0455
4.953,0.049
4.954,0.0329
4.955,0.0003
4.956,-0.004
4.957,-0.0078
4.958,-0.0113
4.959,-0.0082
4.96,-0.017
4.961,-0.0195
4.962,-0.0219
4.963,-0.0153
4.964,-0.0133
4.965,-0.0115
4.966,-0.0065
4.967,-0.014
4.968,-0.01
4.969,-0.0111
4.97,-0.0078
4.971,-0.0008
4.972,-0.0018
4.973,-0.001
4.974,-0.0003
4.975,-0.0008
4.976,0.001
4.977,0.0004
4.978,0.0017
4.979,0.0059
4.98,0.0043
4.981,0.0098
4.982,0.009
4.983,0.0001
4.984,0.0012
4.985,0.009
4.986,0.0081
4.987,0.0054
4.988,0.0014
4.989,-0.0056
4.99,0.0008
4.991,0.0065
4.992,0.0043
4.993,0.0089
4.994,0.007
4.995,0.0155
4.996,0.0166
4.997,0.0199
4.998,0.0233
4.999,0.0224
5,0.0288
5.001,0.0197
5.002,0.0382
5.003,0.0623
5.004,0.0528
5.005,0.038
5.006,0.0138
5.007,-0.0023
5.008,-0.023
5.009,-0.0309
5.01,-0.043
5.011,-0.0583
5.012,-0.0684
5.013,-0.0812
5.014,-0.073
5.015,-0.0565
5.016,-0.0543
5.017,-0.0523
5.018,-0.0505
5.019,-0.0521
5.02,-0.0717
5.021,-0.0743
5.022,-0.0863
5.023,-0.1017
5.024,-0.1158
5.025,-0.1213
5.026,-0.1296
5.027,-0.1221
5.028,-0.1125
5.029,-0.1091
5.03,-0.092
5.031,-0.0556
5.032,0.0127
5.033,0.1154
5.034,0.1563
5.035,0.1687
5.036,0.1799
5.037,0.1696
5.038,0.1416
5.039,0.1163
5.04,0.1087
5.041,0.0878
5.042,0.0816
5.043,0.0872
5.044,0.1028
5.045,0.1266
5.046,0.1482
5.047,0.1444
5.048,0.1337
5.049,0.1237
5.05,0.1142
5.051,0.1171
5.052,0.1145
5.053,0.0828
5.054,0.0612
5.055,0.0651
5.056,0.0545
5.057,0.0188
5.058,0.0045
5.059,-0.0083
5.06,-0.0279
5.061,-0.0386
5.062,-0.0547
5.063,-0.0635
5.064,-0.0556
5.065,-0.0677
5.066,-0.0699
5.067,-0.0719
5.068,-0.0737
5.069,-0.0721
5.07,-0.0765
5.071,-0.0724
5.072,-0.0735
5.073,-0.0746
5.074,-0.0717
5.075,-0.0744
5.076,-0.0768
5.077,-0.0761
5.078,-0.0715
5.079,-0.0684
5.08,-0.06
5.081,-0.0516
5.082,-0.0437
5.083,-0.0446
5.084,-0.0419
5.085,-0.0294
5.086,-0.0202
5.087,-0.0219
5.088,-0.0204
5.089,-0.0164
5.09,-0.0153
5.091,-0.0096
5.092,-0.0126
5.093,-0.0098
5.094,-0.0041
5.095,0.0012
5.096,0.0017
5.097,-0.004
5.098,0.003
5.099,0.0021
5.1,-0.0052
5.101,0.0004
5.102,0.012
5.103,0.0369
5.104,0.0762
5.105,0.0711
5.106,0.0568
5.107,0.0266
5.108,0.007
5.109,0.0036
5.11,-0.006
5.111,-0.0089
5.112,-0.0063
5.113,-0.004
5.114,-0.0018
5.115,0.0003
5.116,0.0021
5.117,-0.0061
5.118,-0.0047
5.119,0.0021
5.12,-0.0014
5.121,0.0019
5.122,-0.003
5.123,0.0072
5.124,0.0004
5.125,-0.0007
5.126,0.0026
5.127,0.0036
5.128,0.0081
5.129,0.0058
5.13,0.0111
5.131,0.0129
5.132,0.0047
5.133,0.0014
5.134,0.0023
5.135,0.0032
5.136,0.0089
5.137,-0.0012
5.138,-0.008
5.139,0.0056
5.14,0.0037
5.141,0.012
5.142,0.0224
5.143,0.0156
5.144,0.0072
5.145,0.0061
5.146,0.0052
5.147,0.0043
5.148,0.0067
5.149,0.0028
5.15,0.001
5.151,-0.0016
5.152,-0.0021
5.153,0.0063
5.154,0.0003
5.155,0.0173
5.156,0.044
5.157,0.0405
5.158,0.0112
5.159,-0.0005
5.16,-0.004
5.161,-0.0135
5.162,0.0014
5.163,-0.0065
5.164,-0.0089
5.165,-0.0155
5.166,-0.0135
5.167,-0.0116
5.168,-0.01
5.169,-0.0115
5.17,-0.0102
5.171,-0.0018
5.172,0.0015
5.173,0.0045
5.174,-0.0076
5.175,-0.006
5.176,0.0015
5.177,-0.0025
5.178,-0.006
5.179,-0.0184
5.18,-0.0102
5.181,0.0003
5.182,-0.0038
5.183,-0.0027
5.184,-0.006
5.185,-0.003
5.186,-0.0021
5.187,0.0054
5.188,-0.0038
5.189,-0.0027
5.19,-0.0016
5.191,0.0014
5.192,0.0004
5.193,0.0129
5.194,0.0147
5.195,0.0098
5.196,0.0054
5.197,0.0014
5.198,0.0048
5.199,0.0105
5.2,0.0036
5.201,-0.001
5.202,-0.0001
5.203,0.0006
5.204,0.0045
5.205,0.0107
5.206,0.0199
5.207,0.0383
5.208,0.025
5.209,0.0321
5.21,0.0431
5.211,0.0371
5.212,0.0169
5.213,-0.0072
5.214,-0.0168
5.215,-0.0256
5.216,-0.0281
5.217,-0.0305
5.218,-0.0239
5.219,-0.0219
5.22,-0.0237
5.221,-0.0221
5.222,-0.0265
5.223,-0.0252
5.224,-0.014
5.225,-0.0126
5.226,-0.0166
5.227,-0.0082
5.228,-0.0025
5.229,0.0004
5.23,-0.0135
5.231,-0.0115
5.232,-0.0023
5.233,-0.004
5.234,0.0004
5.235,0.0017
5.236,0.0078
5.237,0.0045
5.238,0.0015
5.239,-0.003
5.24,0.0045
5.241,0.0094
5.242,0.0048
5.243,0.0089
5.244,0.005
5.245,0.0069
5.246,-0.0001
5.247,-0.001
5.248,-0.0003
5.249,0.0081
5.25,0.0092
5.251,0.0043
5.252,0.0052
5.253,0.0036
5.254,0.0076
5.255,0.016
5.256,0.0308
5.257,0.0449
5.258,0.0504
5.259,0.0354
5.26,0.0052
5.261,0.001
5.262,-0.0107
5.263,-0.0142
5.264,-0.0173
5.265,-0.0202
5.266,-0.0228
5.267,-0.0204
5.268,-0.0138
5.269,-0.0078
5.27,-0.0023
5.271,-0.004
5.272,-0.0115
5.273,-0.0155
5.274,-0.0071
5.275,-0.0082
5.276,-0.0072
5.277,-0.01
5.278,-0.0043
5.279,-0.0005
5.28,0.007
5.281,0.0021
5.282,0.003
5.283,0.0023
5.284,0.0015
5.285,-0.003
5.286,0.0052
5.287,0.0019
5.288,0.0151
5.289,0.0059
5.29,-0.0023
5.291,-0.0038
5.292,0.0085
5.293,0.0101
5.294,0.0087
5.295,0.0074
5.296,0.0063
5.297,0.0006
5.298,-0.0023
5.299,-0.0014
5.3,0.0026
5.301,0.0048
5.302,0.0003
5.303,0.0008
5.304,-0.003
5.305,-0.0069
5.306,0.0006
5.307,0.0039
5.308,0.0191
5.309,0.0479
5.31,0.0283
5.311,0.0105
5.312,0.001
5.313,-0.0078
5.314,-0.0157
5.315,-0.0085
5.316,-0.0107
5.317,-0.0168
5.318,-0.0076
5.319,-0.0093
5.32,-0.0168
5.321,-0.0155
5.322,-0.012
5.323,0.0028
5.324,-0.0032
5.325,-0.0087
5.326,-0.0038
5.327,-0.0082
5.328,-0.0094
5.329,-0.0034
5.33,-0.0001
5.331,0.0069
5.332,0.0096
5.333,0.0021
5.334,0.005
5.335,0.0041
5.336,0.0017
5.337,-0.0021
5.338,0.0069
5.339,0.0008
5.34,-0.0025
5.341,-0.0054
5.342,-0.0008
5.343,-0.0001
5.344,0.0021
5.345,0.0067
5.346,0.001
5.347,-0.0029
5.348,-0.001
5.349,0.0047
5.35,0.0054
5.351,-0.0036
5.352,-0.0071
5.353,0.0032
5.354,0.0019
5.355,0.0028
5.356,0.0089
5.357,0.0145
5.358,0.0195
5.359,0.0334
5.36,0.0435
5.361,0.0233
5.362,0.0047
5.363,-0.0025
5.364,-0.0047
5.365,-0.0188
5.366,-0.017
5.367,-0.0153
5.368,-0.0197
5.369,-0.0184
5.37,-0.0049
5.371,-0.0067
5.372,-0.0149
5.373,-0.0074
5.374,-0.0087
5.375,-0.0098
5.376,-0.0109
5.377,-0.006
5.378,-0.0014
5.379,-0.0054
5.38,-0.0001
5.381,0.0074
5.382,-0.0018
5.383,-0.0007
5.384,0.0026
5.385,-0.0003
5.386,-0.003
5.387,0.0026
5.388,-0.0043
5.389,-0.0034
5.39,0.0023
5.391,0.0061
5.392,-0.0029
5.393,0.0032
5.394,0.0043
5.395,0.0014
5.396,0.0059
5.397,0.0019
5.398,0.0041
5.399,-0.0034
5.4,-0.0043
5.401,0.0003
5.402,-0.0021
5.403,0.0094
5.404,0.0012
5.405,-0.0003
5.406,-0.0016
5.407,-0.0029
5.408,0.0133
5.409,0.0286
5.41,0.0387
5.411,0.0442
5.412,0.0193
5.413,0.0158
5.414,-0.0067
5.415,-0.0155
5.416,-0.0076
5.417,-0.0052
5.418,-0.003
5.419,-0.001
5.42,-0.0138
5.421,-0.0122
5.422,-0.0078
5.423,-0.0173
5.424,-0.0162
5.425,-0.0151
5.426,-0.0122
5.427,-0.0168
5.428,-0.0144
5.429,-0.0105
5.43,-0.0072
5.431,-0.0054
5.432,-0.0071
5.433,-0.0005
5.434,0.0041
5.435,-0.0034
5.436,-0.0063
5.437,-0.0036
5.438,-0.0012
5.439,0.0026
5.44,-0.0019
5.441,0.0012
5.442,0.0006
5.443,0.0039
5.444,0.0017
5.445,0.0014
5.446,0.007
5.447,0.0063
5.448,0.0056
5.449,0.0023
5.45,0.0017
5.451,0.0045
5.452,0.0058
5.453,0.0006
5.454,0.0001
5.455,0.0006
5.456,-0.0021
5.457,-0.0016
5.458,0.0039
5.459,0.0155
5.46,0.0105
5.461,0.018
5.462,0.0385
5.463,0.0415
5.464,0.0281
5.465,0.021
5.466,0.001
5.467,-0.0069
5.468,-0.014
5.469,-0.0118
5.47,-0.0259
5.471,-0.0241
5.472,-0.0191
5.473,-0.0148
5.474,-0.0025
5.475,-0.0107
5.476,-0.0093
5.477,-0.0105
5.478,-0.0094
5.479,-0.0105
5.48,-0.0076
5.481,-0.0049
5.482,-0.0072
5.483,-0.0003
5.484,-0.0012
5.485,-0.0036
5.486,0.0034
5.487,0.0006
5.488,-0.0001
5.489,0.0006
5.49,-0.0012
5.491,0.0058
5.492,0.0067
5.493,0.001
5.494,0.0048
5.495,0.0067
5.496,0.0072
5.497,0.0045
5.498,0.0048
5.499,0.0045
5.5,0.0017
5.501,-0.0001
5.502,0.0032
5.503,0.0004
5.504,0.0008
5.505,0.0041
5.506,0.0052
5.507,0.0048
5.508,0.0072
5.509,0.0017
5.51,0.0133
5.511,0.0182
5.512,0.0226
5.513,0.0239
5.514,0.0299
5.515,0.0197
5.516,0.0402
5.517,0.0431
5.518,0.0297
5.519,0.003
5.52,-0.0148
5.521,-0.0243
5.522,-0.0331
5.523,-0.0356
5.524,-0.0285
5.525,-0.0263
5.526,-0.0283
5.527,-0.0265
5.528,-0.0182
5.529,-0.0197
5.53,-0.021
5.531,-0.0126
5.532,-0.0093
5.533,-0.0122
5.534,-0.0058
5.535,-0.0018
5.536,-0.004
5.537,-0.0102
5.538,-0.0027
5.539,-0.0018
5.54,-0.0027
5.541,0.003
5.542,0.0052
5.543,0.0034
5.544,0.0015
5.545,0.0054
5.546,0.0041
5.547,0.0037
5.548,0.0058
5.549,0.0047
5.55,0.0072
5.551,0.0065
5.552,0.0078
5.553,0.0065
5.554,0.005
5.555,0.0045
5.556,0.005
5.557,0.0023
5.558,0.0004
5.559,0.0036
5.56,0.0069
5.561,0.0096
5.562,0.0153
5.563,0.0277
5.564,0.0369
5.565,0.0253
5.566,0.021
5.567,0.0059
5.568,-0.0041
5.569,-0.0096
5.57,-0.0179
5.571,-0.0193
5.572,-0.0206
5.573,-0.0195
5.574,-0.0228
5.575,-0.0179
5.576,-0.0133
5.577,-0.0109
5.578,0.0006
5.579,-0.0043
5.58,-0.0058
5.581,-0.0071
5.582,-0.0105
5.583,-0.0027
5.584,0.0023
5.585,-0.0005
5.586,0.0003
5.587,0.0025
5.588,-0.0021
5.589,0.001
5.59,0.0048
5.591,0.0003
5.592,0.0034
5.593,-0.0005
5.594,0.0028
5.595,0.0041
5.596,0.0037
5.597,0.0026
5.598,-0.0007
5.599,0.0021
5.6,-0.0005
5.601,-0.0008
5.602,0.0012
5.603,0.0043
5.604,0.0047
5.605,-0.0003
5.606,0.003
5.607,0.0048
5.608,-0.0036
5.609,-0.0001
5.61,0.0072
5.611,0.0015
5.612,-0.0034
5.613,0.0087
5.614,0.027
5.615,0.0341
5.616,0.0319
5.617,0.046
5.618,0.0515
5.619,0.0266
5.62,0.0017
5.621,-0.0078
5.622,-0.0226
5.623,-0.0252
5.624,-0.0181
5.625,-0.0246
5.626,-0.0307
5.627,-0.0289
5.628,-0.0272
5.629,-0.0228
5.63,-0.0215
5.631,-0.0181
5.632,-0.0148
5.633,-0.0098
5.634,-0.0071
5.635,-0.0094
5.636,-0.0148
5.637,-0.0058
5.638,-0.0023
5.639,0.001
5.64,0.0019
5.641,0.0028
5.642,-0.0029
5.643,0.0072
5.644,0.0004
5.645,0.0065
5.646,0.0008
5.647,-0.0021
5.648,-0.0012
5.649,-0.0019
5.65,0.0003
5.651,0.0008
5.652,0.0026
5.653,0.0054
5.654,0.0058
5.655,0.0061
5.656,0.0081
5.657,0.0107
5.658,0.0052
5.659,-0.0032
5.66,0.0047
5.661,0.0058
5.662,0.0067
5.663,0.0206
5.664,0.0266
5.665,0.0211
5.666,0.0061
5.667,0.0122
5.668,0.0177
5.669,0.0292
5.67,0.0457
5.671,0.0479
5.672,0.0338
5.673,0.0063
5.674,0.0025
5.675,-0.0082
5.676,-0.0113
5.677,-0.0142
5.678,-0.0276
5.679,-0.0252
5.68,-0.023
5.681,-0.021
5.682,-0.0228
5.683,-0.0179
5.684,-0.0164
5.685,-0.0124
5.686,-0.0135
5.687,-0.0168
5.688,-0.0076
5.689,-0.0016
5.69,-0.0027
5.691,-0.0096
5.692,-0.0069
5.693,-0.0045
5.694,-0.0023
5.695,0.001
5.696,-0.0047
5.697,-0.0025
5.698,-0.0019
5.699,0.0037
5.7,0.0015
5.701,-0.0003
5.702,-0.0008
5.703,-0.0014
5.704,-0.0027
5.705,0.0034
5.706,0.0026
5.707,0.0048
5.708,-0.0014
5.709,0.0026
5.71,0.0096
5.711,0.0105
5.712,0.0131
5.713,0.0074
5.714,0.0096
5.715,0.0199
5.716,0.0424
5.717,0.0455
5.718,0.0307
5.719,0.012
5.72,-0.0001
5.721,-0.0067
5.722,-0.0087
5.723,-0.0142
5.724,-0.0126
5.725,-0.0111
5.726,-0.0179
5.727,-0.0144
5.728,-0.0133
5.729,-0.0162
5.73,-0.0116
5.731,-0.0109
5.732,-0.0071
5.733,-0.0065
5.734,-0.0021
5.735,0.0017
5.736,0.003
5.737,-0.0012
5.738,-0.0051
5.739,-0.0027
5.74,-0.004
5.741,-0.0012
5.742,-0.0069
5.743,-0.0076
5.744,0.0025
5.745,0.0012
5.746,0.0023
5.747,0.0034
5.748,0.0063
5.749,0.009
5.75,0.0034
5.751,0.0072
5.752,0.0078
5.753,0.0034
5.754,-0.0005
5.755,-0.0018
5.756,0.0052
5.757,0.0061
5.758,0.0034
5.759,0.0109
5.76,0.0158
5.761,0.0222
5.762,0.0263
5.763,0.0219
5.764,0.0272
5.765,0.0374
5.766,0.057
5.767,0.0704
5.768,0.0632
5.769,0.0389
5.77,0.0096
5.771,0.0058
5.772,-0.012
5.773,-0.0281
5.774,-0.0369
5.775,-0.0503
5.776,-0.0574
5.777,-0.0684
5.778,-0.0744
5.779,-0.0726
5.78,-0.0611
5.781,-0.0536
5.782,-0.0495
5.783,-0.0506
5.784,-0.0631
5.785,-0.0781
5.786,-0.0842
5.787,-0.1006
5.788,-0.125
5.789,-0.1345
5.79,-0.1374
5.791,-0.1188
5.792,-0.1116
5.793,-0.105
5.794,-0.0909
5.795,-0.0635
5.796,-0.0043
5.797,0.1228
5.798,0.1773
5.799,0.1938
5.8,0.1788
5.801,0.1652
5.802,0.1279
5.803,0.0942
5.804,0.0839
5.805,0.0746
5.806,0.0662
5.807,0.0739
5.808,0.0808
5.809,0.0997
5.81,0.1169
5.811,0.1325
5.812,0.1182
5.813,0.1224
5.814,0.1178
5.815,0.1217
5.816,0.1182
5.817,0.0889
5.818,0.0614
5.819,0.072
5.82,0.0751
5.821,0.0545
5.822,0.0303
5.823,0.0078
5.824,-0.019
5.825,-0.0367
5.826,-0.0462
5.827,-0.0611
5.828,-0.0636
5.829,-0.0565
5.83,-0.0675
5.831,-0.0695
5.832,-0.0713
5.833,-0.0697
5.834,-0.0622
5.835,-0.0662
5.836,-0.0673
5.837,-0.0662
5.838,-0.0671
5.839,-0.068
5.84,-0.0704
5.841,-0.0726
5.842,-0.0708
5.843,-0.0651
5.844,-0.0629
5.845,-0.0583
5.846,-0.0539
5.847,-0.0488
5.848,-0.0455
5.849,-0.036
5.85,-0.0347
5.851,-0.0312
5.852,-0.0256
5.853,-0.0246
5.854,-0.0182
5.855,-0.0175
5.856,-0.0153
5.857,-0.0078
5.858,-0.0029
5.859,-0.0001
5.86,-0.0008
5.861,-0.0001
5.862,0.0017
5.863,0.0048
5.864,0.0076
5.865,0.0101
5.866,0.0125
5.867,0.0094
5.868,0.0156
5.869,0.0296
5.87,0.0557
5.871,0.0523
5.872,0.0554
5.873,0.0347
5.874,0.016
5.875,0.0039
5.876,-0.0071
5.877,-0.0131
5.878,-0.0149
5.879,-0.0133
5.88,-0.0118
5.881,-0.0131
5.882,-0.0096
5.883,-0.0129
5.884,-0.006
5.885,-0.0051
5.886,-0.0058
5.887,-0.0036
5.888,-0.0003
5.889,0.0003
5.89,-0.0003
5.891,0.001
5.892,0.0014
5.893,0.0052
5.894,0.0039
5.895,-0.0003
5.896,0.0014
5.897,0.0069
5.898,0.009
5.899,0.0045
5.9,0.0026
5.901,0.0054
5.902,0.0041
5.903,0.0028
5.904,0.0048
5.905,0.0074
5.906,0.0078
5.907,0.0079
5.908,0.0122
5.909,0.0217
5.91,0.0285
5.911,0.0173
5.912,0.0129
5.913,0.0142
5.914,0.0058
5.915,0.0069
5.916,0.0043
5.917,0.0034
5.918,0.0118
5.919,0.0266
5.92,0.0367
5.921,0.0422
5.922,0.0239
5.923,0.007
5.924,0.0004
5.925,-0.0096
5.926,-0.0115
5.927,-0.0197
5.928,-0.0182
5.929,-0.017
5.93,-0.0159
5.931,-0.017
5.932,-0.014
5.933,-0.0131
5.934,-0.0155
5.935,-0.0102
5.936,0.0001
5.937,-0.0014
5.938,-0.0027
5.939,0.0008
5.94,-0.0003
5.941,-0.0032
5.942,-0.0005
5.943,-0.0012
5.944,-0.0034
5.945,0.0012
5.946,-0.0007
5.947,-0.0012
5.948,-0.0025
5.949,0.0006
5.95,0.0045
5.951,0.0032
5.952,0.0036
5.953,-0.0003
5.954,-0.0049
5.955,-0.0005
5.956,-0.001
5.957,-0.0023
5.958,0.0028
5.959,0.0047
5.96,0.0015
5.961,-0.0012
5.962,0.0001
5.963,0.0043
5.964,0.0048
5.965,0.0025
5.966,0.0047
5.967,0.0028
5.968,0.0032
5.969,0.0089
5.97,0.0164
5.971,0.0316
5.972,0.047
5.973,0.0409
5.974,0.0281
5.975,0.0098
5.976,-0.0023
5.977,-0.0089
5.978,-0.0149
5.979,-0.0168
5.98,-0.0184
5.981,-0.017
5.982,-0.0182
5.983,-0.0171
5.984,-0.0138
5.985,-0.0109
5.986,-0.0137
5.987,-0.0113
5.988,-0.0043
5.989,-0.0052
5.99,-0.006
5.991,-0.0067
5.992,-0.0061
5.993,-0.0018
5.994,-0.0034
5.995,-0.0001
5.996,0.0021
5.997,0.0032
5.998,0.0074
5.999,0.0023
6,0.0028
6.001,0.0023
6.002,0.0039
6.003,0.0052
6.004,0.0056
6.005,-0.0007
6.006,-0.0034
6.007,0.0023
6.008,0.003
6.009,0.0076
6.01,0.0058
6.011,0.003
6.012,0.0034
6.013,0.0003
6.014,-0.0018
6.015,-0.0014
6.016,0.0019
6.017,0.003
6.018,0.0006
6.019,0.0032
6.02,0.0087
6.021,0.0109
6.022,0.0211
6.023,0.0255
6.024,0.0268
6.025,0.0156
6.026,0.0352
6.027,0.0378
6.028,0.0158
6.029,0.001
6.03,-0.0069
6.031,-0.019
6.032,-0.0168
6.033,-0.0268
6.034,-0.0287
6.035,-0.0303
6.036,-0.0289
6.037,-0.0193
6.038,-0.0182
6.039,-0.0149
6.04,-0.0159
6.041,-0.0113
6.042,-0.0105
6.043,-0.0083
6.044,-0.0038
6.045,-0.0007
6.046,0.0032
6.047,0.0036
6.048,0.0048
6.049,-0.0007
6.05,0.0015
6.051,0.009
6.052,0.0041
6.053,0.0014
6.054,0.0021
6.055,0.0074
6.056,0.0041
6.057,0.0085
6.058,0.0058
6.059,0.0061
6.06,0.0083
6.061,0.0087
6.062,0.0076
6.063,0.0079
6.064,0.0059
6.065,0.0052
6.066,0.0012
6.067,-0.0027
6.068,0.0019
6.069,0.0028
6.07,0.001
6.071,0.0094
6.072,0.0206
6.073,0.031
6.074,0.046
6.075,0.0319
6.076,0.0191
6.077,0.0008
6.078,-0.0016
6.079,-0.0082
6.08,-0.0102
6.081,-0.0157
6.082,-0.014
6.083,-0.0215
6.084,-0.0148
6.085,-0.0137
6.086,-0.0126
6.087,-0.0096
6.088,-0.0087
6.089,-0.0094
6.09,-0.0056
6.091,-0.0102
6.092,-0.0083
6.093,-0.001
6.094,-0.0001
6.095,0.0008
6.096,0.0015
6.097,-0.0007
6.098,-0.0012
6.099,0.0006
6.1,0.0045
6.101,0.0032
6.102,0.001
6.103,-0.001
6.104,-0.0029
6.105,0.0019
6.106,0.0001
6.107,0.0006
6.108,0.003
6.109,0.0026
6.11,0.0047
6.111,-0.001
6.112,-0.0003
6.113,0.0019
6.114,-0.0014
6.115,0.003
6.116,0.0014
6.117,0.001
6.118,-0.0021
6.119,0.0025
6.12,0.0014
6.121,0.0032
6.122,0.0116
6.123,0.0151
6.124,0.023
6.125,0.0361
6.126,0.0307
6.127,0.0224
6.128,0.012
6.129,-0.0003
6.13,-0.0052
6.131,-0.0157
6.132,-0.0197
6.133,-0.0186
6.134,-0.0197
6.135,-0.0226
6.136,-0.0181
6.137,-0.0173
6.138,-0.012
6.139,-0.0102
6.14,-0.012
6.141,-0.0115
6.142,-0.0091
6.143,-0.0069
6.144,-0.0023
6.145,-0.0018
6.146,-0.0045
6.147,-0.0021
6.148,0.0021
6.149,0.0026
6.15,0.003
6.151,0.0026
6.152,0.003
6.153,0.0026
6.154,0.0074
6.155,0.0069
6.156,0.0142
6.157,0.0072
6.158,0.0026
6.159,0.0034
6.16,-0.0019
6.161,-0.0014
6.162,-0.0071
6.163,-0.0049
6.164,-0.0003
6.165,-0.0008
6.166,-0.0014
6.167,-0.001
6.168,-0.0014
6.169,0.0032
6.17,-0.0012
6.171,-0.0008
6.172,-0.0025
6.173,0.005
6.174,0.0107
6.175,0.0259
6.176,0.0459
6.177,0.0433
6.178,0.0213
6.179,0.0006
6.18,-0.0072
6.181,-0.0144
6.182,-0.0166
6.183,-0.0186
6.184,-0.0168
6.185,-0.0151
6.186,-0.0166
6.187,-0.0179
6.188,-0.0168
6.189,-0.0135
6.19,-0.0065
6.191,-0.0074
6.192,-0.0067
6.193,-0.006
6.194,-0.0014
6.195,-0.0019
6.196,-0.0003
6.197,0.001
6.198,0.0014
6.199,0.0025
6.2,0.0006
6.201,0.0054
6.202,0.0048
6.203,0.0054
6.204,0.0058
6.205,0.007
6.206,0.0074
6.207,0.0056
6.208,0.0008
6.209,0.0003
6.21,0.0041
6.211,0.0017
6.212,0.0014
6.213,0.0003
6.214,-0.0032
6.215,-0.001
6.216,0.0028
6.217,0.0004
6.218,0.0017
6.219,0.0014
6.22,-0.0029
6.221,-0.0001
6.222,-0.0016
6.223,-0.0003
6.224,0.0067
6.225,0.0096
6.226,0.0217
6.227,0.0299
6.228,0.0285
6.229,0.0297
6.23,0.0409
6.231,0.0365
6.232,0.027
6.233,0.0085
6.234,-0.0102
6.235,-0.0223
6.236,-0.0201
6.237,-0.0301
6.238,-0.032
6.239,-0.027
6.24,-0.0256
6.241,-0.0215
6.242,-0.0181
6.243,-0.0148
6.244,-0.0118
6.245,-0.0127
6.246,-0.0087
6.247,-0.0109
6.248,-0.0019
6.249,-0.003
6.25,-0.0041
6.251,-0.0032
6.252,0.0032
6.253,0.0025
6.254,0.0032
6.255,0.0014
6.256,0.0019
6.257,-0.0019
6.258,0.0026
6.259,-0.0005
6.26,0.0023
6.261,0.0036
6.262,0.0067
6.263,0.0087
6.264,0.003
6.265,0.0023
6.266,0.0045
6.267,0.005
6.268,0.0056
6.269,0.0039
6.27,0.0006
6.271,0.0037
6.272,0.001
6.273,0.0021
6.274,0.0003
6.275,0.0058
6.276,0.0127
6.277,0.0266
6.278,0.0407
6.279,0.0352
6.28,0.0237
6.281,0.0072
6.282,-0.0038
6.283,-0.0098
6.284,-0.019
6.285,-0.0173
6.286,-0.0159
6.287,-0.0118
6.288,-0.0107
6.289,-0.0164
6.29,-0.0155
6.291,-0.0164
6.292,-0.0124
6.293,-0.0102
6.294,-0.0012
6.295,-0.0047
6.296,-0.0014
6.297,0.0015
6.298,0.0006
6.299,0.0014
6.3,0.0021
6.301,0.0015
6.302,-0.0003
6.303,0.0025
6.304,0.0037
6.305,-0.0032
6.306,-0.0003
6.307,0.0006
6.308,0.003
6.309,0.0008
6.31,0.0003
6.311,-0.0029
6.312,0.0034
6.313,0.0026
6.314,-0.0012
6.315,-0.0018
6.316,0.0026
6.317,0.0021
6.318,0.0054
6.319,0.0032
6.32,0.0087
6.321,0.0034
6.322,0.0028
6.323,-0.0003
6.324,-0.0001
6.325,-0.0007
6.326,0.0069
6.327,0.0193
6.328,0.0376
6.329,0.0352
6.33,0.0199
6.331,0.0098
6.332,0.0043
6.333,0.0026
6.334,-0.0078
6.335,-0.0065
6.336,-0.0076
6.337,-0.0133
6.338,-0.0162
6.339,-0.0135
6.34,-0.0159
6.341,-0.0151
6.342,-0.0105
6.343,-0.0124
6.344,-0.0107
6.345,-0.012
6.346,-0.0107
6.347,-0.008
6.348,-0.0023
6.349,-0.0063
6.35,-0.0041
6.351,-0.0023
6.352,-0.0018
6.353,-0.0001
6.354,0.0032
6.355,0.0028
6.356,0.0074
6.357,0.0092
6.358,0.0109
6.359,0.0112
6.36,0.01
6.361,0.0089
6.362,0.0054
6.363,0.0032
6.364,0.0028
6.365,-0.0007
6.366,-0.0019
6.367,-0.004
6.368,-0.0065
6.369,-0.0025
6.37,-0.0071
6.371,-0.0027
6.372,-0.0032
6.373,-0.0045
6.374,0.0006
6.375,0.0043
6.376,0.0061
6.377,0.0156
6.378,0.0116
6.379,0.0252
6.38,0.0307
6.381,0.029
6.382,0.0426
6.383,0.0407
6.384,0.0391
6.385,0.0226
6.386,-0.0018
6.387,-0.0179
6.388,-0.0208
6.389,-0.0234
6.39,-0.0257
6.391,-0.0191
6.392,-0.0212
6.393,-0.0193
6.394,-0.0177
6.395,-0.0162
6.396,-0.0122
6.397,-0.0111
6.398,-0.0078
6.399,-0.0008
6.4,0.0056
6.401,0.0096
6.402,0.0043
6.403,-0.0047
6.404,-0.0036
6.405,-0.0138
6.406,-0.0126
6.407,-0.0091
6.408,-0.0034
6.409,-0.0043
6.41,-0.0034
6.411,-0.001
6.412,-0.0032
6.413,-0.0027
6.414,-0.0008
6.415,0.0019
6.416,-0.0005
6.417,0.0047
6.418,0.0079
6.419,0.001
6.42,0.0056
6.421,-0.0001
6.422,0.0021
6.423,-0.0012
6.424,-0.0007
6.425,0.001
6.426,-0.003
6.427,0.0003
6.428,0.0072
6.429,0.0184
6.43,0.038
6.431,0.0459
6.432,0.0387
6.433,0.0188
6.434,0.0001
6.435,-0.012
6.436,-0.0186
6.437,-0.0206
6.438,-0.0188
6.439,-0.0171
6.44,-0.0157
6.441,-0.017
6.442,-0.0181
6.443,-0.0102
6.444,-0.0072
6.445,-0.0045
6.446,-0.0005
6.447,-0.0012
6.448,0.0034
6.449,0.0015
6.45,0.001
6.451,0.0014
6.452,0.001
6.453,-0.0018
6.454,0.0001
6.455,-0.0003
6.456,0.003
6.457,-0.003
6.458,0.001
6.459,-0.0012
6.46,0.0034
6.461,0.0052
6.462,0.009
6.463,0.0036
6.464,0.0074
6.465,0.0056
6.466,0.01
6.467,0.0061
6.468,0.0028
6.469,-0.0003
6.47,0.0025
6.471,-0.0032
6.472,-0.0025
6.473,-0.0018
6.474,-0.0036
6.475,-0.003
6.476,-0.0003
6.477,0.0072
6.478,0.0069
6.479,0.0138
6.48,0.029
6.481,0.049
6.482,0.0623
6.483,0.0647
6.484,0.0493
6.485,0.0352
6.486,0.0224
6.487,0.0074
6.488,-0.0027
6.489,-0.0082
6.49,-0.0065
6.491,-0.017
6.492,-0.0237
6.493,-0.0322
6.494,-0.0446
6.495,-0.0528
6.496,-0.0633
6.497,-0.0673
6.498,-0.0662
6.499,-0.0673
6.5,-0.0624
6.501,-0.0539
6.502,-0.0461
6.503,-0.0452
6.504,-0.0572
6.505,-0.0589
6.506,-0.0664
6.507,-0.0842
6.508,-0.1061
6.509,-0.1032
6.51,-0.0845
6.511,-0.0821
6.512,-0.0799
6.513,-0.0779
6.514,-0.0688
6.515,-0.0439
6.516,0.0098
6.517,0.1253
6.518,0.1749
6.519,0.19
6.52,0.1764
6.521,0.1391
6.522,0.1279
6.523,0.0971
6.524,0.0504
6.525,0.042
6.526,0.0343
6.527,0.0413
6.528,0.0394
6.529,0.0457
6.53,0.086
6.531,0.1015
6.532,0.1253
6.533,0.1381
6.534,0.142
6.535,0.1242
6.536,0.1081
6.537,0.0695
6.538,0.0433
6.539,0.0195
6.54,0.0067
6.541,0.0028
6.542,0.0063
6.543,0.0094
6.544,0.0006
6.545,-0.0127
6.546,-0.0296
6.547,-0.0318
6.548,-0.0419
6.549,-0.051
6.55,-0.0428
6.551,-0.0472
6.552,-0.0539
6.553,-0.0528
6.554,-0.0517
6.555,-0.0488
6.556,-0.0497
6.557,-0.0505
6.558,-0.0435
6.559,-0.0444
6.56,-0.0484
6.561,-0.0554
6.562,-0.0618
6.563,-0.0578
6.564,-0.0539
6.565,-0.0506
6.566,-0.045
6.567,-0.0442
6.568,-0.0409
6.569,-0.0378
6.57,-0.0316
6.571,-0.0309
6.572,-0.0239
6.573,-0.023
6.574,-0.0206
6.575,-0.0153
6.576,-0.0091
6.577,-0.0098
6.578,-0.0091
6.579,-0.0052
6.58,-0.0071
6.581,-0.0001
6.582,0.0101
6.583,0.0252
6.584,0.0272
6.585,0.0327
6.586,0.0442
6.587,0.0457
6.588,0.0444
6.589,0.0259
6.59,0.0017
6.591,-0.0078
6.592,-0.0166
6.593,-0.014
6.594,-0.0164
6.595,-0.0142
6.596,-0.0162
6.597,-0.0107
6.598,-0.0091
6.599,-0.0076
6.6,-0.0036
6.601,-0.0047
6.602,-0.0014
6.603,-0.0005
6.604,0.0004
6.605,0.0028
6.606,0.0021
6.607,0.0039
6.608,0.0045
6.609,0.0072
6.61,0.0076
6.611,0.0107
6.612,0.0111
6.613,0.0129
6.614,0.0155
6.615,0.0114
6.616,0.0142
6.617,0.0067
6.618,0.0034
6.619,0.0063
6.62,0.0072
6.621,0.0079
6.622,0.0058
6.623,0.0076
6.624,0.0058
6.625,0.0074
6.626,0.0107
6.627,0.0085
6.628,0.0112
6.629,0.0101
6.63,0.0094
6.631,0.0047
6.632,0.0142
6.633,0.0182
6.634,0.0318
6.635,0.0482
6.636,0.0283
6.637,0.0204
6.638,0.0036
6.639,-0.003
6.64,-0.0091
6.641,-0.0146
6.642,-0.0195
6.643,-0.0151
6.644,-0.0111
6.645,-0.0027
6.646,0.003
6.647,0.0059
6.648,-0.0061
6.649,-0.0078
6.65,-0.0063
6.651,-0.0131
6.652,-0.012
6.653,-0.0131
6.654,-0.0102
6.655,-0.0074
6.656,-0.0082
6.657,-0.006
6.658,-0.0027
6.659,-0.0032
6.66,-0.0027
6.661,-0.0014
6.662,-0.001
6.663,0.0052
6.664,0.0025
6.665,0.0048
6.666,0.0026
6.667,0.0059
6.668,0.0054
6.669,0.0003
6.67,-0.0016
6.671,-0.0047
6.672,-0.0052
6.673,0.0014
6.674,-0.0014
6.675,0.001
6.676,0.0017
6.677,0.0092
6.678,0.0083
6.679,0.0092
6.68,0.0069
6.681,0.0065
6.682,0.0012
6.683,0.0114
6.684,0.0129
6.685,0.0224
6.686,0.036
6.687,0.0378
6.688,0.0228
6.689,0.0127
6.69,-0.0001
6.691,-0.0116
6.692,-0.016
6.693,-0.0201
6.694,-0.0212
6.695,-0.0179
6.696,-0.0149
6.697,-0.014
6.698,-0.0133
6.699,-0.0111
6.7,-0.0116
6.701,-0.0047
6.702,-0.0093
6.703,-0.01
6.704,-0.0078
6.705,-0.006
6.706,-0.0078
6.707,-0.0061
6.708,-0.0049
6.709,-0.0045
6.71,-0.0025
6.711,-0.0029
6.712,-0.001
6.713,-0.0018
6.714,0.0014
6.715,0.0034
6.716,0.003
6.717,0.0012
6.718,0.0052
6.719,0.0025
6.72,0.0037
6.721,-0.0005
6.722,0.0012
6.723,-0.0012
6.724,0.001
6.725,-0.0001
6.726,0.0048
6.727,0.003
6.728,0.0048
6.729,0.0021
6.73,0.0034
6.731,0.0047
6.732,0.0036
6.733,0.0039
6.734,0.0081
6.735,0.0166
6.736,0.0301
6.737,0.0393
6.738,0.0277
6.739,0.0081
6.74,0.0003
6.741,-0.0069
6.742,-0.0135
6.743,-0.0115
6.744,-0.017
6.745,-0.012
6.746,-0.0135
6.747,-0.0122
6.748,-0.0087
6.749,-0.0098
6.75,-0.0069
6.751,-0.0078
6.752,-0.0038
6.753,-0.006
6.754,-0.0054
6.755,-0.0036
6.756,-0.0041
6.757,-0.0038
6.758,-0.0041
6.759,-0.0003
6.76,-0.0007
6.761,-0.0019
6.762,0.0019
6.763,0.0043
6.764,0.0021
6.765,0.001
6.766,0.0021
6.767,0.0032
6.768,0.0004
6.769,0.003
6.77,0.0063
6.771,0.0083
6.772,0.0109
6.773,0.0054
6.774,0.0061
6.775,-0.0014
6.776,0.0015
6.777,0.0025
6.778,0.0032
6.779,0.0039
6.78,0.0045
6.781,0.0063
6.782,0.0047
6.783,0.0036
6.784,0.0081
6.785,0.0164
6.786,0.0153
6.787,0.0305
6.788,0.0459
6.789,0.0398
6.79,0.0197
6.791,0.0063
6.792,-0.0058
6.793,-0.0168
6.794,-0.0188
6.795,-0.0206
6.796,-0.019
6.797,-0.0234
6.798,-0.0166
6.799,-0.0105
6.8,-0.0094
6.801,-0.0065
6.802,-0.0093
6.803,-0.0116
6.804,-0.0124
6.805,-0.0091
6.806,-0.0096
6.807,-0.008
6.808,-0.0047
6.809,-0.0005
6.81,0.0001
6.811,0.0025
6.812,0.0003
6.813,-0.0001
6.814,-0.0027
6.815,0.0021
6.816,0.0026
6.817,0.0032
6.818,0.0019
6.819,0.0015
6.82,0.0061
6.821,0.003
6.822,0.0003
6.823,-0.001
6.824,-0.0007
6.825,-0.0018
6.826,0.0025
6.827,0.0063
6.828,0.0039
6.829,0.0008
6.83,0.0028
6.831,0.0063
6.832,0.0059
6.833,0.0004
6.834,-0.0008
6.835,0.0045
6.836,0.0147
6.837,0.0103
6.838,0.0308
6.839,0.0338
6.84,0.0259
6.841,0.0138
6.842,0.0028
6.843,-0.0072
6.844,-0.0127
6.845,-0.0144
6.846,-0.0159
6.847,-0.0118
6.848,-0.0153
6.849,-0.012
6.85,-0.0129
6.851,-0.0102
6.852,-0.0109
6.853,-0.0116
6.854,-0.0083
6.855,-0.0078
6.856,-0.0061
6.857,-0.0049
6.858,-0.0027
6.859,-0.003
6.86,-0.0027
6.861,-0.0016
6.862,-0.0001
6.863,0.0012
6.864,0.0036
6.865,0.0028
6.866,0.0065
6.867,0.0061
6.868,0.0039
6.869,0.0012
6.87,0.0008
6.871,0.0004
6.872,0.0006
6.873,0.0008
6.874,-0.0021
6.875,-0.0003
6.876,0.0001
6.877,0.0034
6.878,0.0003
6.879,-0.0025
6.88,0.0032
6.881,0.0072
6.882,0.0094
6.883,0.0048
6.884,-0.0008
6.885,-0.0008
6.886,0.003
6.887,-0.0003
6.888,0.0015
6.889,0.001
6.89,0.0043
6.891,0.0112
6.892,0.0204
6.893,0.0169
6.894,0.0021
6.895,0.0041
6.896,0.0169
6.897,0.0319
6.898,0.038
6.899,0.0325
6.9,0.021
6.901,0.0045
6.902,-0.0109
6.903,-0.021
6.904,-0.0265
6.905,-0.0248
6.906,-0.0263
6.907,-0.0223
6.908,-0.0212
6.909,-0.0223
6.91,-0.0193
6.911,-0.0166
6.912,-0.0159
6.913,-0.0105
6.914,-0.006
6.915,-0.0016
6.916,-0.0021
6.917,-0.0054
6.918,-0.0003
6.919,0.0015
6.92,0.0059
6.921,-0.0025
6.922,-0.0014
6.923,-0.0003
6.924,0.0006
6.925,0.0052
6.926,0.0012
6.927,0.0019
6.928,0.0037
6.929,0.0019
6.93,0.0058
6.931,0.007
6.932,0.0028
6.933,0.0023
6.934,0.0089
6.935,0.0061
6.936,0.0028
6.937,0.0036
6.938,0.0105
6.939,0.0133
6.94,0.0257
6.941,0.0275
6.942,0.0193
6.943,0.0178
6.944,0.0001
6.945,-0.0023
6.946,-0.0089
6.947,-0.0109
6.948,-0.0164
6.949,-0.0115
6.95,-0.0129
6.951,-0.0116
6.952,-0.0127
6.953,-0.0094
6.954,-0.0124
6.955,-0.004
6.956,-0.0029
6.957,-0.0058
6.958,-0.0049
6.959,-0.0041
6.96,-0.008
6.961,-0.0018
6.962,-0.001
6.963,-0.0032
6.964,-0.0038
6.965,-0.0007
6.966,0.0021
6.967,0.0008
6.968,0.003
6.969,0.0034
6.97,0.003
6.971,0.0034
6.972,0.0019
6.973,0.005
6.974,0.0039
6.975,-0.0018
6.976,-0.0025
6.977,-0.0018
6.978,0.0001
6.979,0.0096
6.98,0.0056
6.981,0.0021
6.982,0.001
6.983,0.0039
6.984,0.0012
6.985,0.0069
6.986,0.0061
6.987,0.0021
6.988,0.0015
6.989,0.0111
6.99,0.0178
6.991,0.0363
6.992,0.0389
6.993,0.0365
6.994,0.0255
6.995,0.0114
6.996,0.0023
6.997,-0.0127
6.998,-0.0148
6.999,-0.0093
7,-0.0109
7.001,-0.0153
7.002,-0.014
7.003,-0.0129
7.004,-0.0118
7.005,-0.0109
7.006,-0.0118
7.007,-0.0111
7.008,-0.0089
7.009,-0.0056
7.01,-0.0087
7.011,-0.0104
7.012,-0.0116
7.013,-0.012
7.014,-0.0074
7.015,0.0008
7.016,0.0111
7.017,0.0098
7.018,0.0037
7.019,0.0048
7.02,-0.0001
7.021,-0.0047
7.022,-0.004
7.023,-0.0018
7.024,-0.0036
7.025,-0.0005
7.026,0.0012
7.027,0.0025
7.028,0.0012
7.029,-0.0008
7.03,-0.0005
7.031,-0.0052
7.032,-0.0021
7.033,-0.0005
7.034,-0.008
7.035,-0.0069
7.036,-0.004
7.037,-0.0049
7.038,-0.0038
7.039,-0.0014
7.04,0.0101
7.041,0.0252
7.042,0.0191
7.043,0.0283
7.044,0.0233
7.045,0.0248
7.046,0.0261
7.047,0.0396
7.048,0.0451
7.049,0.0202
7.05,0.0025
7.051,-0.0137
7.052,-0.0224
7.053,-0.025
7.054,-0.0274
7.055,-0.0208
7.056,-0.0188
7.057,-0.017
7.058,-0.0186
7.059,-0.0142
7.06,-0.0102
7.061,-0.0067
7.062,-0.01
7.063,-0.0091
7.064,-0.0082
7.065,-0.0074
7.066,-0.0052
7.067,-0.0034
7.068,-0.0029
7.069,0.0045
7.07,0.0054
7.071,0.0026
7.072,-0.003
7.073,0.0008
7.074,0.0026
7.075,-0.0005
7.076,0.0012
7.077,0.0008
7.078,-0.0005
7.079,0.0034
7.08,0.0037
7.081,0.0025
7.082,-0.0003
7.083,0.0023
7.084,0.0019
7.085,0.0021
7.086,0.0034
7.087,0.0021
7.088,0.0056
7.089,0.0014
7.09,0.001
7.091,0.0079
7.092,0.0211
7.093,0.0376
7.094,0.0222
7.095,0.0162
7.096,0.0107
7.097,0.0025
7.098,-0.0111
7.099,-0.0129
7.1,-0.008
7.101,-0.0124
7.102,-0.0083
7.103,-0.0049
7.104,-0.0082
7.105,-0.0131
7.106,-0.0177
7.107,-0.0137
7.108,-0.0115
7.109,-0.0082
7.11,-0.0076
7.111,-0.0038
7.112,-0.0034
7.113,0.0017
7.114,-0.0001
7.115,0.0017
7.116,0.0001
7.117,-0.0012
7.118,0.0019
7.119,0.0015
7.12,-0.0041
7.121,-0.0018
7.122,-0.0025
7.123,-0.0043
7.124,0.0001
7.125,0.0017
7.126,0.003
7.127,0.0017
7.128,0.0072
7.129,0.0079
7.13,0.0034
7.131,0.0015
7.132,0.001
7.133,0.0014
7.134,0.0017
7.135,0.0014
7.136,0.0032
7.137,0.0087
7.138,0.0065
7.139,0.0127
7.14,0.0094
7.141,0.0037
7.142,-0.0001
7.143,0.0101
7.144,0.0177
7.145,0.0354
7.146,0.0523
7.147,0.0457
7.148,0.0356
7.149,0.0228
7.15,0.0211
7.151,0.0136
7.152,0.0069
7.153,0.0008
7.154,-0.0049
7.155,-0.0098
7.156,-0.0107
7.157,-0.0164
7.158,-0.0279
7.159,-0.0362
7.16,-0.0437
7.161,-0.0532
7.162,-0.0593
7.163,-0.0671
7.164,-0.0622
7.165,-0.0576
7.166,-0.0583
7.167,-0.0483
7.168,-0.0495
7.169,-0.0607
7.17,-0.0772
7.171,-0.075
7.172,-0.0931
7.173,-0.1151
7.174,-0.1239
7.175,-0.1105
7.176,-0.1081
7.177,-0.0794
7.178,-0.0677
7.179,-0.0571
7.18,-0.0409
7.181,0.0036
7.182,0.099
7.183,0.1673
7.184,0.1797
7.185,0.1909
7.186,0.1806
7.187,0.1713
7.188,0.129
7.189,0.0905
7.19,0.0697
7.191,0.046
7.192,0.0523
7.193,0.0695
7.194,0.085
7.195,0.1088
7.196,0.1304
7.197,0.1266
7.198,0.1231
7.199,0.1136
7.2,0.1048
7.201,0.0861
7.202,0.0497
7.203,0.0235
7.204,0.0092
7.205,-0.0036
7.206,0.0003
7.207,-0.0104
7.208,-0.0135
7.209,-0.0164
7.21,-0.0298
7.211,-0.0322
7.212,-0.0475
7.213,-0.0415
7.214,-0.0433
7.215,-0.045
7.216,-0.0525
7.217,-0.0565
7.218,-0.053
7.219,-0.0541
7.22,-0.0472
7.221,-0.0574
7.222,-0.0561
7.223,-0.0596
7.224,-0.0585
7.225,-0.0594
7.226,-0.064
7.227,-0.06
7.228,-0.0578
7.229,-0.0532
7.23,-0.0501
7.231,-0.0495
7.232,-0.0462
7.233,-0.0459
7.234,-0.0397
7.235,-0.0312
7.236,-0.0301
7.237,-0.0272
7.238,-0.017
7.239,-0.0182
7.24,-0.0071
7.241,-0.0027
7.242,-0.0067
7.243,-0.008
7.244,0.0004
7.245,0.0015
7.246,0.0167
7.247,0.0367
7.248,0.0341
7.249,0.0173
7.25,0.0019
7.251,-0.0041
7.252,-0.0096
7.253,-0.0113
7.254,-0.0038
7.255,-0.0051
7.256,-0.0061
7.257,0.0017
7.258,-0.0012
7.259,-0.0021
7.26,0.0003
7.261,-0.0019
7.262,-0.0014
7.263,0.003
7.264,0.0025
7.265,0.0048
7.266,0.007
7.267,0.0067
7.268,0.0048
7.269,0.0096
7.27,0.0101
7.271,0.0096
7.272,0.0083
7.273,0.0079
7.274,0.0069
7.275,0.0125
7.276,0.0133
7.277,0.0111
7.278,0.0078
7.279,0.0034
7.28,0.0028
7.281,0.0061
7.282,0.0083
7.283,0.0103
7.284,0.0061
7.285,0.0056
7.286,0.0069
7.287,0.0081
7.288,0.0109
7.289,0.0074
7.29,0.0023
7.291,0.0041
7.292,0.0072
7.293,0.0036
7.294,0.0019
7.295,0.0094
7.296,0.0105
7.297,0.0257
7.298,0.0457
7.299,0.0323
7.3,0.0155
7.301,0.0089
7.302,-0.0052
7.303,-0.0144
7.304,-0.0193
7.305,-0.0089
7.306,-0.0102
7.307,-0.0162
7.308,-0.0151
7.309,-0.0102
7.31,-0.0074
7.311,-0.0067
7.312,-0.0074
7.313,-0.0041
7.314,-0.0047
7.315,-0.0063
7.316,-0.0051
7.317,-0.0038
7.318,-0.0027
7.319,0.0023
7.32,0.0017
7.321,-0.004
7.322,-0.0032
7.323,0.0001
7.324,-0.0018
7.325,-0.0034
7.326,-0.003
7.327,0.0039
7.328,0.003
7.329,0.0021
7.33,-0.0019
7.331,0.0003
7.332,0.0008
7.333,0.0039
7.334,0.0012
7.335,0.0025
7.336,0.0047
7.337,0.0019
7.338,0.0045
7.339,0.01
7.34,0.0047
7.341,0.0041
7.342,0.0047
7.343,0.0074
7.344,0.0043
7.345,-0.0003
7.346,0.0092
7.347,0.0025
7.348,0.021
7.349,0.0343
7.35,0.0272
7.351,0.0118
7.352,-0.0023
7.353,-0.0078
7.354,-0.0127
7.355,-0.0083
7.356,-0.0151
7.357,-0.0186
7.358,-0.0129
7.359,-0.0138
7.36,-0.0148
7.361,-0.0124
7.362,-0.0071
7.363,-0.0089
7.364,-0.0032
7.365,-0.0054
7.366,-0.0049
7.367,-0.0043
7.368,-0.0038
7.369,-0.0061
7.37,-0.004
7.371,-0.0043
7.372,-0.0047
7.373,-0.0014
7.374,0.0014
7.375,-0.0005
7.376,-0.0001
7.377,-0.0021
7.378,-0.0008
7.379,0.0026
7.38,-0.0005
7.381,0.0006
7.382,0.0017
7.383,0.0072
7.384,0.0142
7.385,0.0058
7.386,0.0025
7.387,0.0015
7.388,-0.0012
7.389,0.0012
7.39,0.0004
7.391,-0.0001
7.392,0.0004
7.393,-0.0047
7.394,-0.0014
7.395,-0.0052
7.396,-0.0047
7.397,0.0037
7.398,0.0072
7.399,0.0242
7.4,0.0363
7.401,0.0164
7.402,0.0138
7.403,0.0017
7.404,-0.0093
7.405,-0.0153
7.406,-0.0135
7.407,-0.0151
7.408,-0.0166
7.409,-0.0179
7.41,-0.0094
7.411,-0.0105
7.412,-0.0155
7.413,-0.0146
7.414,-0.0089
7.415,0.0012
7.416,-0.0029
7.417,0.0006
7.418,-0.0051
7.419,-0.0041
7.42,-0.0014
7.421,-0.0021
7.422,-0.0029
7.423,0.0004
7.424,0.0023
7.425,0.0039
7.426,0.0006
7.427,-0.0016
7.428,0.0012
7.429,0.0069
7.43,0.0045
7.431,0.0006
7.432,0.0052
7.433,0.0034
7.434,0.0072
7.435,0.0039
7.436,0.0036
7.437,0.0074
7.438,0.0019
7.439,0.0026
7.44,0.0032
7.441,0.0001
7.442,0.0039
7.443,0.0052
7.444,0.001
7.445,0.0037
7.446,0.0006
7.447,0.003
7.448,0.009
7.449,0.0131
7.45,0.0246
7.451,0.0429
7.452,0.0405
7.453,0.0206
7.454,0.0019
7.455,-0.0052
7.456,-0.0118
7.457,-0.0179
7.458,-0.016
7.459,-0.0177
7.46,-0.0133
7.461,-0.0173
7.462,-0.0113
7.463,-0.0124
7.464,-0.0133
7.465,-0.0142
7.466,-0.0067
7.467,-0.0058
7.468,-0.003
7.469,-0.0023
7.47,-0.0016
7.471,-0.0049
7.472,0.0047
7.473,0.0034
7.474,-0.0027
7.475,-0.006
7.476,-0.001
7.477,0.0017
7.478,-0.004
7.479,-0.0032
7.48,0.0001
7.481,-0.0043
7.482,-0.0027
7.483,0.0006
7.484,0.0019
7.485,0.003
7.486,0.0079
7.487,0.0085
7.488,0.0041
7.489,0.0036
7.49,0.0012
7.491,0.0008
7.492,-0.0012
7.493,0.0006
7.494,0.0032
7.495,0.0034
7.496,0.0036
7.497,-0.0001
7.498,-0.0025
7.499,0.0021
7.5,0.0026
7.501,0.0122
7.502,0.0327
7.503,0.0239
7.504,0.0105
7.505,-0.0016
7.506,-0.0082
7.507,-0.0061
7.508,-0.008
7.509,-0.0162
7.51,-0.0148
7.511,-0.016
7.512,-0.0171
7.513,-0.0182
7.514,-0.0091
7.515,-0.0007
7.516,0.0026
7.517,-0.0043
7.518,-0.0052
7.519,0.0039
7.52,0.0004
7.521,-0.0052
7.522,-0.0023
7.523,0.0004
7.524,-0.0036
7.525,-0.0058
7.526,-0.0063
7.527,-0.0069
7.528,-0.0018
7.529,-0.0036
7.53,-0.0018
7.531,0.0056
7.532,0.0105
7.533,0.0078
7.534,0.0021
7.535,0.0028
7.536,-0.0018
7.537,0.0039
7.538,0.0001
7.539,-0.0032
7.54,-0.0063
7.541,0.001
7.542,0.0059
7.543,0.005
7.544,0.001
7.545,0.0017
7.546,0.0063
7.547,0.0019
7.548,0.0006
7.549,0.0012
7.55,0.0087
7.551,0.012
7.552,0.0252
7.553,0.0343
7.554,0.0493
7.555,0.0352
7.556,0.0114
7.557,-0.0111
7.558,-0.014
7.559,-0.0219
7.56,-0.0148
7.561,-0.017
7.562,-0.0149
7.563,-0.0131
7.564,-0.0115
7.565,-0.0071
7.566,-0.0058
7.567,-0.0118
7.568,-0.0107
7.569,-0.0038
7.57,0.0008
7.571,-0.0116
7.572,-0.0135
7.573,-0.0085
7.574,-0.0041
7.575,-0.0029
7.576,-0.0018
7.577,0.0039
7.578,0.0069
7.579,0.0059
7.58,0.0036
7.581,-0.0018
7.582,-0.0036
7.583,-0.0018
7.584,-0.0056
7.585,-0.0089
7.586,-0.0019
7.587,-0.0029
7.588,-0.0056
7.589,-0.0032
7.59,0.0021
7.591,0.0039
7.592,0.0034
7.593,0.0107
7.594,0.0058
7.595,0.0012
7.596,-0.0012
7.597,0.0058
7.598,0.0012
7.599,0.0065
7.6,0.0105
7.601,0.022
7.602,0.0204
7.603,0.0219
7.604,0.0286
7.605,0.0297
7.606,0.033
7.607,0.0178
7.608,0.0069
7.609,0.0089
7.61,-0.0076
7.611,-0.0186
7.612,-0.0246
7.613,-0.0228
7.614,-0.0212
7.615,-0.0256
7.616,-0.0188
7.617,-0.0199
7.618,-0.0142
7.619,-0.0093
7.62,-0.0102
7.621,-0.0078
7.622,-0.004
7.623,-0.0034
7.624,-0.0065
7.625,-0.0071
7.626,-0.0067
7.627,-0.0054
7.628,0.0008
7.629,0.0147
7.63,0.0208
7.631,0.0116
7.632,0.0034
7.633,-0.001
7.634,-0.0023
7.635,-0.0012
7.636,-0.0023
7.637,-0.0014
7.638,-0.0023
7.639,-0.003
7.64,-0.0023
7.641,-0.0018
7.642,-0.0036
7.643,0.0015
7.644,0.001
7.645,-0.0021
7.646,-0.0005
7.647,0.0008
7.648,0.0021
7.649,0.0041
7.65,0.0094
7.651,0.0069
7.652,0.0123
7.653,0.0145
7.654,0.0248
7.655,0.0444
7.656,0.0365
7.657,0.0244
7.658,0.0134
7.659,-0.0007
7.66,-0.0135
7.661,-0.0184
7.662,-0.017
7.663,-0.0182
7.664,-0.0122
7.665,-0.0133
7.666,-0.0104
7.667,-0.0149
7.668,-0.0093
7.669,-0.0146
7.67,-0.01
7.671,-0.0144
7.672,-0.006
7.673,0.0025
7.674,-0.0032
7.675,-0.0082
7.676,-0.0036
7.677,0.0004
7.678,0.0074
7.679,0.0047
7.68,0.0023
7.681,0.003
7.682,0.0012
7.683,0.0017
7.684,0.0069
7.685,0.005
7.686,0.0032
7.687,0.0048
7.688,0.0015
7.689,-0.0045
7.69,-0.0052
7.691,-0.003
7.692,-0.0025
7.693,0.0032
7.694,0.0039
7.695,0.0021
7.696,0.0026
7.697,0.0078
7.698,0.0045
7.699,-0.0012
7.7,-0.0034
7.701,-0.0052
7.702,-0.0034
7.703,0.0061
7.704,0.0239
7.705,0.0263
7.706,0.0372
7.707,0.0473
7.708,0.0308
7.709,0.0155
7.71,-0.0027
7.711,-0.0051
7.712,-0.0116
7.713,-0.0137
7.714,-0.0155
7.715,-0.0072
7.716,-0.0058
7.717,-0.0098
7.718,-0.0063
7.719,-0.012
7.72,-0.0129
7.721,-0.0045
7.722,-0.0078
7.723,-0.0087
7.724,-0.0078
7.725,-0.0085
7.726,-0.0063
7.727,-0.0069
7.728,-0.0012
7.729,-0.0019
7.73,-0.0025
7.731,-0.003
7.732,0.0008
7.733,0.0021
7.734,0.0034
7.735,0.0023
7.736,0.0004
7.737,0.0059
7.738,0.0006
7.739,-0.0027
7.74,0.0004
7.741,-0.0058
7.742,-0.0018
7.743,-0.001
7.744,0.0008
7.745,0.0052
7.746,0.0047
7.747,0.0014
7.748,0.0045
7.749,-0.0001
7.75,-0.0019
7.751,-0.0014
7.752,0.0065
7.753,0.0041
7.754,0.0063
7.755,0.0109
7.756,0.0204
7.757,0.0409
7.758,0.0438
7.759,0.0252
7.76,0.0083
7.761,0.0017
7.762,-0.0083
7.763,-0.0138
7.764,-0.0122
7.765,-0.0166
7.766,-0.0206
7.767,-0.0171
7.768,-0.0115
7.769,-0.0105
7.77,-0.0133
7.771,-0.0126
7.772,-0.0104
7.773,-0.0098
7.774,-0.008
7.775,-0.0029
7.776,-0.0047
7.777,-0.0065
7.778,-0.0049
7.779,-0.0072
7.78,-0.006
7.781,-0.0056
7.782,-0.0007
7.783,0.0026
7.784,0.0032
7.785,0.0015
7.786,0.0003
7.787,-0.0019
7.788,-0.0008
7.789,0.0017
7.79,0.0021
7.791,0.0001
7.792,0.0037
7.793,0.0025
7.794,-0.0007
7.795,-0.0034
7.796,-0.0008
7.797,0.001
7.798,0.0037
7.799,0.0034
7.8,0.0059
7.801,0.01
7.802,0.0151
7.803,0.0204
7.804,0.021
7.805,0.0305
7.806,0.0345
7.807,0.053
7.808,0.0609
7.809,0.044
7.81,0.0286
7.811,0.0105
7.812,-0.0016
7.813,-0.0082
7.814,-0.0223
7.815,-0.0314
7.816,-0.0397
7.817,-0.0472
7.818,-0.0622
7.819,-0.0642
7.82,-0.0697
7.821,-0.0647
7.822,-0.0572
7.823,-0.0532
7.824,-0.0448
7.825,-0.055
7.826,-0.0646
7.827,-0.073
7.828,-0.0809
7.829,-0.0961
7.83,-0.1026
7.831,-0.0966
7.832,-0.1021
7.833,-0.0906
7.834,-0.0862
7.835,-0.0902
7.836,-0.0717
7.837,-0.0475
7.838,0.0012
7.839,0.1063
7.84,0.1513
7.841,0.1649
7.842,0.1524
7.843,0.1636
7.844,0.1123
7.845,0.0843
7.846,0.0759
7.847,0.0528
7.848,0.0598
7.849,0.0786
7.85,0.0843
7.851,0.1105
7.852,0.1248
7.853,0.1206
7.854,0.1251
7.855,0.1213
7.856,0.1391
7.857,0.1098
7.858,0.098
7.859,0.0946
7.86,0.085
7.861,0.0524
7.862,0.0396
7.863,0.02
7.864,-0.0049
7.865,-0.021
7.866,-0.0358
7.867,-0.0437
7.868,-0.0558
7.869,-0.058
7.87,-0.06
7.871,-0.0582
7.872,-0.0631
7.873,-0.0675
7.874,-0.058
7.875,-0.0468
7.876,-0.0512
7.877,-0.0607
7.878,-0.0572
7.879,-0.0605
7.88,-0.0675
7.881,-0.0702
7.882,-0.0726
7.883,-0.0719
7.884,-0.0686
7.885,-0.0629
7.886,-0.0545
7.887,-0.0534
7.888,-0.0525
7.889,-0.0479
7.89,-0.0455
7.891,-0.0448
7.892,-0.0345
7.893,-0.0301
7.894,-0.0234
7.895,-0.0173
7.896,-0.0094
7.897,-0.0065
7.898,-0.0038
7.899,-0.0014
7.9,0.0039
7.901,0.0034
7.902,0.0028
7.903,0.0067
7.904,0.0054
7.905,0.0043
7.906,0.0074
7.907,0.0136
7.908,0.0275
7.909,0.0457
7.91,0.0528
7.911,0.0374
7.912,0.0193
7.913,0.0072
7.914,0.0006
7.915,0.0026
7.916,-0.0029
7.917,-0.0045
7.918,-0.003
7.919,0.001
7.92,-0.0025
7.921,0.0008
7.922,-0.0001
7.923,0.0045
7.924,0.0037
7.925,-0.0001
7.926,0.0004
7.927,0.0036
7.928,0.0052
7.929,0.0028
7.93,0.0032
7.931,0.0059
7.932,0.0101
7.933,0.0063
7.934,0.0039
7.935,0.0036
7.936,0.0098
7.937,0.0052
7.938,0.0076
7.939,0.0098
7.94,0.0036
7.941,0.0028
7.942,0.0081
7.943,0.0114
7.944,0.012
7.945,0.0081
7.946,0.0026
7.947,0.0048
7.948,0.0067
7.949,0.0111
7.95,0.0072
7.951,0.0076
7.952,0.0054
7.953,0.0008
7.954,0.0039
7.955,0.0023
7.956,0.0028
7.957,-0.0018
7.958,0.0078
7.959,0.0173
7.96,0.0233
7.961,0.0358
7.962,0.0473
7.963,0.0398
7.964,0.0193
7.965,-0.0014
7.966,-0.0093
7.967,-0.0164
7.968,-0.0098
7.969,-0.0159
7.97,-0.0213
7.971,-0.0164
7.972,-0.012
7.973,-0.0133
7.974,-0.0193
7.975,-0.0137
7.976,-0.0127
7.977,-0.0118
7.978,-0.0111
7.979,-0.0089
7.98,-0.0056
7.981,-0.0051
7.982,-0.0023
7.983,-0.0019
7.984,0.0012
7.985,-0.0027
7.986,-0.0003
7.987,-0.0007
7.988,-0.0034
7.989,0.0001
7.99,0.0014
7.991,0.0041
7.992,0.0052
7.993,0.0041
7.994,0.0043
7.995,0.0001
7.996,0.0019
7.997,0.0036
7.998,0.0003
7.999,0.0034
8,0.0061
8.001,0.0043
8.002,0.0061
8.003,0.0028
8.004,0.0006
8.005,0.0061
8.006,0.0039
8.007,-0.0008
8.008,0.001
8.009,0.0092
8.01,0.0081
8.011,0.0233
8.012,0.0299
8.013,0.0319
8.014,0.0228
8.015,0.0378
8.016,0.0398
8.017,0.0197
8.018,-0.0045
8.019,-0.0076
8.02,-0.0164
8.021,-0.0243
8.022,-0.0314
8.023,-0.0336
8.024,-0.0276
8.025,-0.0221
8.026,-0.0204
8.027,-0.019
8.028,-0.0177
8.029,-0.0166
8.03,-0.0133
8.031,-0.0124
8.032,0.0015
8.033,-0.0005
8.034,-0.0023
8.035,-0.0072
8.036,-0.0029
8.037,0.0012
8.038,-0.0023
8.039,0.001
8.04,0.0019
8.041,-0.0008
8.042,-0.0001
8.043,-0.0023
8.044,0.0039
8.045,0.0032
8.046,0.0054
8.047,0.0036
8.048,0.0017
8.049,0.0012
8.05,0.0087
8.051,0.003
8.052,0.0059
8.053,0.0032
8.054,-0.0008
8.055,0.0014
8.056,-0.0032
8.057,-0.0014
8.058,0.0021
8.059,0.0015
8.06,0.009
8.061,0.0215
8.062,0.0398
8.063,0.0327
8.064,0.0217
8.065,0.0156
8.066,0.0028
8.067,-0.0054
8.068,-0.0129
8.069,-0.0142
8.07,-0.0177
8.071,-0.021
8.072,-0.016
8.073,-0.0151
8.074,-0.0111
8.075,-0.0089
8.076,-0.0071
8.077,-0.0076
8.078,-0.006
8.079,-0.0047
8.08,-0.0034
8.081,-0.0007
8.082,-0.0003
8.083,0.0001
8.084,0.0008
8.085,0.0026
8.086,0.0008
8.087,0.0014
8.088,-0.0001
8.089,0.0008
8.09,0.0021
8.091,0.0006
8.092,0.0037
8.093,0.0034
8.094,0.003
8.095,0.0041
8.096,0.0087
8.097,0.0041
8.098,0.0023
8.099,0.0017
8.1,0.0092
8.101,0.0125
8.102,0.0034
8.103,0.0023
8.104,0.0079
8.105,0.001
8.106,-0.0018
8.107,-0.001
8.108,0.0012
8.109,-0.003
8.11,-0.0049
8.111,0.0047
8.112,0.0252
8.113,0.04
8.114,0.0321
8.115,0.02
8.116,0.009
8.117,-0.001
8.118,-0.0102
8.119,-0.0151
8.12,-0.0076
8.121,-0.0144
8.122,-0.0008
8.123,-0.01
8.124,-0.0149
8.125,-0.0135
8.126,-0.0122
8.127,-0.0157
8.128,-0.0146
8.129,-0.0175
8.13,-0.0129
8.131,-0.0089
8.132,-0.0096
8.133,-0.0115
8.134,-0.0058
8.135,-0.008
8.136,-0.0034
8.137,-0.0078
8.138,-0.0016
8.139,-0.0008
8.14,-0.003
8.141,0.0059
8.142,0.0025
8.143,-0.0008
8.144,0.0021
8.145,0.0067
8.146,0.0043
8.147,0.0021
8.148,0.0083
8.149,0.0043
8.15,0.0036
8.151,0.0054
8.152,0.0023
8.153,-0.0005
8.154,-0.0018
8.155,0.0004
8.156,0.0025
8.157,0.005
8.158,0.0003
8.159,-0.0003
8.16,-0.0016
8.161,0.0001
8.162,0.0067
8.163,0.0076
8.164,0.02
8.165,0.0438
8.166,0.0277
8.167,0.0248
8.168,0.0006
8.169,-0.0025
8.17,-0.0113
8.171,-0.0138
8.172,-0.021
8.173,-0.0188
8.174,-0.0168
8.175,-0.0149
8.176,-0.0133
8.177,-0.0118
8.178,-0.0105
8.179,-0.0116
8.18,-0.0127
8.181,-0.0098
8.182,-0.0071
8.183,-0.0047
8.184,0.0006
8.185,0.0012
8.186,-0.0019
8.187,-0.0003
8.188,-0.0007
8.189,-0.001
8.19,0.0028
8.191,-0.0005
8.192,0.0017
8.193,-0.0003
8.194,0.0047
8.195,0.0052
8.196,0.0047
8.197,0.0008
8.198,0.0032
8.199,0.001
8.2,0.0056
8.201,0.005
8.202,-0.0023
8.203,0.0006
8.204,0.0034
8.205,-0.0023
8.206,0.0047
8.207,0.0019
8.208,0.0026
8.209,-0.0012
8.21,-0.0007
8.211,0.0021
8.212,0.0039
8.213,0.0123
8.214,0.0208
8.215,0.0378
8.216,0.0402
8.217,0.0248
8.218,0.0067
8.219,-0.0054
8.22,-0.0076
8.221,-0.0096
8.222,-0.0151
8.223,-0.0135
8.224,-0.0149
8.225,-0.0162
8.226,-0.0173
8.227,-0.0116
8.228,-0.0087
8.229,-0.0041
8.23,-0.0049
8.231,-0.0027
8.232,-0.0032
8.233,-0.0063
8.234,-0.0036
8.235,0.001
8.236,-0.0008
8.237,-0.0014
8.238,-0.0027
8.239,-0.0005
8.24,-0.0001
8.241,0.0041
8.242,0.0036
8.243,-0.0019
8.244,-0.0058
8.245,-0.004
8.246,0.0004
8.247,0.0032
8.248,0.0045
8.249,0.0014
8.25,0.0059
8.251,0.0041
8.252,0.0058
8.253,0.0025
8.254,0.0037
8.255,0.0026
8.256,0.0045
8.257,-0.0003
8.258,0.0015
8.259,-0.0036
8.26,0.0026
8.261,-0.0014
8.262,0.0014
8.263,0.0006
8.264,0.0109
8.265,0.0244
8.266,0.0409
8.267,0.0431
8.268,0.021
8.269,0.0061
8.27,-0.0018
8.271,-0.0089
8.272,-0.0111
8.273,-0.0091
8.274,-0.0146
8.275,-0.0096
8.276,-0.0171
8.277,-0.0131
8.278,-0.012
8.279,-0.0131
8.28,-0.0122
8.281,-0.0094
8.282,-0.0102
8.283,-0.0032
8.284,-0.0078
8.285,-0.0102
8.286,-0.0094
8.287,-0.0061
8.288,0.0021
8.289,0.0032
8.29,-0.0018
8.291,-0.0008
8.292,0.0083
8.293,0.0072
8.294,0.0039
8.295,0.001
8.296,0.0001
8.297,-0.0023
8.298,0.0015
8.299,0.0021
8.3,-0.001
8.301,0.0017
8.302,0.0004
8.303,0.0036
8.304,0.0063
8.305,0.0006
8.306,-0.0001
8.307,-0.0023
8.308,0.0023
8.309,-0.0021
8.31,-0.0027
8.311,-0.0051
8.312,-0.0008
8.313,0.0028
8.314,0.0056
8.315,0.0131
8.316,0.0142
8.317,0.0294
8.318,0.0404
8.319,0.0383
8.32,0.0255
8.321,0.0072
8.322,-0.0049
8.323,-0.0071
8.324,-0.0091
8.325,-0.0146
8.326,-0.0195
8.327,-0.0181
8.328,-0.014
8.329,-0.008
8.33,-0.0113
8.331,-0.0083
8.332,-0.0056
8.333,-0.0016
8.334,0.0006
8.335,0.0069
8.336,0.0028
8.337,-0.0025
8.338,-0.0019
8.339,-0.0063
8.34,0.001
8.341,0.0001
8.342,-0.0045
8.343,-0.0069
8.344,-0.003
8.345,0.0045
8.346,0.0015
8.347,0.0025
8.348,-0.0016
8.349,-0.0038
8.35,-0.0056
8.351,-0.0061
8.352,-0.0056
8.353,-0.001
8.354,0.0008
8.355,0.0003
8.356,0.0015
8.357,0.0003
8.358,-0.0008
8.359,0.0017
8.36,0.0021
8.361,-0.0007
8.362,0.0019
8.363,0.0023
8.364,0.0021
8.365,0.0023
8.366,0.0065
8.367,0.0083
8.368,0.0089
8.369,0.0155
8.37,0.0219
8.371,0.0275
8.372,0.0222
8.373,0.0217
8.374,0.0312
8.375,0.0244
8.376,0.0083
8.377,-0.0071
8.378,-0.0212
8.379,-0.023
8.38,-0.0279
8.381,-0.0265
8.382,-0.0252
8.383,-0.0287
8.384,-0.0276
8.385,-0.0226
8.386,-0.0199
8.387,-0.0175
8.388,-0.0197
8.389,-0.0164
8.39,-0.0133
8.391,-0.0105
8.392,-0.003
8.393,-0.0041
8.394,-0.0032
8.395,-0.0041
8.396,0.0015
8.397,-0.0023
8.398,-0.0005
8.399,0.0014
8.4,0.0019
8.401,0.0065
8.402,0.0059
8.403,0.0122
8.404,0.003
8.405,0.0019
8.406,0.0008
8.407,0.0058
8.408,0.0067
8.409,0.0043
8.41,0.0065
8.411,0.0083
8.412,0.0052
8.413,0.0047
8.414,0.0092
8.415,0.0116
8.416,0.0098
8.417,0.0182
8.418,0.0343
8.419,0.0543
8.42,0.0676
8.421,0.0508
8.422,0.0442
8.423,0.0301
8.424,0.0136
8.425,0.0114
8.426,0.0014
8.427,-0.0078
8.428,-0.0061
8.429,-0.0197
8.43,-0.0289
8.431,-0.0371
8.432,-0.0506
8.433,-0.0598
8.434,-0.0647
8.435,-0.0723
8.436,-0.071
8.437,-0.0598
8.438,-0.0554
8.439,-0.0486
8.44,-0.0547
8.441,-0.0695
8.442,-0.0876
8.443,-0.0853
8.444,-0.1052
8.445,-0.1402
8.446,-0.1354
8.447,-0.1226
8.448,-0.1188
8.449,-0.101
8.45,-0.0849
8.451,-0.0582
8.452,-0.0045
8.453,0.0957
8.454,0.164
8.455,0.1764
8.456,0.1876
8.457,0.1773
8.458,0.1493
8.459,0.124
8.46,0.101
8.461,0.0801
8.462,0.0739
8.463,0.0567
8.464,0.0722
8.465,0.0865
8.466,0.1046
8.467,0.1174
8.468,0.1292
8.469,0.1326
8.47,0.1422
8.471,0.151
8.472,0.1484
8.473,0.1264
8.474,0.0819
8.475,0.0376
8.476,0.0204
8.477,0.0048
8.478,-0.0094
8.479,-0.0137
8.48,-0.0175
8.481,-0.0281
8.482,-0.0312
8.483,-0.0461
8.484,-0.0539
8.485,-0.0516
8.486,-0.0494
8.487,-0.0594
8.488,-0.0613
8.489,-0.0596
8.49,-0.0582
8.491,-0.0594
8.492,-0.0629
8.493,-0.0662
8.494,-0.0653
8.495,-0.0644
8.496,-0.0651
8.497,-0.0644
8.498,-0.0649
8.499,-0.0631
8.5,-0.0625
8.501,-0.0613
8.502,-0.0591
8.503,-0.0545
8.504,-0.0527
8.505,-0.0442
8.506,-0.0382
8.507,-0.0303
8.508,-0.0274
8.509,-0.0246
8.51,-0.0206
8.511,-0.0168
8.512,-0.0135
8.513,-0.0129
8.514,-0.0078
8.515,-0.0003
8.516,-0.0012
8.517,0.0021
8.518,0.003
8.519,0.0155
8.52,0.0173
8.521,0.0288
8.522,0.0453
8.523,0.0519
8.524,0.0338
8.525,0.0217
8.526,0.0107
8.527,0.0006
8.528,-0.0049
8.529,-0.0065
8.53,-0.008
8.531,-0.004
8.532,-0.0051
8.533,-0.0061
8.534,-0.0071
8.535,-0.008
8.536,-0.004
8.537,0.003
8.538,0.0021
8.539,0.0028
8.54,0.005
8.541,-0.0012
8.542,-0.0019
8.543,0.0096
8.544,0.0112
8.545,0.0098
8.546,0.0085
8.547,0.0096
8.548,0.0063
8.549,0.0072
8.55,0.01
8.551,0.0092
8.552,0.0054
8.553,0.0072
8.554,0.009
8.555,0.0074
8.556,0.0061
8.557,0.0131
8.558,0.0101
8.559,0.0056
8.56,0.0032
8.561,0.0025
8.562,0.003
8.563,0.01
8.564,0.0036
8.565,0.0076
8.566,0.0037
8.567,0.0019
8.568,0.0021
8.569,0.0003
8.57,0.0087
8.571,0.0171
8.572,0.0138
8.573,0.029
8.574,0.0444
8.575,0.0424
8.576,0.0222
8.577,0.0356
8.578,0.038
8.579,0.0314
8.58,0.0092
8.581,-0.0115
8.582,-0.014
8.583,-0.0212
8.584,-0.0278
8.585,-0.0298
8.586,-0.0279
8.587,-0.0296
8.588,-0.0252
8.589,-0.0265
8.59,-0.0254
8.591,-0.0197
8.592,-0.0188
8.593,-0.0197
8.594,-0.0173
8.595,-0.0151
8.596,-0.0089
8.597,-0.0065
8.598,0.0019
8.599,0.0052
8.6,0.0023
8.601,0.005
8.602,0.0058
8.603,0.0111
8.604,0.0105
8.605,0.001
8.606,0.005
8.607,0.0015
8.608,0.0004
8.609,0.0014
8.61,0.0059
8.611,0.0184
8.612,0.0202
8.613,0.0219
8.614,0.0114
8.615,0.0019
8.616,-0.0016
8.617,0.0017
8.618,0.0026
8.619,0.0021
8.62,0.003
8.621,0.0155
8.622,0.0136
8.623,0.0352
8.624,0.0382
8.625,0.0248
8.626,0.0079
8.627,-0.012
8.628,-0.0094
8.629,-0.0118
8.63,-0.0184
8.631,-0.0164
8.632,-0.0109
8.633,-0.006
8.634,-0.0104
8.635,-0.0091
8.636,-0.008
8.637,-0.0091
8.638,-0.0082
8.639,-0.0072
8.64,-0.0049
8.641,-0.0071
8.642,-0.0065
8.643,-0.0021
8.644,-0.0038
8.645,-0.0061
8.646,-0.0001
8.647,-0.0041
8.648,-0.0019
8.649,-0.0014
8.65,-0.0032
8.651,-0.0005
8.652,0.007
8.653,0.0059
8.654,0.005
8.655,0.0041
8.656,-0.0016
8.657,0.0037
8.658,0.0056
8.659,0.0087
8.66,0.0048
8.661,0.0025
8.662,0.0021
8.663,-0.0018
8.664,0.0037
8.665,0.003
8.666,-0.0016
8.667,-0.001
8.668,0.0041
8.669,-0.0005
8.67,0.0021
8.671,0.0003
8.672,0.0087
8.673,0.0122
8.674,0.0292
8.675,0.046
8.676,0.0307
8.677,0.0125
8.678,0.0054
8.679,-0.0056
8.68,-0.0116
8.681,-0.0135
8.682,-0.0184
8.683,-0.014
8.684,-0.01
8.685,-0.0135
8.686,-0.0078
8.687,-0.0087
8.688,-0.0115
8.689,-0.0122
8.69,-0.0083
8.691,-0.0051
8.692,-0.0045
8.693,-0.004
8.694,0.0015
8.695,-0.0007
8.696,-0.0025
8.697,-0.0007
8.698,0.0045
8.699,0.0039
8.7,0.0034
8.701,0.0039
8.702,0.0052
8.703,0.0056
8.704,0.0036
8.705,0.0078
8.706,0.0039
8.707,0.0026
8.708,0.0048
8.709,0.0059
8.71,0.0003
8.711,0.0043
8.712,0.005
8.713,-0.0012
8.714,0.0012
8.715,0.0004
8.716,-0.0014
8.717,0.0004
8.718,-0.0034
8.719,0.0041
8.72,0.003
8.721,0.0058
8.722,0.0087
8.723,0.0189
8.724,0.0094
8.725,0.0178
8.726,0.0349
8.727,0.0277
8.728,0.0255
8.729,0.0074
8.73,-0.0047
8.731,-0.0113
8.732,-0.0133
8.733,-0.0188
8.734,-0.0204
8.735,-0.019
8.736,-0.0177
8.737,-0.0188
8.738,-0.0221
8.739,-0.0191
8.74,-0.0201
8.741,-0.0193
8.742,-0.0093
8.743,-0.0133
8.744,-0.0049
8.745,-0.0016
8.746,-0.0065
8.747,-0.0001
8.748,0.0006
8.749,0.0059
8.75,0.0065
8.751,0.0034
8.752,0.0028
8.753,0.0041
8.754,0.0037
8.755,-0.0008
8.756,0.0048
8.757,0.0026
8.758,-0.0019
8.759,0.0037
8.76,0.0076
8.761,0.0122
8.762,0.0052
8.763,-0.0012
8.764,-0.0005
8.765,-0.0027
8.766,-0.0008
8.767,0.001
8.768,0.0037
8.769,0.007
8.77,0.0067
8.771,0.0047
8.772,0.0021
8.773,0.0003
8.774,0.0058
8.775,0.0065
8.776,0.0167
8.777,0.0303
8.778,0.0211
8.779,0.0129
8.78,0.0114
8.781,0.0074
8.782,0.0085
8.783,-0.0018
8.784,-0.0113
8.785,-0.0102
8.786,-0.0226
8.787,-0.0276
8.788,-0.0441
8.789,-0.0462
8.79,-0.0442
8.791,-0.0314
8.792,-0.0265
8.793,-0.016
8.794,-0.0065
8.795,0.012
8.796,0.0094
8.797,0.0118
8.798,0.0184
8.799,0.0204
8.8,0.0149
8.801,0.0133
8.802,0.0118
8.803,0.0131
8.804,0.0096
8.805,0.0129
8.806,0.0059
8.807,0.0069
8.808,0.0028
8.809,-0.0056
8.81,0.0001
8.811,0.007
8.812,0.0098
8.813,0.0122
8.814,0.0006
8.815,0.0056
8.816,0.0131
8.817,0.009
8.818,0.0056
8.819,-0.0001
8.82,-0.0051
8.821,-0.0078
8.822,-0.0038
8.823,0.0014
8.824,-0.0056
8.825,0.0065
8.826,0.0015
8.827,0.0241
8.828,0.021
8.829,0.0297
8.83,0.0272
8.831,0.044
8.832,0.0374
8.833,0.0153
8.834,0.0004
8.835,-0.0129
8.836,-0.0153
8.837,-0.0263
8.838,-0.0243
8.839,-0.0298
8.84,-0.0281
8.841,-0.0206
8.842,-0.0246
8.843,-0.0212
8.844,-0.0223
8.845,-0.0173
8.846,-0.0182
8.847,-0.0091
8.848,-0.0056
8.849,-0.0089
8.85,-0.0118
8.851,-0.0072
8.852,-0.0065
8.853,-0.0043
8.854,0.0019
8.855,-0.0021
8.856,0.0017
8.857,0.012
8.858,0.0195
8.859,0.0208
8.86,0.0123
8.861,0.0067
8.862,0.0096
8.863,-0.0025
8.864,-0.0041
8.865,-0.0056
8.866,-0.0043
8.867,-0.0032
8.868,0.0001
8.869,0.003
8.87,-0.0054
8.871,0.0048
8.872,0.0089
8.873,0.0028
8.874,0.0036
8.875,0.0069
8.876,-0.0083
8.877,0.0116
8.878,0.025
8.879,0.0418
8.88,0.0396
8.881,0.0255
8.882,0.0164
8.883,-0.0019
8.884,-0.0091
8.885,-0.0157
8.886,-0.0177
8.887,-0.0195
8.888,-0.0212
8.889,-0.0226
8.89,-0.0186
8.891,-0.0151
8.892,-0.0118
8.893,-0.0148
8.894,-0.012
8.895,-0.0127
8.896,-0.0089
8.897,-0.0043
8.898,0.0001
8.899,0.0006
8.9,-0.0018
8.901,0.0052
8.902,0.0101
8.903,0.0056
8.904,0.0032
8.905,-0.0007
8.906,-0.004
8.907,-0.0008
8.908,0.0008
8.909,0.0054
8.91,-0.0003
8.911,0.0004
8.912,-0.0085
8.913,-0.0096
8.914,0.0006
8.915,0.0047
8.916,0.0036
8.917,0.0003
8.918,0.0072
8.919,0.0081
8.92,0.0089
8.921,0.0036
8.922,0.0017
8.923,-0.0014
8.924,-0.0008
8.925,0.0036
8.926,0.0048
8.927,0.0118
8.928,0.0188
8.929,0.0252
8.93,0.0376
8.931,0.0431
8.932,0.0281
8.933,0.014
8.934,0.0048
8.935,-0.0067
8.936,-0.0111
8.937,-0.0098
8.938,-0.0109
8.939,-0.0188
8.94,-0.0179
8.941,-0.0188
8.942,-0.0148
8.943,-0.0155
8.944,-0.008
8.945,-0.0051
8.946,-0.006
8.947,-0.0052
8.948,-0.006
8.949,-0.0078
8.95,-0.0034
8.951,0.0017
8.952,0.0012
8.953,-0.0019
8.954,-0.0058
8.955,-0.0025
8.956,-0.0038
8.957,-0.0034
8.958,-0.0045
8.959,-0.0005
8.96,-0.0001
8.961,0.003
8.962,-0.0016
8.963,0.0003
8.964,-0.0036
8.965,-0.0012
8.966,0.0001
8.967,0.0047
8.968,0.0052
8.969,0.0014
8.97,0.0017
8.971,-0.0005
8.972,-0.0043
8.973,-0.001
8.974,0.0012
8.975,-0.0016
8.976,0.0021
8.977,0.0039
8.978,0.0094
8.979,0.0133
8.98,0.0235
8.981,0.046
8.982,0.0235
8.983,0.0206
8.984,0.0072
8.985,-0.0049
8.986,-0.0159
8.987,-0.0179
8.988,-0.016
8.989,-0.021
8.99,-0.0166
8.991,-0.0153
8.992,-0.0118
8.993,-0.0085
8.994,-0.0115
8.995,-0.0087
8.996,-0.0111
8.997,-0.0089
8.998,-0.0056
8.999,-0.0087
9,-0.0014
9.001,0.0015
9.002,-0.003
9.003,-0.0023
9.004,-0.0001
9.005,0.0004
9.006,-0.0001
9.007,0.0015
9.008,-0.0018
9.009,-0.0005
9.01,0.0058
9.011,0.0103
9.012,0.0047
9.013,0.0025
9.014,-0.0008
9.015,0.001
9.016,-0.0007
9.017,-0.0003
9.018,0.0067
9.019,0.0058
9.02,0.0048
9.021,0.0173
9.022,0.0301
9.023,0.0285
9.024,0.027
9.025,0.023
9.026,0.0219
9.027,0.0292
9.028,0.0281
9.029,0.0372
9.03,0.0312
9.031,0.0369
9.032,0.048
9.033,0.0437
