0,-2.032,0
0.001,-0.75,0
0.002,1.997,0
0.003,1.63,0
0.004,-3.863,0
0.005,7.673,0
0.006,2.729,0
0.007,-1.666,0
0.008,2.363,0
0.009,-1.116,0
0.01,-2.215,0
0.011,-1.299,0
0.012,-0.384,0
0.013,0.349,0
0.014,-0.384,0
0.015,-0.933,0
0.016,-1.482,0
0.017,0.166,0
0.018,3.461,0
0.019,-0.75,0
0.02,-2.398,0
0.021,-0.018,0
0.022,0.349,0
0.023,-3.497,0
0.024,-0.201,0
0.025,-1.482,0
0.026,-0.384,0
0.027,-2.947,0
0.028,-2.581,0
0.029,1.447,0
0.03,-0.201,0
0.031,-0.567,0
0.032,-1.849,0
0.033,0.898,0
0.034,-1.666,0
0.035,0.898,0
0.036,0.166,0
0.037,-0.567,0
0.038,0.166,0
0.039,-1.299,0
0.04,-1.116,0
0.041,1.813,0
0.042,-0.933,0
0.043,0.898,0
0.044,-0.933,0
0.045,2.363,0
0.046,-0.75,0
0.047,-1.116,0
0.048,-0.018,0
0.049,-1.116,0
0.05,2.18,0
0.051,1.63,0
0.052,0.349,0
0.053,-2.398,0
0.054,3.278,0
0.055,5.659,0
0.056,4.926,0
0.057,1.63,0
0.058,4.743,0
0.059,0.898,0
0.06,3.278,0
0.061,1.997,0
0.062,0.898,0
0.063,2.729,0
0.064,3.828,0
0.065,2.363,0
0.066,6.025,0
0.067,5.659,0
0.068,-1.299,0
0.069,-2.215,0
0.07,0.532,0
0.071,1.264,0
0.072,3.461,0
0.073,2.912,0
0.074,11.152,0
0.075,14.448,0
0.076,17.377,0
0.077,20.124,0
0.078,22.504,0
0.079,15.546,0
0.08,12.8,0
0.081,12.067,0
0.082,8.222,0
0.083,4.926,0
0.084,0.532,0
0.085,-7.891,0
0.086,-19.061,0
0.087,-26.568,0
0.088,-36.089,0
0.089,-39.568,0
0.09,-38.47,0
0.091,-25.286,0
0.092,-16.131,0
0.093,-1.116,0
0.094,-11.187,0
0.095,-24.004,0
0.096,-42.315,0
0.097,-64.288,0
0.098,-91.021,0
0.099,-108.78,0
0.1,-131.3,0
0.101,-146.14,0
0.102,-141.92,0
0.103,-144.49,0
0.104,-122.52,0
0.105,-101.82,0
0.106,-83.147,0
0.107,-61.175,0
0.108,-22.54,0
0.109,56.196,0
0.11,135.11,0
0.111,165.88,0
0.112,156.54,0
0.113,148.12,0
0.114,140.42,0
0.115,119.55,0
0.116,113.33,0
0.117,119,0
0.118,103.44,0
0.119,98.676,0
0.12,102.89,0
0.121,106.73,0
0.122,110.21,0
0.123,100.69,0
0.124,85.859,0
0.125,77.985,0
0.126,70.844,0
0.127,77.436,0
0.128,75.422,0
0.129,69.929,0
0.13,48.322,0
0.131,27.631,0
0.132,8.955,0
0.133,11.335,0
0.134,4.743,0
0.135,2.729,0
0.136,-6.426,0
0.137,-17.962,0
0.138,-28.399,0
0.139,-35.174,0
0.14,-48.724,0
0.141,-54.217,0
0.142,-52.569,0
0.143,-56.963,0
0.144,-63.738,0
0.145,-62.64,0
0.146,-59.344,0
0.147,-54.4,0
0.148,-51.653,0
0.149,-55.682,0
0.15,-50.372,0
0.151,-50.921,0
0.152,-52.752,0
0.153,-50.372,0
0.154,-50.921,0
0.155,-48.541,0
0.156,-43.414,0
0.157,-40.118,0
0.158,-30.596,0
0.159,-45.611,0
0.16,-39.568,0
0.161,-34.075,0
0.162,-29.131,0
0.163,-27.667,0
0.164,-23.638,0
0.165,-7.525,0
0.166,-14.117,0
0.167,-16.131,0
0.168,-10.638,0
0.169,-8.99,0
0.17,-4.595,0
0.171,-5.877,0
0.172,-2.398,0
0.173,-5.694,0
0.174,-0.75,0
0.175,0.166,0
0.176,0.898,0
0.177,1.63,0
0.178,2.18,0
0.179,7.856,0
0.18,5.659,0
0.181,8.955,0
0.182,5.842,0
0.183,8.588,0
0.184,7.307,0
0.185,8.588,0
0.186,7.49,0
0.187,7.856,0
0.188,9.687,0
0.189,9.87,0
0.19,6.757,0
0.191,7.124,0
0.192,3.645,0
0.193,5.842,0
0.194,6.94,0
0.195,7.307,0
0.196,6.208,0
0.197,2.912,0
0.198,3.278,0
0.199,6.025,0
0.2,4.926,0
0.201,10.419,0
0.202,8.222,0
0.203,6.391,0
0.204,5.292,0
0.205,5.842,0
0.206,13.166,0
0.207,1.997,0
0.208,15.546,0
0.209,10.053,0
0.21,5.109,0
0.211,0.715,0
0.212,1.997,0
0.213,3.095,0
0.214,-0.201,0
0.215,-1.116,0
0.216,-2.032,0
0.217,-1.299,0
0.218,0.898,0
0.219,0.349,0
0.22,3.461,0
0.221,-1.666,0
0.222,-1.116,0
0.223,0.715,0
0.224,-3.13,0
0.225,0.166,0
0.226,-1.116,0
0.227,3.461,0
0.228,0.349,0
0.229,1.997,0
0.23,0.715,0
0.231,-0.567,0
0.232,0.532,0
0.233,-1.299,0
0.234,1.264,0
0.235,5.292,0
0.236,2.546,0
0.237,-0.75,0
0.238,-2.947,0
0.239,1.63,0
0.24,-4.046,0
0.241,-0.201,0
0.242,-0.75,0
0.243,-2.581,0
0.244,-5.328,0
0.245,-4.961,0
0.246,-3.68,0
0.247,-1.666,0
0.248,-2.764,0
0.249,0.532,0
0.25,0.898,0
0.251,1.997,0
0.252,2.363,0
0.253,-0.933,0
0.254,0.349,0
0.255,-0.567,0
0.256,-0.201,0
0.257,5.476,0
0.258,4.743,0
0.259,11.701,0
0.26,7.124,0
0.261,-2.032,0
0.262,-3.13,0
0.263,-4.229,0
0.264,-3.313,0
0.265,-0.567,0
0.266,-1.299,0
0.267,-3.497,0
0.268,-0.201,0
0.269,-0.75,0
0.27,-2.398,0
0.271,-2.764,0
0.272,-2.398,0
0.273,-2.032,0
0.274,-3.863,0
0.275,-1.299,0
0.276,-4.046,0
0.277,0.166,0
0.278,0.715,0
0.279,0.349,0
0.28,-2.764,0
0.281,1.813,0
0.282,-0.018,0
0.283,-0.567,0
0.284,-0.201,0
0.285,-2.398,0
0.286,0.349,0
0.287,-3.863,0
0.288,-1.116,0
0.289,-1.482,0
0.29,-0.201,0
0.291,-1.299,0
0.292,-2.398,0
0.293,-2.032,0
0.294,-1.299,0
0.295,-2.581,0
0.296,0.349,0
0.297,-3.863,0
0.298,-4.412,0
0.299,-3.13,0
0.3,-0.933,0
0.301,1.813,0
0.302,-3.863,0
0.303,-1.482,0
0.304,-3.68,0
0.305,-1.849,0
0.306,-0.567,0
0.307,1.264,0
0.308,9.687,0
0.309,3.645,0
0.31,4.743,0
0.311,11.701,0
0.312,-2.215,0
0.313,-8.257,0
0.314,-2.764,0
0.315,-1.116,0
0.316,-5.511,0
0.317,-1.482,0
0.318,-2.581,0
0.319,-1.482,0
0.32,-2.398,0
0.321,-5.145,0
0.322,-5.877,0
0.323,-3.68,0
0.324,-5.511,0
0.325,-4.961,0
0.326,-6.609,0
0.327,-5.328,0
0.328,-3.13,0
0.329,-5.145,0
0.33,-0.201,0
0.331,-2.032,0
0.332,-0.201,0
0.333,-0.75,0
0.334,0.532,0
0.335,1.813,0
0.336,1.447,0
0.337,0.349,0
0.338,-0.75,0
0.339,-0.567,0
0.34,-3.68,0
0.341,-1.666,0
0.342,1.813,0
0.343,1.447,0
0.344,-3.13,0
0.345,-2.581,0
0.346,1.264,0
0.347,-1.116,0
0.348,-1.482,0
0.349,3.095,0
0.35,-0.018,0
0.351,5.109,0
0.352,1.813,0
0.353,3.645,0
0.354,-1.482,0
0.355,-4.778,0
0.356,-2.947,0
0.357,-0.567,0
0.358,2.18,0
0.359,9.687,0
0.36,12.983,0
0.361,8.039,0
0.362,3.461,0
0.363,-0.567,0
0.364,-2.764,0
0.365,-3.313,0
0.366,-0.201,0
0.367,-2.947,0
0.368,-1.666,0
0.369,-2.032,0
0.37,-0.933,0
0.371,-3.497,0
0.372,-0.933,0
0.373,-1.116,0
0.374,-1.299,0
0.375,-1.116,0
0.376,0.349,0
0.377,-1.116,0
0.378,1.081,0
0.379,-2.032,0
0.38,-0.018,0
0.381,0.349,0
0.382,-2.215,0
0.383,-2.947,0
0.384,1.264,0
0.385,1.813,0
0.386,0.166,0
0.387,1.447,0
0.388,1.081,0
0.389,-0.933,0
0.39,0.898,0
0.391,-0.201,0
0.392,1.813,0
0.393,-0.75,0
0.394,1.081,0
0.395,0.898,0
0.396,1.081,0
0.397,4.011,0
0.398,1.447,0
0.399,1.081,0
0.4,-0.384,0
0.401,1.447,0
0.402,0.166,0
0.403,-1.299,0
0.404,0.166,0
0.405,1.081,0
0.406,0.166,0
0.407,0.898,0
0.408,4.56,0
0.409,2.546,0
0.41,-1.482,0
0.411,6.025,0
0.412,7.124,0
0.413,2.18,0
0.414,1.264,0
0.415,8.771,0
0.416,5.842,0
0.417,12.25,0
0.418,12.983,0
0.419,4.56,0
0.42,1.264,0
0.421,-1.666,0
0.422,-0.75,0
0.423,-3.13,0
0.424,-2.398,0
0.425,-1.849,0
0.426,-2.398,0
0.427,-2.947,0
0.428,-1.666,0
0.429,-2.032,0
0.43,-4.046,0
0.431,-2.947,0
0.432,-1.116,0
0.433,-1.299,0
0.434,2.363,0
0.435,-0.018,0
0.436,0.349,0
0.437,-0.018,0
0.438,-1.116,0
0.439,-0.018,0
0.44,-2.032,0
0.441,1.63,0
0.442,-1.666,0
0.443,-2.947,0
0.444,1.63,0
0.445,-1.482,0
0.446,-0.933,0
0.447,-1.299,0
0.448,-0.933,0
0.449,1.081,0
0.45,-0.018,0
0.451,0.349,0
0.452,-1.666,0
0.453,0.166,0
0.454,-2.215,0
0.455,-1.482,0
0.456,1.081,0
0.457,-3.68,0
0.458,-1.849,0
0.459,-2.032,0
0.46,-3.68,0
0.461,3.828,0
0.462,14.082,0
0.463,7.307,0
0.464,3.828,0
0.465,-1.849,0
0.466,-4.778,0
0.467,-0.201,0
0.468,-0.933,0
0.469,-1.666,0
0.47,-1.116,0
0.471,-1.666,0
0.472,-2.215,0
0.473,-1.849,0
0.474,-3.13,0
0.475,-4.229,0
0.476,-2.398,0
0.477,-3.497,0
0.478,-3.313,0
0.479,-5.145,0
0.48,-2.215,0
0.481,-1.849,0
0.482,-2.215,0
0.483,1.081,0
0.484,0.715,0
0.485,-0.384,0
0.486,-3.863,0
0.487,-1.666,0
0.488,-2.032,0
0.489,-3.13,0
0.49,0.166,0
0.491,-0.933,0
0.492,-2.032,0
0.493,-3.13,0
0.494,-0.384,0
0.495,0.715,0
0.496,-1.849,0
0.497,0.898,0
0.498,-0.201,0
0.499,0.166,0
0.5,1.63,0
0.501,-2.581,0
0.502,0.532,0
0.503,-1.116,0
0.504,-0.75,0
0.505,0.532,0
0.506,-1.482,0
0.507,-3.313,0
0.508,-5.145,0
0.509,-3.13,0
0.51,0.898,0
0.511,-0.933,0
0.512,3.095,0
0.513,5.842,0
0.514,11.335,0
0.515,4.377,0
0.516,-5.877,0
0.517,-1.849,0
0.518,-0.75,0
0.519,-1.849,0
0.52,-2.764,0
0.521,-1.849,0
0.522,-2.581,0
0.523,-1.849,0
0.524,-1.299,0
0.525,-0.75,0
0.526,-2.398,0
0.527,-1.116,0
0.528,-1.482,0
0.529,-1.116,0
0.53,-3.68,0
0.531,-1.116,0
0.532,0.349,0
0.533,-1.482,0
0.534,-2.764,0
0.535,0.715,0
0.536,1.081,0
0.537,-1.116,0
0.538,-3.13,0
0.539,-1.299,0
0.54,-0.201,0
0.541,-0.018,0
0.542,0.166,0
0.543,-0.567,0
0.544,1.63,0
0.545,-1.482,0
0.546,-1.116,0
0.547,-0.75,0
0.548,-1.116,0
0.549,-0.384,0
0.55,0.898,0
0.551,2.18,0
0.552,-1.299,0
0.553,-0.933,0
0.554,-0.567,0
0.555,0.532,0
0.556,0.166,0
0.557,0.532,0
0.558,-0.201,0
0.559,-0.384,0
0.56,3.645,0
0.561,2.363,0
0.562,0.715,0
0.563,8.222,0
0.564,4.926,0
0.565,11.884,0
0.566,7.307,0
0.567,-0.201,0
0.568,0.715,0
0.569,-0.201,0
0.57,0.532,0
0.571,-3.313,0
0.572,-1.482,0
0.573,-2.032,0
0.574,-1.482,0
0.575,-0.201,0
0.576,-1.482,0
0.577,-5.328,0
0.578,-2.032,0
0.579,-0.75,0
0.58,-2.764,0
0.581,-0.201,0
0.582,-2.764,0
0.583,-2.032,0
0.584,-0.201,0
0.585,-0.018,0
0.586,1.447,0
0.587,-0.567,0
0.588,-3.497,0
0.589,-3.13,0
0.59,0.166,0
0.591,-0.933,0
0.592,0.166,0
0.593,0.532,0
0.594,-0.201,0
0.595,-1.482,0
0.596,-1.299,0
0.597,1.813,0
0.598,1.447,0
0.599,1.081,0
0.6,2.18,0
0.601,0.715,0
0.602,-0.567,0
0.603,-1.849,0
0.604,-0.384,0
0.605,-1.482,0
0.606,-1.299,0
0.607,-2.947,0
0.608,0.349,0
0.609,0.715,0
0.61,0.349,0
0.611,-0.018,0
0.612,-4.961,0
0.613,-2.398,0
0.614,2.18,0
0.615,-5.328,0
0.616,9.87,0
0.617,7.673,0
0.618,-2.398,0
0.619,-0.567,0
0.62,-5.511,0
0.621,-4.046,0
0.622,-0.018,0
0.623,1.081,0
0.624,-4.595,0
0.625,0.349,0
0.626,-0.567,0
0.627,1.813,0
0.628,1.081,0
0.629,-2.215,0
0.63,-0.384,0
0.631,-2.032,0
0.632,-1.666,0
0.633,-1.299,0
0.634,-0.201,0
0.635,-1.299,0
0.636,-3.13,0
0.637,-2.398,0
0.638,-0.567,0
0.639,0.715,0
0.64,-1.482,0
0.641,0.349,0
0.642,-1.482,0
0.643,-2.947,0
0.644,-1.482,0
0.645,-2.032,0
0.646,0.715,0
0.647,-1.116,0
0.648,1.447,0
0.649,0.715,0
0.65,1.447,0
0.651,-2.581,0
0.652,-2.032,0
0.653,-1.666,0
0.654,-1.299,0
0.655,-2.398,0
0.656,1.813,0
0.657,3.461,0
0.658,4.743,0
0.659,1.63,0
0.66,1.997,0
0.661,2.363,0
0.662,-0.201,0
0.663,0.166,0
0.664,0.898,0
0.665,5.109,0
0.666,3.278,0
0.667,10.603,0
0.668,-4.595,0
0.669,-6.792,0
0.67,-0.75,0
0.671,1.081,0
0.672,-0.567,0
0.673,-2.032,0
0.674,-0.75,0
0.675,-1.849,0
0.676,-2.947,0
0.677,-0.018,0
0.678,-0.933,0
0.679,-1.666,0
0.68,-2.398,0
0.681,-1.849,0
0.682,-2.398,0
0.683,-0.75,0
0.684,-3.13,0
0.685,-0.933,0
0.686,-2.032,0
0.687,1.447,0
0.688,-0.75,0
0.689,-2.764,0
0.69,-0.201,0
0.691,-0.567,0
0.692,0.898,0
0.693,1.081,0
0.694,0.349,0
0.695,2.912,0
0.696,2.546,0
0.697,-1.482,0
0.698,-0.933,0
0.699,-2.215,0
0.7,-0.933,0
0.701,0.166,0
0.702,-0.933,0
0.703,-2.032,0
0.704,-1.849,0
0.705,-0.567,0
0.706,0.715,0
0.707,0.166,0
0.708,-0.384,0
0.709,2.546,0
0.71,-0.201,0
0.711,-0.567,0
0.712,-2.398,0
0.713,-3.13,0
0.714,0.898,0
0.715,1.081,0
0.716,5.109,0
0.717,4.56,0
0.718,4.194,0
0.719,10.236,0
0.72,12.617,0
0.721,1.081,0
0.722,-0.567,0
0.723,-2.032,0
0.724,-0.75,0
0.725,-1.849,0
0.726,-2.947,0
0.727,-0.018,0
0.728,-4.595,0
0.729,-2.215,0
0.73,-2.947,0
0.731,-1.116,0
0.732,-0.567,0
0.733,-4.412,0
0.734,0.166,0
0.735,-1.666,0
0.736,-1.116,0
0.737,-2.398,0
0.738,-2.764,0
0.739,-1.666,0
0.74,0.166,0
0.741,-2.398,0
0.742,-2.581,0
0.743,1.63,0
0.744,2.18,0
0.745,2.729,0
0.746,3.095,0
0.747,-0.018,0
0.748,2.729,0
0.749,0.898,0
0.75,2.729,0
0.751,2.546,0
0.752,-1.116,0
0.753,-2.398,0
0.754,-2.764,0
0.755,-2.398,0
0.756,-0.567,0
0.757,-1.666,0
0.758,0.349,0
0.759,1.081,0
0.76,0.349,0
0.761,0.898,0
0.762,2.363,0
0.763,-0.567,0
0.764,-0.201,0
0.765,2.363,0
0.766,-0.201,0
0.767,2.363,0
0.768,3.095,0
0.769,4.377,0
0.77,0.349,0
0.771,8.771,0
0.772,2.729,0
0.773,-0.567,0
0.774,-1.482,0
0.775,-0.567,0
0.776,0.166,0
0.777,-2.032,0
0.778,-0.201,0
0.779,-0.75,0
0.78,-1.299,0
0.781,-3.68,0
0.782,-2.398,0
0.783,-1.299,0
0.784,-3.863,0
0.785,-4.229,0
0.786,-0.933,0
0.787,-3.13,0
0.788,-2.032,0
0.789,-4.595,0
0.79,-1.299,0
0.791,1.447,0
0.792,-1.116,0
0.793,-0.75,0
0.794,-0.567,0
0.795,-1.849,0
0.796,-1.116,0
0.797,-2.215,0
0.798,-0.75,0
0.799,-2.032,0
0.8,0.349,0
0.801,-1.666,0
0.802,-3.497,0
0.803,-2.215,0
0.804,0.898,0
0.805,-2.947,0
0.806,-2.581,0
0.807,-3.863,0
0.808,-2.764,0
0.809,-0.933,0
0.81,0.166,0
0.811,0.898,0
0.812,5.109,0
0.813,0.715,0
0.814,1.264,0
0.815,1.63,0
0.816,0.166,0
0.817,0.532,0
0.818,6.757,0
0.819,11.335,0
0.82,12.067,0
0.821,5.109,0
0.822,0.532,0
0.823,-3.497,0
0.824,-2.764,0
0.825,-4.595,0
0.826,-0.201,0
0.827,-1.849,0
0.828,-1.482,0
0.829,-0.201,0
0.83,-2.215,0
0.831,0.349,0
0.832,1.447,0
0.833,-0.018,0
0.834,-1.849,0
0.835,-2.581,0
0.836,-2.032,0
0.837,-1.482,0
0.838,-1.299,0
0.839,1.447,0
0.84,-2.764,0
0.841,-2.215,0
0.842,-0.933,0
0.843,0.349,0
0.844,0.715,0
0.845,1.081,0
0.846,0.715,0
0.847,-0.75,0
0.848,-1.482,0
0.849,-3.313,0
0.85,-4.778,0
0.851,-1.482,0
0.852,-0.201,0
0.853,2.546,0
0.854,-2.398,0
0.855,-1.849,0
0.856,-0.018,0
0.857,-1.666,0
0.858,-1.299,0
0.859,-0.933,0
0.86,-3.68,0
0.861,0.532,0
0.862,2.18,0
0.863,-0.201,0
0.864,1.081,0
0.865,-0.018,0
0.866,-1.116,0
0.867,1.63,0
0.868,-0.201,0
0.869,4.377,0
0.87,3.828,0
0.871,1.997,0
0.872,10.419,0
0.873,9.321,0
0.874,-7.708,0
0.875,-5.328,0
0.876,-3.13,0
0.877,-1.116,0
0.878,-2.947,0
0.879,-1.299,0
0.88,-2.764,0
0.881,1.264,0
0.882,2.363,0
0.883,-3.313,0
0.884,-2.398,0
0.885,-1.482,0
0.886,-0.75,0
0.887,-2.947,0
0.888,-4.778,0
0.889,-1.666,0
0.89,-0.018,0
0.891,-1.299,0
0.892,-0.933,0
0.893,-1.299,0
0.894,0.532,0
0.895,-2.764,0
0.896,-0.75,0
0.897,1.081,0
0.898,-3.68,0
0.899,-1.849,0
0.9,-2.398,0
0.901,-0.018,0
0.902,2.18,0
0.903,4.926,0
0.904,-0.75,0
0.905,1.63,0
0.906,0.898,0
0.907,-0.933,0
0.908,-0.384,0
0.909,-2.032,0
0.91,0.349,0
0.911,0.715,0
0.912,3.461,0
0.913,2.363,0
0.914,5.659,0
0.915,3.645,0
0.916,1.813,0
0.917,2.912,0
0.918,-1.299,0
0.919,-3.313,0
0.92,0.898,0
0.921,10.419,0
0.922,6.391,0
0.923,2.912,0
0.924,-4.961,0
0.925,-0.018,0
0.926,-2.764,0
0.927,-0.384,0
0.928,-1.116,0
0.929,-0.567,0
0.93,-0.018,0
0.931,-1.666,0
0.932,-2.947,0
0.933,-1.666,0
0.934,2.18,0
0.935,5.476,0
0.936,2.363,0
0.937,1.264,0
0.938,-1.299,0
0.939,-3.13,0
0.94,-2.947,0
0.941,-4.229,0
0.942,-3.497,0
0.943,-2.032,0
0.944,-3.497,0
0.945,-3.313,0
0.946,-2.032,0
0.947,-2.764,0
0.948,-2.032,0
0.949,-2.032,0
0.95,-2.032,0
0.951,-0.018,0
0.952,-1.116,0
0.953,-2.581,0
0.954,-1.849,0
0.955,-0.567,0
0.956,-3.68,0
0.957,-1.666,0
0.958,-0.567,0
0.959,1.997,0
0.96,1.813,0
0.961,1.081,0
0.962,0.898,0
0.963,-1.299,0
0.964,2.912,0
0.965,-1.482,0
0.966,3.645,0
0.967,-0.933,0
0.968,-1.482,0
0.969,-0.567,0
0.97,2.18,0
0.971,9.687,0
0.972,6.391,0
0.973,11.335,0
0.974,4.926,0
0.975,-5.877,0
0.976,-1.482,0
0.977,-5.511,0
0.978,-6.609,0
0.979,-5.511,0
0.98,-6.426,0
0.981,-1.849,0
0.982,0.532,0
0.983,1.264,0
0.984,1.813,0
0.985,3.645,0
0.986,1.997,0
0.987,1.63,0
0.988,1.264,0
0.989,-4.229,0
0.99,-3.497,0
0.991,-0.201,0
0.992,-2.032,0
0.993,-1.482,0
0.994,4.011,0
0.995,3.278,0
0.996,1.447,0
0.997,0.898,0
0.998,-2.947,0
0.999,-1.666,0
1,-3.863,0
1.001,-4.961,0
1.002,-3.13,0
1.003,-3.497,0
1.004,-6.243,0
1.005,-4.412,0
1.006,-4.778,0
1.007,-2.032,0
1.008,-3.13,0
1.009,0.166,0
1.01,4.011,0
1.011,0.715,0
1.012,2.912,0
1.013,0.898,0
1.014,-0.933,0
1.015,0.166,0
1.016,-0.567,0
1.017,0.166,0
1.018,-0.567,0
1.019,-1.116,0
1.02,0.166,0
1.021,-2.215,0
1.022,2.363,0
1.023,5.659,0
1.024,13.898,0
1.025,8.222,0
1.026,1.264,0
1.027,2.18,0
1.028,1.447,0
1.029,5.292,0
1.03,4.743,0
1.031,7.856,0
1.032,9.504,0
1.033,12.8,0
1.034,14.082,0
1.035,16.096,0
1.036,14.997,0
1.037,17.561,0
1.038,14.265,0
1.039,12.983,0
1.04,10.969,0
1.041,6.757,0
1.042,4.011,0
1.043,-0.567,0
1.044,-10.088,0
1.045,-19.61,0
1.046,-23.089,0
1.047,-26.385,0
1.048,-27.3,0
1.049,-26.385,0
1.05,-18.877,0
1.051,-5.694,0
1.052,-0.201,0
1.053,-15.215,0
1.054,-33.343,0
1.055,-45.428,0
1.056,-74.175,0
1.057,-101.64,0
1.058,-119.4,0
1.059,-128.92,0
1.06,-137.71,0
1.061,-151.08,0
1.062,-148.7,0
1.063,-128.74,0
1.064,-104.57,0
1.065,-88.458,0
1.066,-67.767,0
1.067,-27.483,0
1.068,59.125,0
1.069,121.38,0
1.07,155.07,0
1.071,152.51,0
1.072,142.25,0
1.073,132.92,0
1.074,107.65,0
1.075,130.72,0
1.076,123.76,0
1.077,104.9,0
1.078,122.11,0
1.079,116.99,0
1.08,121.75,0
1.081,108.93,0
1.082,89.338,0
1.083,64.436,0
1.084,54.914,0
1.085,63.703,0
1.086,71.577,0
1.087,64.436,0
1.088,49.055,0
1.089,30.927,0
1.09,18.842,0
1.091,16.645,0
1.092,10.603,0
1.093,12.434,0
1.094,4.194,0
1.095,-3.313,0
1.096,-12.835,0
1.097,-26.385,0
1.098,-35.54,0
1.099,-37.188,0
1.1,-41.583,0
1.101,-48.357,0
1.102,-56.78,0
1.103,-57.879,0
1.104,-54.949,0
1.105,-50.372,0
1.106,-52.752,0
1.107,-58.062,0
1.108,-57.513,0
1.109,-54.4,0
1.11,-58.245,0
1.111,-53.667,0
1.112,-54.217,0
1.113,-52.569,0
1.114,-52.203,0
1.115,-46.16,0
1.116,-40.484,0
1.117,-38.287,0
1.118,-33.709,0
1.119,-34.258,0
1.12,-30.413,0
1.121,-30.779,0
1.122,-26.202,0
1.123,-23.089,0
1.124,-16.863,0
1.125,-2.947,0
1.126,3.095,0
1.127,-2.398,0
1.128,-4.046,0
1.129,-2.581,0
1.13,4.194,0
1.131,0.715,0
1.132,-0.384,0
1.133,0.532,0
1.134,-2.215,0
1.135,0.166,0
1.136,2.363,0
1.137,2.912,0
1.138,3.461,0
1.139,7.307,0
1.14,4.011,0
1.141,7.124,0
1.142,4.377,0
1.143,6.94,0
1.144,8.771,0
1.145,6.025,0
1.146,3.461,0
1.147,2.363,0
1.148,4.377,0
1.149,8.039,0
1.15,3.461,0
1.151,6.574,0
1.152,3.828,0
1.153,7.124,0
1.154,4.926,0
1.155,9.504,0
1.156,10.053,0
1.157,6.208,0
1.158,5.842,0
1.159,7.124,0
1.16,6.025,0
1.161,6.391,0
1.162,6.757,0
1.163,5.292,0
1.164,1.081,0
1.165,2.912,0
1.166,3.461,0
1.167,6.757,0
1.168,2.546,0
1.169,1.997,0
1.17,4.377,0
1.171,3.095,0
1.172,1.081,0
1.173,1.63,0
1.174,-0.201,0
1.175,5.292,0
1.176,16.828,0
1.177,11.884,0
1.178,7.49,0
1.179,3.461,0
1.18,6.94,0
1.181,1.264,0
1.182,4.194,0
1.183,1.447,0
1.184,-0.933,0
1.185,-1.666,0
1.186,1.63,0
1.187,1.081,0
1.188,-1.666,0
1.189,-2.032,0
1.19,1.081,0
1.191,-1.666,0
1.192,1.813,0
1.193,-0.384,0
1.194,-1.482,0
1.195,-1.116,0
1.196,-1.482,0
1.197,1.813,0
1.198,-0.384,0
1.199,4.194,0
1.2,-1.482,0
1.201,3.828,0
1.202,-2.398,0
1.203,-1.666,0
1.204,-0.933,0
1.205,-1.482,0
1.206,0.349,0
1.207,-2.398,0
1.208,-2.764,0
1.209,-0.567,0
1.21,0.532,0
1.211,0.898,0
1.212,-0.201,0
1.213,-0.384,0
1.214,0.898,0
1.215,2.18,0
1.216,0.715,0
1.217,-0.75,0
1.218,-0.567,0
1.219,-2.215,0
1.22,-2.764,0
1.221,-0.567,0
1.222,-1.299,0
1.223,-0.567,0
1.224,-3.497,0
1.225,-0.384,0
1.226,5.842,0
1.227,3.095,0
1.228,8.771,0
1.229,15.729,0
1.23,1.813,0
1.231,-8.257,0
1.232,-2.764,0
1.233,-1.116,0
1.234,-2.581,0
1.235,-3.863,0
1.236,-0.384,0
1.237,-3.68,0
1.238,-4.595,0
1.239,-7.342,0
1.24,-1.666,0
1.241,-3.863,0
1.242,-2.032,0
1.243,-1.482,0
1.244,-6.609,0
1.245,-4.778,0
1.246,-0.384,0
1.247,-0.933,0
1.248,-2.215,0
1.249,-1.849,0
1.25,0.898,0
1.251,-4.778,0
1.252,-0.75,0
1.253,-2.947,0
1.254,-2.398,0
1.255,-0.567,0
1.256,-3.313,0
1.257,-0.933,0
1.258,0.349,0
1.259,-0.018,0
1.26,-1.116,0
1.261,-1.482,0
1.262,-2.215,0
1.263,-1.482,0
1.264,0.349,0
1.265,-0.75,0
1.266,-1.299,0
1.267,-1.116,0
1.268,-1.299,0
1.269,-2.032,0
1.27,-2.032,0
1.271,-1.299,0
1.272,-2.032,0
1.273,-2.764,0
1.274,-0.75,0
1.275,0.898,0
1.276,-0.201,0
1.277,4.377,0
1.278,6.208,0
1.279,4.377,0
1.28,12.8,0
1.281,6.757,0
1.282,-1.116,0
1.283,-4.046,0
1.284,-3.13,0
1.285,-2.398,0
1.286,-6.243,0
1.287,-6.792,0
1.288,-6.243,0
1.289,-3.497,0
1.29,-3.13,0
1.291,-2.764,0
1.292,-2.398,0
1.293,-4.961,0
1.294,-3.13,0
1.295,-1.116,0
1.296,0.715,0
1.297,1.447,0
1.298,-0.75,0
1.299,-2.581,0
1.3,0.349,0
1.301,1.447,0
1.302,-0.384,0
1.303,-1.849,0
1.304,-4.961,0
1.305,-3.863,0
1.306,-2.764,0
1.307,-0.933,0
1.308,-1.116,0
1.309,2.546,0
1.31,-0.75,0
1.311,-1.116,0
1.312,2.729,0
1.313,2.363,0
1.314,-0.75,0
1.315,5.476,0
1.316,0.898,0
1.317,1.63,0
1.318,-0.567,0
1.319,-2.398,0
1.32,-4.229,0
1.321,-0.384,0
1.322,0.898,0
1.323,0.532,0
1.324,0.898,0
1.325,-1.666,0
1.326,-0.567,0
1.327,-2.398,0
1.328,2.18,0
1.329,-1.116,0
1.33,8.405,0
1.331,7.124,0
1.332,-1.299,0
1.333,-0.201,0
1.334,0.715,0
1.335,-3.863,0
1.336,-1.482,0
1.337,-2.215,0
1.338,-0.384,0
1.339,-2.215,0
1.34,-1.666,0
1.341,-2.032,0
1.342,1.081,0
1.343,-0.933,0
1.344,-2.764,0
1.345,-0.933,0
1.346,-0.201,0
1.347,-1.482,0
1.348,-0.75,0
1.349,-2.947,0
1.35,-2.215,0
1.351,-2.032,0
1.352,-1.849,0
1.353,1.447,0
1.354,-1.666,0
1.355,-1.299,0
1.356,-0.933,0
1.357,-1.299,0
1.358,-0.567,0
1.359,-1.299,0
1.36,-0.567,0
1.361,-2.032,0
1.362,-1.482,0
1.363,1.447,0
1.364,1.081,0
1.365,2.18,0
1.366,4.011,0
1.367,0.715,0
1.368,1.997,0
1.369,1.63,0
1.37,0.532,0
1.371,2.363,0
1.372,0.349,0
1.373,-0.384,0
1.374,0.898,0
1.375,2.363,0
1.376,0.898,0
1.377,1.63,0
1.378,2.546,0
1.379,5.292,0
1.38,4.194,0
1.381,9.687,0
1.382,13.532,0
1.383,6.025,0
1.384,1.081,0
1.385,0.166,0
1.386,-0.567,0
1.387,-2.764,0
1.388,-2.215,0
1.389,-4.046,0
1.39,-2.398,0
1.391,-4.778,0
1.392,-4.412,0
1.393,-1.666,0
1.394,4.011,0
1.395,4.743,0
1.396,-0.567,0
1.397,1.264,0
1.398,-0.567,0
1.399,-0.018,0
1.4,0.349,0
1.401,-0.933,0
1.402,-2.947,0
1.403,-0.384,0
1.404,-5.877,0
1.405,-2.032,0
1.406,-1.482,0
1.407,0.349,0
1.408,-1.299,0
1.409,-0.933,0
1.41,-2.215,0
1.411,1.63,0
1.412,0.349,0
1.413,-0.933,0
1.414,-2.947,0
1.415,-3.313,0
1.416,-2.947,0
1.417,-0.933,0
1.418,0.349,0
1.419,-2.032,0
1.42,-0.567,0
1.421,0.166,0
1.422,-3.313,0
1.423,-1.116,0
1.424,-1.482,0
1.425,-2.581,0
1.426,-0.75,0
1.427,-0.567,0
1.428,-3.497,0
1.429,-0.384,0
1.43,4.194,0
1.431,4.743,0
1.432,13.166,0
1.433,7.124,0
1.434,3.828,0
1.435,-3.13,0
1.436,-0.384,0
1.437,-2.764,0
1.438,-3.497,0
1.439,-5.328,0
1.44,-2.215,0
1.441,-1.666,0
1.442,-0.384,0
1.443,-2.581,0
1.444,-0.567,0
1.445,-5.511,0
1.446,-0.933,0
1.447,0.898,0
1.448,0.349,0
1.449,-0.933,0
1.45,2.18,0
1.451,-2.398,0
1.452,1.997,0
1.453,-3.13,0
1.454,-4.961,0
1.455,-0.567,0
1.456,-4.412,0
1.457,-2.032,0
1.458,-4.229,0
1.459,-0.384,0
1.46,-4.961,0
1.461,-1.849,0
1.462,-1.299,0
1.463,1.997,0
1.464,-3.13,0
1.465,1.447,0
1.466,-1.666,0
1.467,-0.018,0
1.468,0.349,0
1.469,-3.863,0
1.47,-0.018,0
1.471,0.349,0
1.472,-0.933,0
1.473,-0.567,0
1.474,1.264,0
1.475,-0.567,0
1.476,0.898,0
1.477,2.18,0
1.478,-1.299,0
1.479,0.898,0
1.48,2.18,0
1.481,4.194,0
1.482,7.673,0
1.483,10.786,0
1.484,11.884,0
1.485,6.208,0
1.486,-1.299,0
1.487,-4.229,0
1.488,-1.482,0
1.489,-5.511,0
1.49,-6.243,0
1.491,-2.947,0
1.492,-1.116,0
1.493,-2.764,0
1.494,-1.482,0
1.495,-0.201,0
1.496,-0.567,0
1.497,-3.13,0
1.498,0.166,0
1.499,-0.933,0
1.5,-2.764,0
1.501,-0.201,0
1.502,-0.933,0
1.503,-5.145,0
1.504,-0.75,0
1.505,-1.299,0
1.506,-0.933,0
1.507,-0.567,0
1.508,0.532,0
1.509,0.166,0
1.51,0.532,0
1.511,-1.482,0
1.512,1.081,0
1.513,-1.482,0
1.514,-2.947,0
1.515,0.715,0
1.516,1.081,0
1.517,1.447,0
1.518,-3.13,0
1.519,-0.018,0
1.52,-3.863,0
1.521,-2.581,0
1.522,0.532,0
1.523,0.166,0
1.524,-0.933,0
1.525,3.095,0
1.526,1.813,0
1.527,0.532,0
1.528,-4.046,0
1.529,-2.215,0
1.53,-0.567,0
1.531,-1.116,0
1.532,-4.412,0
1.533,2.546,0
1.534,1.63,0
1.535,13.715,0
1.536,-4.595,0
1.537,-6.976,0
1.538,-4.778,0
1.539,-2.764,0
1.54,-0.933,0
1.541,-2.581,0
1.542,-1.116,0
1.543,-2.398,0
1.544,-3.497,0
1.545,-2.398,0
1.546,-1.482,0
1.547,-2.398,0
1.548,-4.778,0
1.549,-0.933,0
1.55,-0.384,0
1.551,-2.215,0
1.552,-0.567,0
1.553,-2.947,0
1.554,-1.666,0
1.555,-2.032,0
1.556,-0.201,0
1.557,-0.567,0
1.558,0.166,0
1.559,1.447,0
1.56,-2.032,0
1.561,-1.666,0
1.562,0.349,0
1.563,-0.018,0
1.564,1.081,0
1.565,2.546,0
1.566,-0.018,0
1.567,-0.384,0
1.568,-1.849,0
1.569,0.715,0
1.57,-4.778,0
1.571,-2.581,0
1.572,-0.75,0
1.573,-2.581,0
1.574,-2.032,0
1.575,1.264,0
1.576,-1.849,0
1.577,-2.215,0
1.578,-1.849,0
1.579,-1.482,0
1.58,0.532,0
1.581,0.166,0
1.582,-1.116,0
1.583,2.912,0
1.584,11.335,0
1.585,12.434,0
1.586,4.56,0
1.587,-2.398,0
1.588,0.349,0
1.589,-5.328,0
1.59,-1.482,0
1.591,-0.933,0
1.592,2.18,0
1.593,-0.567,0
1.594,0.715,0
1.595,1.997,0
1.596,2.363,0
1.597,-1.849,0
1.598,-0.201,0
1.599,-1.482,0
1.6,-1.849,0
1.601,-2.215,0
1.602,1.264,0
1.603,-2.947,0
1.604,-2.398,0
1.605,-1.116,0
1.606,0.166,0
1.607,-2.581,0
1.608,-2.215,0
1.609,-4.778,0
1.61,-1.482,0
1.611,-0.201,0
1.612,-2.947,0
1.613,1.264,0
1.614,0.715,0
1.615,4.011,0
1.616,1.813,0
1.617,-0.933,0
1.618,-0.567,0
1.619,0.532,0
1.62,-1.482,0
1.621,1.081,0
1.622,-1.482,0
1.623,-3.497,0
1.624,-1.666,0
1.625,-0.384,0
1.626,-2.947,0
1.627,-1.849,0
1.628,-3.313,0
1.629,0.349,0
1.63,1.63,0
1.631,1.997,0
1.632,2.363,0
1.633,-0.384,0
1.634,-2.947,0
1.635,-2.581,0
1.636,-3.313,0
1.637,-1.482,0
1.638,-1.299,0
1.639,-2.764,0
1.64,0.532,0
1.641,2.729,0
1.642,1.63,0
1.643,-0.933,0
1.644,4.56,0
1.645,14.631,0
1.646,13.349,0
1.647,4.926,0
1.648,-2.947,0
1.649,-3.863,0
1.65,-2.947,0
1.651,-5.328,0
1.652,-1.482,0
1.653,-2.032,0
1.654,-5.145,0
1.655,-2.398,0
1.656,-1.116,0
1.657,0.166,0
1.658,-0.933,0
1.659,0.898,0
1.66,1.997,0
1.661,1.264,0
1.662,-0.567,0
1.663,-0.384,0
1.664,2.18,0
1.665,1.081,0
1.666,-0.933,0
1.667,-2.764,0
1.668,-0.384,0
1.669,-0.567,0
1.67,-2.398,0
1.671,-4.229,0
1.672,-0.75,0
1.673,-2.032,0
1.674,-4.229,0
1.675,-3.863,0
1.676,1.081,0
1.677,1.63,0
1.678,-1.482,0
1.679,2.363,0
1.68,2.729,0
1.681,4.011,0
1.682,0.166,0
1.683,2.363,0
1.684,1.997,0
1.685,8.955,0
1.686,6.025,0
1.687,12.434,0
1.688,6.757,0
1.689,4.56,0
1.69,-2.947,0
1.691,-0.018,0
1.692,-0.933,0
1.693,-3.313,0
1.694,-4.046,0
1.695,-2.215,0
1.696,-1.666,0
1.697,-2.215,0
1.698,1.081,0
1.699,-3.13,0
1.7,-4.778,0
1.701,-6.06,0
1.702,-2.947,0
1.703,-3.313,0
1.704,-3.68,0
1.705,-3.313,0
1.706,-3.497,0
1.707,-1.666,0
1.708,-1.482,0
1.709,1.997,0
1.71,2.363,0
1.711,1.081,0
1.712,3.095,0
1.713,1.264,0
1.714,0.166,0
1.715,0.898,0
1.716,0.166,0
1.717,-0.567,0
1.718,-0.018,0
1.719,-3.313,0
1.72,-1.116,0
1.721,0.898,0
1.722,1.264,0
1.723,1.63,0
1.724,1.813,0
1.725,-0.018,0
1.726,-1.849,0
1.727,-2.032,0
1.728,-2.581,0
1.729,0.349,0
1.73,-2.398,0
1.731,1.081,0
1.732,0.715,0
1.733,-1.299,0
1.734,2.363,0
1.735,-3.313,0
1.736,9.138,0
1.737,3.645,0
1.738,8.588,0
1.739,7.124,0
1.74,-2.398,0
1.741,1.081,0
1.742,2.18,0
1.743,1.264,0
1.744,-5.145,0
1.745,-1.116,0
1.746,-3.313,0
1.747,-1.482,0
1.748,0.349,0
1.749,-2.398,0
1.75,-2.764,0
1.751,-2.398,0
1.752,-0.384,0
1.753,-4.595,0
1.754,-2.947,0
1.755,-2.581,0
1.756,-3.863,0
1.757,-3.497,0
1.758,-0.933,0
1.759,-2.032,0
1.76,-1.849,0
1.761,-0.567,0
1.762,2.912,0
1.763,3.278,0
1.764,0.532,0
1.765,0.166,0
1.766,0.532,0
1.767,-2.215,0
1.768,-2.581,0
1.769,-2.215,0
1.77,-0.75,0
1.771,-2.032,0
1.772,-0.75,0
1.773,0.715,0
1.774,0.166,0
1.775,-0.75,0
1.776,0.898,0
1.777,-0.567,0
1.778,-2.764,0
1.779,-2.581,0
1.78,1.447,0
1.781,1.997,0
1.782,0.715,0
1.783,1.081,0
1.784,-1.666,0
1.785,0.166,0
1.786,2.729,0
1.787,8.222,0
1.788,-3.313,0
1.789,11.701,0
1.79,5.659,0
1.791,7.49,0
1.792,2.546,0
1.793,10.053,0
1.794,6.025,0
1.795,2.546,0
1.796,-3.13,0
1.797,-2.215,0
1.798,-3.13,0
1.799,-2.398,0
1.8,-1.666,0
1.801,-2.215,0
1.802,-4.046,0
1.803,-5.694,0
1.804,-2.398,0
1.805,-3.68,0
1.806,-4.778,0
1.807,-4.412,0
1.808,-4.778,0
1.809,-2.764,0
1.81,-5.877,0
1.811,-3.13,0
1.812,-2.764,0
1.813,1.997,0
1.814,2.546,0
1.815,-2.581,0
1.816,0.715,0
1.817,1.264,0
1.818,-0.384,0
1.819,-0.018,0
1.82,0.349,0
1.821,-3.497,0
1.822,-0.201,0
1.823,0.166,0
1.824,-0.933,0
1.825,-1.299,0
1.826,-0.933,0
1.827,-0.201,0
1.828,2.363,0
1.829,1.264,0
1.83,5.292,0
1.831,3.645,0
1.832,2.363,0
1.833,2.729,0
1.834,-0.018,0
1.835,4.194,0
1.836,3.095,0
1.837,-0.75,0
1.838,6.757,0
1.839,-3.497,0
1.84,8.771,0
1.841,3.828,0
1.842,-0.567,0
1.843,-1.849,0
1.844,-0.75,0
1.845,-1.849,0
1.846,1.081,0
1.847,1.997,0
1.848,1.264,0
1.849,0.532,0
1.85,1.081,0
1.851,-0.75,0
1.852,-5.877,0
1.853,-1.299,0
1.854,-0.75,0
1.855,-2.398,0
1.856,-3.68,0
1.857,-4.046,0
1.858,-2.947,0
1.859,-4.046,0
1.86,-3.68,0
1.861,-4.412,0
1.862,-0.75,0
1.863,-5.328,0
1.864,-2.215,0
1.865,-0.567,0
1.866,0.715,0
1.867,-3.497,0
1.868,-0.75,0
1.869,-2.032,0
1.87,-3.313,0
1.871,-5.328,0
1.872,-1.849,0
1.873,-3.13,0
1.874,-2.032,0
1.875,-0.201,0
1.876,0.166,0
1.877,-2.581,0
1.878,-3.68,0
1.879,1.813,0
1.88,1.081,0
1.881,0.532,0
1.882,3.645,0
1.883,1.997,0
1.884,-1.299,0
1.885,-1.666,0
1.886,4.56,0
1.887,3.095,0
1.888,-1.482,0
1.889,2.546,0
1.89,1.813,0
1.891,1.264,0
1.892,10.786,0
1.893,-1.482,0
1.894,10.053,0
1.895,2.546,0
1.896,-4.229,0
1.897,-3.13,0
1.898,-4.229,0
1.899,-1.299,0
1.9,-2.215,0
1.901,1.813,0
1.902,1.081,0
1.903,-3.497,0
1.904,-2.947,0
1.905,-3.497,0
1.906,-3.863,0
1.907,1.264,0
1.908,-2.032,0
1.909,-1.482,0
1.91,3.645,0
1.911,-0.933,0
1.912,-0.384,0
1.913,0.166,0
1.914,-0.201,0
1.915,-0.567,0
1.916,-0.201,0
1.917,-3.68,0
1.918,-2.398,0
1.919,-1.299,0
1.92,-0.201,0
1.921,0.166,0
1.922,-0.567,0
1.923,-2.398,0
1.924,-2.215,0
1.925,-1.116,0
1.926,-1.299,0
1.927,-0.384,0
1.928,-2.032,0
1.929,0.349,0
1.93,1.081,0
1.931,2.912,0
1.932,2.18,0
1.933,-0.018,0
1.934,1.813,0
1.935,1.081,0
1.936,-0.018,0
1.937,-2.032,0
1.938,0.898,0
1.939,-1.482,0
1.94,3.095,0
1.941,-1.482,0
1.942,8.039,0
1.943,4.011,0
1.944,-4.412,0
1.945,1.264,0
1.946,2.18,0
1.947,3.095,0
1.948,8.771,0
1.949,9.504,0
1.95,10.053,0
1.951,14.448,0
1.952,13.898,0
1.953,19.392,0
1.954,20.124,0
1.955,19.575,0
1.956,12.617,0
1.957,11.701,0
1.958,9.321,0
1.959,10.053,0
1.96,9.504,0
1.961,-0.018,0
1.962,-12.286,0
1.963,-13.934,0
1.964,-18.328,0
1.965,-27.85,0
1.966,-28.948,0
1.967,-30.047,0
1.968,-20.892,0
1.969,-12.469,0
1.97,-9.173,0
1.971,-2.215,0
1.972,-12.469,0
1.973,-24.737,0
1.974,-46.343,0
1.975,-73.077,0
1.976,-90.838,0
1.977,-126.54,0
1.978,-140.83,0
1.979,-145.04,0
1.98,-148.88,0
1.981,-138.26,0
1.982,-128.74,0
1.983,-113.91,0
1.984,-73.626,0
1.985,-21.624,0
1.986,69.563,0
1.987,131.82,0
1.988,142.99,0
1.989,139.33,0
1.99,129.07,0
1.991,119.73,0
1.992,94.465,0
1.993,102.16,0
1.994,95.197,0
1.995,88.972,0
1.996,71.76,0
1.997,76.887,0
1.998,81.647,0
1.999,85.859,0
2,82.014,0
2.001,71.394,0
2.002,80.915,0
2.003,83.845,0
2.004,86.408,0
2.005,93.549,0
2.006,86.958,0
2.007,72.858,0
2.008,49.055,0
2.009,32.941,0
2.01,30.012,0
2.011,22.138,0
2.012,24.519,0
2.013,13.532,0
2.014,3.461,0
2.015,-13.018,0
2.016,-24.004,0
2.017,-34.075,0
2.018,-43.23,0
2.019,-44.878,0
2.02,-52.386,0
2.021,-56.414,0
2.022,-57.513,0
2.023,-54.217,0
2.024,-53.301,0
2.025,-50.555,0
2.026,-51.287,0
2.027,-50.555,0
2.028,-52.386,0
2.029,-54.217,0
2.03,-53.667,0
2.031,-52.386,0
2.032,-50.188,0
2.033,-49.09,0
2.034,-43.414,0
2.035,-42.681,0
2.036,-40.484,0
2.037,-37.188,0
2.038,-35.357,0
2.039,-29.131,0
2.04,-26.202,0
2.041,-22.173,0
2.042,-10.638,0
2.043,-8.99,0
2.044,-7.525,0
2.045,4.743,0
2.046,3.095,0
2.047,-1.299,0
2.048,-8.074,0
2.049,-4.595,0
2.05,-1.299,0
2.051,1.63,0
2.052,0.715,0
2.053,-0.018,0
2.054,0.715,0
2.055,4.011,0
2.056,0.898,0
2.057,2.546,0
2.058,4.926,0
2.059,4.56,0
2.06,5.659,0
2.061,6.025,0
2.062,6.391,0
2.063,6.574,0
2.064,4.011,0
2.065,5.842,0
2.066,6.025,0
2.067,6.208,0
2.068,6.94,0
2.069,3.828,0
2.07,6.574,0
2.071,4.743,0
2.072,2.912,0
2.073,4.377,0
2.074,6.94,0
2.075,6.574,0
2.076,7.307,0
2.077,5.476,0
2.078,6.757,0
2.079,6.208,0
2.08,7.673,0
2.081,4.743,0
2.082,4.377,0
2.083,3.278,0
2.084,5.109,0
2.085,3.645,0
2.086,2.912,0
2.087,-0.018,0
2.088,2.546,0
2.089,0.715,0
2.09,-1.299,0
2.091,0.898,0
2.092,4.011,0
2.093,10.236,0
2.094,7.49,0
2.095,14.997,0
2.096,8.039,0
2.097,-5.877,0
2.098,4.194,0
2.099,9.687,0
2.1,1.447,0
2.101,-0.018,0
2.102,1.264,0
2.103,0.166,0
2.104,-3.13,0
2.105,-4.046,0
2.106,-1.299,0
2.107,-3.68,0
2.108,-1.482,0
2.109,3.095,0
2.11,2.546,0
2.111,0.898,0
2.112,-2.398,0
2.113,0.715,0
2.114,-0.384,0
2.115,1.447,0
2.116,3.278,0
2.117,-0.75,0
2.118,-3.497,0
2.119,-0.201,0
2.12,-2.398,0
2.121,-6.243,0
2.122,1.264,0
2.123,-2.032,0
2.124,-1.116,0
2.125,-2.032,0
2.126,-1.299,0
2.127,0.898,0
2.128,1.447,0
2.129,-1.666,0
2.13,2.18,0
2.131,1.813,0
2.132,6.025,0
2.133,-2.398,0
2.134,1.081,0
2.135,-0.018,0
2.136,-2.947,0
2.137,-2.032,0
2.138,-2.764,0
2.139,-2.032,0
2.14,-1.482,0
2.141,0.349,0
2.142,-0.567,0
2.143,-2.215,0
2.144,5.292,0
2.145,6.391,0
2.146,9.321,0
2.147,-4.595,0
2.148,-10.638,0
2.149,-1.482,0
2.15,-3.13,0
2.151,-1.666,0
2.152,-2.947,0
2.153,-1.849,0
2.154,-2.947,0
2.155,-2.032,0
2.156,-4.778,0
2.157,-0.75,0
2.158,-4.595,0
2.159,-1.299,0
2.16,0.532,0
2.161,4.377,0
2.162,4.743,0
2.163,0.532,0
2.164,-1.116,0
2.165,-2.398,0
2.166,-6.609,0
2.167,-4.961,0
2.168,-2.581,0
2.169,-4.778,0
2.17,-2.764,0
2.171,-3.863,0
2.172,-2.764,0
2.173,1.813,0
2.174,1.264,0
2.175,0.715,0
2.176,1.264,0
2.177,-0.018,0
2.178,-1.299,0
2.179,-0.201,0
2.18,3.278,0
2.181,-0.933,0
2.182,0.715,0
2.183,-2.581,0
2.184,-1.299,0
2.185,-5.877,0
2.186,-4.046,0
2.187,-2.398,0
2.188,-2.032,0
2.189,-3.313,0
2.19,-2.947,0
2.191,0.532,0
2.192,-1.666,0
2.193,-2.032,0
2.194,-0.933,0
2.195,4.743,0
2.196,4.011,0
2.197,4.743,0
2.198,6.574,0
2.199,6.025,0
2.2,-2.398,0
2.201,8.771,0
2.202,-1.666,0
2.203,-5.694,0
2.204,-4.595,0
2.205,-5.694,0
2.206,-8.624,0
2.207,-7.708,0
2.208,-2.032,0
2.209,0.166,0
2.21,-3.13,0
2.211,-3.68,0
2.212,-2.032,0
2.213,-2.398,0
2.214,1.813,0
2.215,1.264,0
2.216,2.546,0
2.217,1.264,0
2.218,-3.313,0
2.219,-1.482,0
2.22,-2.032,0
2.221,-1.666,0
2.222,-2.947,0
2.223,-1.849,0
2.224,0.715,0
2.225,-1.116,0
2.226,-0.384,0
2.227,-3.497,0
2.228,1.081,0
2.229,0.532,0
2.23,-2.215,0
2.231,3.278,0
2.232,1.081,0
2.233,-0.75,0
2.234,-0.201,0
2.235,-2.947,0
2.236,-2.581,0
2.237,-3.863,0
2.238,2.363,0
2.239,1.447,0
2.24,-0.933,0
2.241,-0.201,0
2.242,1.63,0
2.243,-0.201,0
2.244,-1.299,0
2.245,-0.75,0
2.246,6.757,0
2.247,5.659,0
2.248,12.617,0
2.249,9.87,0
2.25,-2.581,0
2.251,-0.75,0
2.252,-2.398,0
2.253,1.997,0
2.254,-7.525,0
2.255,-4.046,0
2.256,-5.145,0
2.257,-2.215,0
2.258,-3.13,0
2.259,-3.863,0
2.26,-0.018,0
2.261,1.813,0
2.262,1.264,0
2.263,2.912,0
2.264,2.546,0
2.265,2.18,0
2.266,0.166,0
2.267,1.264,0
2.268,-0.567,0
2.269,0.898,0
2.27,-2.215,0
2.271,-0.201,0
2.272,-3.68,0
2.273,0.532,0
2.274,-0.018,0
2.275,-0.384,0
2.276,1.813,0
2.277,1.447,0
2.278,2.546,0
2.279,0.715,0
2.28,4.743,0
2.281,3.095,0
2.282,3.461,0
2.283,-0.75,0
2.284,1.997,0
2.285,1.63,0
2.286,0.349,0
2.287,-0.75,0
2.288,-0.384,0
2.289,-3.68,0
2.29,-0.933,0
2.291,-1.299,0
2.292,2.729,0
2.293,-0.567,0
2.294,-0.933,0
2.295,-0.567,0
2.296,-1.666,0
2.297,4.011,0
2.298,6.391,0
2.299,7.124,0
2.3,14.631,0
2.301,5.476,0
2.302,-5.694,0
2.303,-1.299,0
2.304,-2.581,0
2.305,-6.06,0
2.306,-4.961,0
2.307,-2.032,0
2.308,-1.116,0
2.309,-1.849,0
2.31,-5.694,0
2.311,-1.116,0
2.312,0.715,0
2.313,-0.933,0
2.314,-0.567,0
2.315,0.715,0
2.316,-0.384,0
2.317,-0.75,0
2.318,-3.313,0
2.319,-3.497,0
2.32,-1.666,0
2.321,-2.947,0
2.322,0.532,0
2.323,-0.75,0
2.324,-0.384,0
2.325,-0.018,0
2.326,-0.384,0
2.327,-1.482,0
2.328,-0.75,0
2.329,-0.018,0
2.33,-1.299,0
2.331,0.166,0
2.332,-1.299,0
2.333,-2.215,0
2.334,-3.497,0
2.335,-3.497,0
2.336,-1.482,0
2.337,-3.313,0
2.338,-4.778,0
2.339,-2.947,0
2.34,1.081,0
2.341,-1.666,0
2.342,-0.384,0
2.343,-3.497,0
2.344,-1.482,0
2.345,-1.849,0
2.346,0.166,0
2.347,-1.666,0
2.348,2.912,0
2.349,4.743,0
2.35,0.349,0
2.351,8.771,0
2.352,5.292,0
2.353,-2.581,0
2.354,-3.497,0
2.355,-2.581,0
2.356,-4.961,0
2.357,-7.159,0
2.358,-3.863,0
2.359,-2.032,0
2.36,-2.581,0
2.361,-2.947,0
2.362,-1.666,0
2.363,-1.299,0
2.364,-3.13,0
2.365,0.166,0
2.366,-0.933,0
2.367,0.166,0
2.368,-4.595,0
2.369,-2.764,0
2.37,-2.215,0
2.371,-5.511,0
2.372,-3.313,0
2.373,-2.947,0
2.374,-2.581,0
2.375,-0.75,0
2.376,-2.215,0
2.377,-1.482,0
2.378,2.546,0
2.379,-2.581,0
2.38,-0.75,0
2.381,-0.201,0
2.382,-0.75,0
2.383,-1.116,0
2.384,-2.398,0
2.385,-1.299,0
2.386,-2.398,0
2.387,-2.764,0
2.388,-0.75,0
2.389,-2.581,0
2.39,0.898,0
2.391,1.264,0
2.392,-0.75,0
2.393,-1.116,0
2.394,-2.947,0
2.395,-3.68,0
2.396,0.532,0
2.397,0.166,0
2.398,3.278,0
2.399,8.405,0
2.4,7.856,0
2.401,12.25,0
2.402,10.603,0
2.403,3.095,0
2.404,-4.778,0
2.405,-1.849,0
2.406,-0.933,0
2.407,-3.313,0
2.408,-4.046,0
2.409,-3.497,0
2.41,-4.046,0
2.411,-2.398,0
2.412,-1.116,0
2.413,-2.398,0
2.414,-2.764,0
2.415,2.18,0
2.416,-2.398,0
2.417,0.715,0
2.418,-2.032,0
2.419,-2.398,0
2.42,-3.68,0
2.421,-2.581,0
2.422,-1.482,0
2.423,-1.116,0
2.424,2.18,0
2.425,0.898,0
2.426,-0.201,0
2.427,-0.567,0
2.428,1.264,0
2.429,3.278,0
2.43,1.447,0
2.431,0.715,0
2.432,1.813,0
2.433,-0.567,0
2.434,-2.581,0
2.435,-1.299,0
2.436,-3.68,0
2.437,-0.384,0
2.438,-1.666,0
2.439,0.349,0
2.44,0.715,0
2.441,1.081,0
2.442,0.898,0
2.443,-0.933,0
2.444,-0.75,0
2.445,-0.567,0
2.446,-0.384,0
2.447,-3.313,0
2.448,0.898,0
2.449,1.997,0
2.45,7.673,0
2.451,5.292,0
2.452,12.25,0
2.453,9.504,0
2.454,1.997,0
2.455,-2.947,0
2.456,1.63,0
2.457,-2.398,0
2.458,-0.201,0
2.459,-0.75,0
2.46,-2.581,0
2.461,-4.229,0
2.462,-1.849,0
2.463,-1.482,0
2.464,-2.581,0
2.465,-2.215,0
2.466,-2.581,0
2.467,0.166,0
2.468,0.532,0
2.469,-4.229,0
2.47,-3.68,0
2.471,-3.13,0
2.472,-0.75,0
2.473,0.532,0
2.474,-2.215,0
2.475,-0.384,0
2.476,-0.75,0
2.477,3.278,0
2.478,-2.947,0
2.479,-0.567,0
2.48,0.166,0
2.481,3.461,0
2.482,0.349,0
2.483,-0.201,0
2.484,-1.482,0
2.485,0.715,0
2.486,-2.032,0
2.487,-1.666,0
2.488,-4.229,0
2.489,-1.482,0
2.49,-1.849,0
2.491,-0.018,0
2.492,-2.032,0
2.493,-0.201,0
2.494,-0.018,0
2.495,-1.482,0
2.496,-2.032,0
2.497,0.166,0
2.498,0.898,0
2.499,-0.567,0
2.5,-1.299,0
2.501,2.18,0
2.502,5.476,0
2.503,5.109,0
2.504,5.476,0
2.505,3.645,0
2.506,9.138,0
2.507,2.18,0
2.508,-11.736,0
2.509,-1.666,0
2.51,-3.497,0
2.511,-1.849,0
2.512,-3.313,0
2.513,-4.595,0
2.514,-3.497,0
2.515,-2.398,0
2.516,-1.482,0
2.517,-2.398,0
2.518,-4.778,0
2.519,-5.511,0
2.52,-2.215,0
2.521,-4.046,0
2.522,-4.595,0
2.523,-2.215,0
2.524,-4.412,0
2.525,0.166,0
2.526,0.715,0
2.527,1.264,0
2.528,-0.018,0
2.529,0.349,0
2.53,1.447,0
2.531,0.349,0
2.532,1.447,0
2.533,0.715,0
2.534,-1.849,0
2.535,-0.75,0
2.536,-1.482,0
2.537,-0.75,0
2.538,-3.68,0
2.539,-1.116,0
2.54,-0.75,0
2.541,-0.567,0
2.542,-0.384,0
2.543,0.898,0
2.544,1.081,0
2.545,-0.384,0
2.546,-0.567,0
2.547,2.18,0
2.548,2.546,0
2.549,-0.018,0
2.55,1.63,0
2.551,1.813,0
2.552,6.025,0
2.553,2.912,0
2.554,11.335,0
2.555,12.434,0
2.556,4.56,0
2.557,-2.398,0
2.558,0.349,0
2.559,-3.68,0
2.56,-2.947,0
2.561,-2.398,0
2.562,-2.947,0
2.563,-5.694,0
2.564,-0.201,0
2.565,-0.933,0
2.566,0.898,0
2.567,-0.933,0
2.568,-6.06,0
2.569,-1.482,0
2.57,-3.313,0
2.571,-1.666,0
2.572,-1.299,0
2.573,-2.581,0
2.574,-5.328,0
2.575,-1.116,0
2.576,1.63,0
2.577,1.997,0
2.578,-0.201,0
2.579,2.546,0
2.58,-2.398,0
2.581,2.18,0
2.582,2.729,0
2.583,-1.116,0
2.584,-1.482,0
2.585,-1.116,0
2.586,-0.75,0
2.587,-1.849,0
2.588,-2.215,0
2.589,-1.482,0
2.59,-2.215,0
2.591,-2.032,0
2.592,-0.567,0
2.593,-0.384,0
2.594,1.813,0
2.595,1.63,0
2.596,0.898,0
2.597,1.081,0
2.598,0.898,0
2.599,-0.018,0
2.6,0.898,0
2.601,1.63,0
2.602,1.63,0
2.603,3.645,0
2.604,1.813,0
2.605,5.109,0
2.606,9.321,0
2.607,8.771,0
2.608,1.264,0
2.609,-2.032,0
2.61,0.898,0
2.611,-3.68,0
2.612,-1.299,0
2.613,-0.567,0
2.614,-0.018,0
2.615,-1.849,0
2.616,-1.299,0
2.617,-0.933,0
2.618,-0.567,0
2.619,-2.581,0
2.62,-2.215,0
2.621,-3.313,0
2.622,-2.581,0
2.623,1.63,0
2.624,2.18,0
2.625,-4.046,0
2.626,-3.313,0
2.627,-4.046,0
2.628,-4.595,0
2.629,-1.482,0
2.63,-0.933,0
2.631,4.56,0
2.632,3.828,0
2.633,1.997,0
2.634,0.166,0
2.635,0.715,0
2.636,0.349,0
2.637,-0.933,0
2.638,-0.567,0
2.639,-1.666,0
2.64,-1.299,0
2.641,1.447,0
2.642,-0.384,0
2.643,-0.75,0
2.644,3.278,0
2.645,2.729,0
2.646,1.447,0
2.647,1.813,0
2.648,-0.933,0
2.649,3.278,0
2.65,3.828,0
2.651,2.546,0
2.652,2.363,0
2.653,1.081,0
2.654,7.307,0
2.655,6.391,0
2.656,8.771,0
2.657,14.082,0
2.658,9.504,0
2.659,-0.018,0
2.66,-1.299,0
2.661,-0.201,0
2.662,-1.299,0
2.663,-6.243,0
2.664,-3.497,0
2.665,-4.229,0
2.666,-2.032,0
2.667,-3.863,0
2.668,-4.412,0
2.669,-3.863,0
2.67,-5.145,0
2.671,-4.778,0
2.672,-2.032,0
2.673,-3.13,0
2.674,-4.961,0
2.675,-2.947,0
2.676,-4.229,0
2.677,-1.849,0
2.678,-3.863,0
2.679,-2.581,0
2.68,-4.961,0
2.681,-2.215,0
2.682,0.349,0
2.683,2.18,0
2.684,1.447,0
2.685,4.011,0
2.686,2.912,0
2.687,-0.384,0
2.688,-3.497,0
2.689,0.349,0
2.69,-2.947,0
2.691,-1.666,0
2.692,1.081,0
2.693,0.715,0
2.694,2.546,0
2.695,3.278,0
2.696,2.546,0
2.697,1.813,0
2.698,-0.75,0
2.699,1.081,0
2.7,-0.384,0
2.701,3.278,0
2.702,1.997,0
2.703,3.095,0
2.704,0.898,0
2.705,1.264,0
2.706,-4.412,0
2.707,8.039,0
2.708,6.208,0
2.709,-5.328,0
2.71,2.18,0
2.711,-1.849,0
2.712,1.63,0
2.713,0.532,0
2.714,-0.384,0
2.715,0.532,0
2.716,-3.497,0
2.717,-1.299,0
2.718,-3.13,0
2.719,-1.299,0
2.72,-0.75,0
2.721,-5.328,0
2.722,-0.933,0
2.723,-2.581,0
2.724,-3.863,0
2.725,-1.666,0
2.726,1.081,0
2.727,-0.75,0
2.728,-0.384,0
2.729,-1.849,0
2.73,-1.116,0
2.731,0.166,0
2.732,0.715,0
2.733,-1.299,0
2.734,1.081,0
2.735,0.349,0
2.736,-2.215,0
2.737,0.349,0
2.738,-1.666,0
2.739,-1.482,0
2.74,-1.299,0
2.741,-0.75,0
2.742,-1.299,0
2.743,-1.116,0
2.744,-1.299,0
2.745,0.715,0
2.746,1.081,0
2.747,2.546,0
2.748,3.828,0
2.749,6.208,0
2.75,9.504,0
2.751,13.715,0
2.752,16.462,0
2.753,16.828,0
2.754,19.208,0
2.755,22.321,0
2.756,28.547,0
2.757,29.462,0
2.758,28.73,0
2.759,17.194,0
2.76,8.955,0
2.761,7.49,0
2.762,0.715,0
2.763,-15.398,0
2.764,-17.596,0
2.765,-23.638,0
2.766,-29.131,0
2.767,-34.075,0
2.768,-38.47,0
2.769,-31.695,0
2.77,-23.272,0
2.771,-19.976,0
2.772,-15.032,0
2.773,-17.779,0
2.774,-28.582,0
2.775,-51.104,0
2.776,-67.217,0
2.777,-87.908,0
2.778,-128.19,0
2.779,-145.4,0
2.78,-150.53,0
2.781,-145.77,0
2.782,-132.95,0
2.783,-129.11,0
2.784,-118.49,0
2.785,-89.19,0
2.786,-37.92,0
2.787,53.266,0
2.788,140.42,0
2.789,151.59,0
2.79,141.34,0
2.791,150.68,0
2.792,142.25,0
2.793,103.8,0
2.794,96.845,0
2.795,103.07,0
2.796,97.395,0
2.797,81.831,0
2.798,86.591,0
2.799,90.803,0
2.8,94.648,0
2.801,91.169,0
2.802,81.647,0
2.803,84.577,0
2.804,92.451,0
2.805,90.253,0
2.806,97.395,0
2.807,103.99,0
2.808,85.859,0
2.809,63.886,0
2.81,37.153,0
2.811,19.392,0
2.812,9.87,0
2.813,6.94,0
2.814,9.504,0
2.815,-2.581,0
2.816,-17.962,0
2.817,-28.033,0
2.818,-44.512,0
2.819,-55.499,0
2.82,-53.484,0
2.821,-55.315,0
2.822,-60.259,0
2.823,-61.724,0
2.824,-60.442,0
2.825,-59.344,0
2.826,-56.048,0
2.827,-56.963,0
2.828,-56.048,0
2.829,-53.667,0
2.83,-51.47,0
2.831,-52.02,0
2.832,-53.851,0
2.833,-53.301,0
2.834,-52.935,0
2.835,-47.808,0
2.836,-47.259,0
2.837,-42.864,0
2.838,-36.639,0
2.839,-32.61,0
2.84,-30.413,0
2.841,-29.864,0
2.842,-21.624,0
2.843,-18.328,0
2.844,-17.413,0
2.845,-12.835,0
2.846,-10.455,0
2.847,-5.145,0
2.848,-4.595,0
2.849,-1.482,0
2.85,-3.13,0
2.851,-1.849,0
2.852,-3.13,0
2.853,1.447,0
2.854,5.842,0
2.855,-0.384,0
2.856,3.095,0
2.857,3.828,0
2.858,15.363,0
2.859,10.419,0
2.86,-0.018,0
2.861,17.744,0
2.862,10.603,0
2.863,4.011,0
2.864,10.053,0
2.865,8.222,0
2.866,9.87,0
2.867,5.476,0
2.868,9.504,0
2.869,15.546,0
2.87,9.87,0
2.871,4.926,0
2.872,4.011,0
2.873,3.278,0
2.874,5.476,0
2.875,6.025,0
2.876,6.574,0
2.877,4.926,0
2.878,6.208,0
2.879,1.997,0
2.88,5.842,0
2.881,4.56,0
2.882,4.194,0
2.883,5.292,0
2.884,4.194,0
2.885,5.292,0
2.886,2.546,0
2.887,1.447,0
2.888,4.011,0
2.889,0.715,0
2.89,2.912,0
2.891,5.659,0
2.892,3.828,0
2.893,4.926,0
2.894,4.194,0
2.895,1.081,0
2.896,-0.933,0
2.897,4.011,0
2.898,2.18,0
2.899,2.729,0
2.9,2.18,0
2.901,5.476,0
2.902,1.264,0
2.903,-0.384,0
2.904,0.898,0
2.905,-0.384,0
2.906,1.63,0
2.907,-0.567,0
2.908,-1.666,0
2.909,-0.567,0
2.91,4.011,0
2.911,7.307,0
2.912,5.476,0
2.913,12.8,0
2.914,11.884,0
2.915,5.476,0
2.916,-0.201,0
2.917,-0.933,0
2.918,-1.482,0
2.919,-3.313,0
2.92,-4.961,0
2.921,-1.666,0
2.922,-3.863,0
2.923,-2.764,0
2.924,-0.201,0
2.925,-1.299,0
2.926,-0.567,0
2.927,-0.384,0
2.928,-0.567,0
2.929,0.898,0
2.93,-1.482,0
2.931,-0.75,0
2.932,-0.018,0
2.933,-0.75,0
2.934,-1.299,0
2.935,1.63,0
2.936,-0.933,0
2.937,-6.426,0
2.938,-4.229,0
2.939,-2.398,0
2.94,-2.947,0
2.941,-2.398,0
2.942,0.898,0
2.943,1.264,0
2.944,0.166,0
2.945,1.997,0
2.946,0.898,0
2.947,1.63,0
2.948,0.898,0
2.949,-0.384,0
2.95,-0.567,0
2.951,0.898,0
2.952,-0.018,0
2.953,-1.299,0
2.954,-3.313,0
2.955,-1.482,0
2.956,0.532,0
2.957,-2.032,0
2.958,-2.032,0
2.959,1.264,0
2.96,4.011,0
2.961,4.377,0
2.962,4.011,0
2.963,8.588,0
2.964,10.419,0
2.965,0.898,0
2.966,2.18,0
2.967,1.081,0
2.968,-4.595,0
2.969,-3.68,0
2.97,-6.426,0
2.971,-7.159,0
2.972,-4.961,0
2.973,-4.412,0
2.974,-2.581,0
2.975,-0.933,0
2.976,0.349,0
2.977,-0.933,0
2.978,-2.032,0
2.979,-3.863,0
2.98,1.63,0
2.981,2.363,0
2.982,0.532,0
2.983,-2.581,0
2.984,-2.032,0
2.985,-1.666,0
2.986,0.532,0
2.987,-3.313,0
2.988,-2.947,0
2.989,-3.313,0
2.99,-1.299,0
2.991,-3.863,0
2.992,-0.567,0
2.993,-1.666,0
2.994,-1.299,0
2.995,-3.13,0
2.996,-3.863,0
2.997,-4.046,0
2.998,-2.215,0
2.999,0.349,0
3,2.912,0
3.001,1.447,0
3.002,3.278,0
3.003,0.898,0
3.004,-2.398,0
3.005,-2.032,0
3.006,-0.933,0
3.007,-2.764,0
3.008,-0.933,0
3.009,0.166,0
3.01,0.898,0
3.011,5.109,0
3.012,14.631,0
3.013,7.856,0
3.014,4.377,0
3.015,-1.299,0
3.016,1.63,0
3.017,-2.947,0
3.018,-0.567,0
3.019,-2.764,0
3.02,-7.342,0
3.021,-4.229,0
3.022,-1.482,0
3.023,-2.764,0
3.024,-2.398,0
3.025,-3.497,0
3.026,-1.666,0
3.027,-0.567,0
3.028,2.18,0
3.029,0.349,0
3.03,4.377,0
3.031,1.997,0
3.032,4.194,0
3.033,-1.299,0
3.034,0.898,0
3.035,-0.933,0
3.036,-0.384,0
3.037,-3.13,0
3.038,-2.764,0
3.039,-2.398,0
3.04,0.349,0
3.041,-2.215,0
3.042,-0.384,0
3.043,-1.116,0
3.044,1.447,0
3.045,2.546,0
3.046,0.532,0
3.047,-0.75,0
3.048,-1.482,0
3.049,-0.018,0
3.05,-2.947,0
3.051,-1.849,0
3.052,-0.018,0
3.053,-1.482,0
3.054,-2.215,0
3.055,-0.384,0
3.056,-3.863,0
3.057,0.715,0
3.058,-1.116,0
3.059,2.729,0
3.06,1.63,0
3.061,1.997,0
3.062,8.955,0
3.063,6.025,0
3.064,6.94,0
3.065,17.744,0
3.066,10.236,0
3.067,0.715,0
3.068,1.813,0
3.069,0.715,0
3.07,1.63,0
3.071,-1.116,0
3.072,-3.497,0
3.073,-2.764,0
3.074,-4.595,0
3.075,-1.482,0
3.076,-3.13,0
3.077,-1.849,0
3.078,-3.13,0
3.079,-1.116,0
3.08,-0.75,0
3.081,1.813,0
3.082,0.349,0
3.083,1.63,0
3.084,4.011,0
3.085,0.715,0
3.086,0.349,0
3.087,-1.666,0
3.088,-1.299,0
3.089,1.997,0
3.09,-0.018,0
3.091,1.081,0
3.092,4.377,0
3.093,0.532,0
3.094,1.813,0
3.095,2.18,0
3.096,3.278,0
3.097,1.447,0
3.098,0.349,0
3.099,4.926,0
3.1,-1.299,0
3.101,-0.567,0
3.102,0.166,0
3.103,0.715,0
3.104,-2.398,0
3.105,-0.75,0
3.106,0.532,0
3.107,-1.666,0
3.108,-1.299,0
3.109,0.532,0
3.11,-1.299,0
3.111,-0.567,0
3.112,1.447,0
3.113,2.18,0
3.114,0.349,0
3.115,3.828,0
3.116,4.194,0
3.117,-0.933,0
3.118,-1.482,0
3.119,4.194,0
3.12,4.926,0
3.121,12.434,0
3.122,3.278,0
3.123,-7.891,0
3.124,-6.426,0
3.125,-5.145,0
3.126,-6.243,0
3.127,-2.947,0
3.128,-3.863,0
3.129,-1.116,0
3.13,-1.849,0
3.131,-2.581,0
3.132,-5.877,0
3.133,-4.046,0
3.134,-1.299,0
3.135,-3.68,0
3.136,-2.398,0
3.137,-3.497,0
3.138,-1.666,0
3.139,-2.764,0
3.14,-3.497,0
3.141,-0.384,0
3.142,-1.482,0
3.143,-0.384,0
3.144,-1.482,0
3.145,-0.75,0
3.146,-0.018,0
3.147,-4.046,0
3.148,2.18,0
3.149,1.447,0
3.15,2.18,0
3.151,-2.398,0
3.152,-0.567,0
3.153,-0.018,0
3.154,0.349,0
3.155,-3.863,0
3.156,-2.215,0
3.157,-3.497,0
3.158,-1.299,0
3.159,-0.933,0
3.16,-1.299,0
3.161,-3.13,0
3.162,-0.567,0
3.163,1.447,0
3.164,5.659,0
3.165,-3.863,0
3.166,16.645,0
3.167,1.813,0
3.168,-0.75,0
3.169,1.63,0
3.17,-4.961,0
3.171,1.081,0
3.172,-11.736,0
3.173,-3.497,0
3.174,-4.961,0
3.175,-3.68,0
3.176,-2.581,0
3.177,-1.482,0
3.178,-2.398,0
3.179,-3.313,0
3.18,-2.581,0
3.181,1.264,0
3.182,0.715,0
3.183,-1.116,0
3.184,1.63,0
3.185,1.997,0
3.186,-3.13,0
3.187,-1.299,0
3.188,0.532,0
3.189,-1.116,0
3.19,-5.694,0
3.191,-2.581,0
3.192,-3.13,0
3.193,-2.764,0
3.194,-3.13,0
3.195,-0.384,0
3.196,-0.018,0
3.197,1.081,0
3.198,1.813,0
3.199,3.095,0
3.2,2.363,0
3.201,0.898,0
3.202,-0.567,0
3.203,-2.764,0
3.204,-2.032,0
3.205,-1.299,0
3.206,-1.849,0
3.207,-2.032,0
3.208,0.166,0
3.209,-1.666,0
3.21,0.715,0
3.211,-0.018,0
3.212,1.813,0
3.213,0.166,0
3.214,-0.567,0
3.215,2.912,0
3.216,4.194,0
3.217,11.152,0
3.218,10.236,0
3.219,-1.849,0
3.22,-3.497,0
3.221,-2.032,0
3.222,-6.06,0
3.223,-2.581,0
3.224,-1.482,0
3.225,-0.567,0
3.226,-1.482,0
3.227,-0.75,0
3.228,-2.947,0
3.229,-2.398,0
3.23,-1.849,0
3.231,1.997,0
3.232,-0.384,0
3.233,-1.666,0
3.234,-0.567,0
3.235,-4.046,0
3.236,-2.764,0
3.237,-0.018,0
3.238,-2.581,0
3.239,-1.482,0
3.24,-0.75,0
3.241,1.081,0
3.242,1.813,0
3.243,-1.299,0
3.244,-2.398,0
3.245,-1.299,0
3.246,0.532,0
3.247,-1.482,0
3.248,1.081,0
3.249,0.715,0
3.25,2.18,0
3.251,-1.482,0
3.252,0.898,0
3.253,0.532,0
3.254,-1.482,0
3.255,-1.116,0
3.256,-0.018,0
3.257,0.715,0
3.258,-1.116,0
3.259,-0.384,0
3.26,0.166,0
3.261,-2.764,0
3.262,-0.933,0
3.263,0.898,0
3.264,0.166,0
3.265,2.18,0
3.266,6.391,0
3.267,4.56,0
3.268,1.813,0
3.269,9.321,0
3.27,14.997,0
3.271,-0.201,0
3.272,-2.398,0
3.273,-0.384,0
3.274,-5.877,0
3.275,-0.933,0
3.276,-2.398,0
3.277,-3.68,0
3.278,2.363,0
3.279,-0.933,0
3.28,-1.849,0
3.281,-2.764,0
3.282,-0.384,0
3.283,-4.229,0
3.284,-2.398,0
3.285,-2.947,0
3.286,-2.398,0
3.287,-1.116,0
3.288,-3.313,0
3.289,-6.06,0
3.29,-4.229,0
3.291,-2.398,0
3.292,1.63,0
3.293,-1.116,0
3.294,-1.482,0
3.295,-1.116,0
3.296,-0.75,0
3.297,1.081,0
3.298,1.447,0
3.299,2.18,0
3.3,1.447,0
3.301,-1.482,0
3.302,-1.849,0
3.303,-0.018,0
3.304,1.447,0
3.305,-0.384,0
3.306,0.349,0
3.307,-3.13,0
3.308,-1.849,0
3.309,0.349,0
3.31,-1.666,0
3.311,0.166,0
3.312,-0.933,0
3.313,-0.75,0
3.314,2.363,0
3.315,3.095,0
3.316,1.081,0
3.317,6.757,0
3.318,4.377,0
3.319,-4.046,0
3.32,12.983,0
3.321,0.898,0
3.322,-1.299,0
3.323,0.715,0
3.324,-1.116,0
3.325,-2.764,0
3.326,1.63,0
3.327,-2.398,0
3.328,-1.299,0
3.329,1.997,0
3.33,-0.933,0
3.331,-1.849,0
3.332,-5.877,0
3.333,-5.145,0
3.334,-6.976,0
3.335,-3.863,0
3.336,-2.215,0
3.337,1.081,0
3.338,-4.046,0
3.339,0.532,0
3.34,-3.863,0
3.341,1.264,0
3.342,1.813,0
3.343,-0.018,0
3.344,2.729,0
3.345,-1.849,0
3.346,-0.018,0
3.347,-0.567,0
3.348,4.011,0
3.349,-0.384,0
3.35,-0.933,0
3.351,0.349,0
3.352,0.715,0
3.353,2.729,0
3.354,-2.947,0
3.355,1.081,0
3.356,-2.764,0
3.357,-0.933,0
3.358,2.18,0
3.359,-1.666,0
3.36,1.63,0
3.361,4.743,0
3.362,2.729,0
3.363,-0.75,0
3.364,-2.947,0
3.365,2.546,0
3.366,0.898,0
3.367,3.095,0
3.368,3.645,0
3.369,8.039,0
3.37,4.194,0
3.371,-2.398,0
3.372,-8.807,0
3.373,-4.778,0
3.374,2.18,0
3.375,-2.398,0
3.376,-3.13,0
3.377,0.715,0
3.378,-3.863,0
3.379,-2.032,0
3.38,0.715,0
3.381,3.095,0
3.382,0.898,0
3.383,-0.201,0
3.384,-2.764,0
3.385,-0.933,0
3.386,-1.666,0
3.387,-1.482,0
3.388,-4.412,0
3.389,-3.313,0
3.39,-0.018,0
3.391,-2.764,0
3.392,-0.201,0
3.393,-0.567,0
3.394,1.447,0
3.395,1.63,0
3.396,-0.75,0
3.397,0.715,0
3.398,-0.567,0
3.399,-3.497,0
3.4,-0.933,0
3.401,-3.497,0
3.402,-0.201,0
3.403,-0.567,0
3.404,-1.666,0
3.405,0.898,0
3.406,-0.201,0
3.407,3.828,0
3.408,-0.018,0
3.409,0.349,0
3.41,-0.933,0
3.411,-5.511,0
3.412,-3.68,0
3.413,-0.933,0
3.414,2.363,0
3.415,2.729,0
3.416,0.715,0
3.417,-2.764,0
3.418,-5.328,0
3.419,0.166,0
3.42,10.236,0
3.421,11.518,0
3.422,5.476,0
3.423,-2.398,0
3.424,-1.482,0
3.425,-2.398,0
3.426,-1.666,0
3.427,0.532,0
3.428,-0.018,0
3.429,1.813,0
3.43,-2.032,0
3.431,0.349,0
3.432,-1.849,0
3.433,-4.595,0
3.434,1.081,0
3.435,-2.947,0
3.436,-3.68,0
3.437,2.546,0
3.438,0.166,0
3.439,-2.032,0
3.44,-1.482,0
3.441,-3.313,0
3.442,-2.764,0
3.443,-2.398,0
3.444,-1.116,0
3.445,-3.13,0
3.446,-1.299,0
3.447,-3.13,0
3.448,-2.947,0
3.449,0.715,0
3.45,1.997,0
3.451,-4.961,0
3.452,1.997,0
3.453,-0.75,0
3.454,-0.018,0
3.455,-2.215,0
3.456,-0.384,0
3.457,1.447,0
3.458,-2.398,0
3.459,0.898,0
3.46,-0.384,0
3.461,0.715,0
3.462,1.081,0
3.463,1.447,0
3.464,-1.849,0
3.465,-0.567,0
3.466,-4.412,0
3.467,-1.116,0
3.468,-2.032,0
3.469,-4.229,0
3.47,1.997,0
3.471,-0.75,0
3.472,1.63,0
3.473,11.701,0
3.474,-6.06,0
3.475,-3.68,0
3.476,2.912,0
3.477,-3.13,0
3.478,-1.299,0
3.479,-2.947,0
3.48,1.447,0
3.481,-2.581,0
3.482,-3.68,0
3.483,-0.384,0
3.484,-1.299,0
3.485,7.124,0
3.486,1.447,0
3.487,2.363,0
3.488,-2.215,0
3.489,1.813,0
3.49,-3.497,0
3.491,-5.328,0
3.492,-8.44,0
3.493,-7.891,0
3.494,-4.595,0
3.495,-2.398,0
3.496,1.447,0
3.497,-1.849,0
3.498,-1.482,0
3.499,1.264,0
3.5,6.208,0
3.501,-0.018,0
3.502,-0.75,0
3.503,3.095,0
3.504,1.264,0
3.505,4.377,0
3.506,6.025,0
3.507,5.659,0
3.508,5.292,0
3.509,3.278,0
3.51,-2.398,0
3.511,-1.666,0
3.512,-0.933,0
3.513,0.898,0
3.514,1.447,0
3.515,-1.299,0
3.516,-1.666,0
3.517,-0.384,0
3.518,-3.13,0
3.519,-6.426,0
3.52,-8.99,0
3.521,-3.497,0
3.522,-1.299,0
3.523,8.955,0
3.524,10.419,0
3.525,3.645,0
3.526,-2.398,0
3.527,-3.497,0
3.528,-6.426,0
3.529,-5.511,0
3.53,-7.891,0
3.531,-0.933,0
3.532,1.813,0
3.533,-0.567,0
3.534,-4.412,0
3.535,-1.116,0
3.536,-0.567,0
3.537,-3.313,0
3.538,-0.018,0
3.539,-4.229,0
3.54,-3.68,0
3.541,-3.313,0
3.542,2.729,0
3.543,0.349,0
3.544,2.546,0
3.545,1.997,0
3.546,0.166,0
3.547,0.715,0
3.548,1.997,0
3.549,2.363,0
3.55,3.461,0
3.551,-2.215,0
3.552,-4.595,0
3.553,2.363,0
3.554,-0.384,0
3.555,-2.764,0
3.556,-2.032,0
3.557,1.264,0
3.558,0.715,0
3.559,-0.933,0
3.56,1.447,0
3.561,-4.595,0
3.562,-0.567,0
3.563,0.166,0
3.564,1.997,0
3.565,-1.116,0
3.566,0.532,0
3.567,-0.75,0
3.568,-6.792,0
3.569,-4.412,0
3.57,-2.764,0
3.571,-4.961,0
3.572,5.292,0
3.573,6.757,0
3.574,5.476,0
3.575,11.518,0
3.576,-5.511,0
3.577,-3.13,0
3.578,-0.933,0
3.579,5.109,0
3.58,-0.384,0
3.581,1.264,0
3.582,-6.243,0
3.583,0.532,0
3.584,-0.567,0
3.585,-3.863,0
3.586,-0.933,0
3.587,-0.018,0
3.588,-0.75,0
3.589,-1.482,0
3.59,-0.933,0
3.591,-1.482,0
3.592,-3.13,0
3.593,3.461,0
3.594,-4.961,0
3.595,-1.666,0
3.596,-0.75,0
3.597,-5.328,0
3.598,-1.299,0
3.599,8.771,0
3.6,4.743,0
3.601,1.264,0
3.602,9.138,0
3.603,12.067,0
3.604,22.321,0
3.605,21.04,0
3.606,27.082,0
3.607,34.956,0
3.608,23.786,0
3.609,16.279,0
3.61,14.997,0
3.611,11.518,0
3.612,10.419,0
3.613,9.504,0
3.614,1.081,0
3.615,-15.948,0
3.616,-23.089,0
3.617,-25.286,0
3.618,-31.329,0
3.619,-44.146,0
3.62,-39.202,0
3.621,-24.004,0
3.622,-16.497,0
3.623,-6.976,0
3.624,-10.455,0
3.625,-27.483,0
3.626,-29.864,0
3.627,-63.006,0
3.628,-106.04,0
3.629,-123.25,0
3.63,-149.43,0
3.631,-154.19,0
3.632,-149.98,0
3.633,-138.26,0
3.634,-141.74,0
3.635,-119.22,0
3.636,-110.43,0
3.637,-75.457,0
3.638,-22.906,0
3.639,82.197,0
3.64,127.24,0
3.641,140.79,0
3.642,153.24,0
3.643,164.41,0
3.644,133.65,0
3.645,105.63,0
3.646,114.06,0
3.647,106.37,0
3.648,99.409,0
3.649,93.183,0
3.65,98.859,0
3.651,103.99,0
3.652,99.226,0
3.653,95.014,0
3.654,75.422,0
3.655,86.042,0
3.656,76.521,0
3.657,85.31,0
3.658,87.873,0
3.659,71.027,0
3.66,55.646,0
3.661,29.462,0
3.662,25.983,0
3.663,16.462,0
3.664,13.532,0
3.665,5.659,0
3.666,3.278,0
3.667,-7.708,0
3.668,-21.807,0
3.669,-34.625,0
3.67,-46.16,0
3.671,-41.766,0
3.672,-45.977,0
3.673,-58.245,0
3.674,-53.301,0
3.675,-57.696,0
3.676,-39.935,0
3.677,-32.793,0
3.678,-43.78,0
3.679,-61.907,0
3.68,-54.766,0
3.681,-56.963,0
3.682,-58.978,0
3.683,-53.484,0
3.684,-58.428,0
3.685,-59.893,0
3.686,-47.625,0
3.687,-52.569,0
3.688,-51.104,0
3.689,-47.076,0
3.69,-43.597,0
3.691,-31.146,0
3.692,-29.498,0
3.693,-28.033,0
3.694,-24.004,0
3.695,-17.962,0
3.696,-16.863,0
3.697,-15.948,0
3.698,-9.539,0
3.699,-8.807,0
3.7,-3.497,0
3.701,-5.328,0
3.702,-5.877,0
3.703,-3.13,0
3.704,-1.849,0
3.705,-3.13,0
3.706,-1.116,0
3.707,2.363,0
3.708,9.321,0
3.709,0.166,0
3.71,1.264,0
3.711,6.94,0
3.712,6.025,0
3.713,1.447,0
3.714,3.828,0
3.715,7.673,0
3.716,9.504,0
3.717,10.053,0
3.718,8.405,0
3.719,2.912,0
3.72,8.222,0
3.721,11.518,0
3.722,10.969,0
3.723,7.49,0
3.724,2.363,0
3.725,12.617,0
3.726,8.222,0
3.727,14.997,0
3.728,18.476,0
3.729,15.18,0
3.73,6.025,0
3.731,22.138,0
3.732,11.152,0
3.733,13.166,0
3.734,0.349,0
3.735,18.659,0
3.736,11.518,0
3.737,0.532,0
3.738,-9.539,0
3.739,-7.708,0
3.74,-2.764,0
3.741,4.743,0
3.742,3.461,0
3.743,-0.018,0
3.744,-1.116,0
3.745,3.828,0
3.746,-0.75,0
3.747,-3.13,0
3.748,8.405,0
3.749,13.349,0
3.75,-0.201,0
3.751,-2.032,0
3.752,2.912,0
3.753,4.377,0
3.754,0.349,0
3.755,6.391,0
3.756,7.49,0
3.757,10.419,0
3.758,7.673,0
3.759,0.166,0
3.76,1.081,0
3.761,0.166,0
3.762,-0.567,0
3.763,-2.764,0
3.764,-6.06,0
3.765,-0.384,0
3.766,-1.116,0
3.767,-0.567,0
3.768,-0.018,0
3.769,3.828,0
3.77,-3.68,0
3.771,-4.778,0
3.772,-5.694,0
3.773,-1.116,0
3.774,1.63,0
3.775,2.363,0
3.776,13.898,0
3.777,5.659,0
3.778,4.194,0
3.779,10.969,0
3.78,-5.145,0
3.781,-7.342,0
3.782,-1.299,0
3.783,-3.13,0
3.784,-4.778,0
3.785,-0.384,0
3.786,-1.666,0
3.787,-5.145,0
3.788,-1.849,0
3.789,-4.778,0
3.79,-9.356,0
3.791,-1.849,0
3.792,-2.764,0
3.793,3.645,0
3.794,1.264,0
3.795,9.687,0
3.796,6.391,0
3.797,-0.567,0
3.798,-1.482,0
3.799,-0.75,0
3.8,-0.018,0
3.801,0.532,0
3.802,3.645,0
3.803,-2.581,0
3.804,-0.201,0
3.805,-4.046,0
3.806,-7.342,0
3.807,-0.384,0
3.808,2.363,0
3.809,-3.313,0
3.81,-1.116,0
3.811,-5.694,0
3.812,1.264,0
3.813,0.349,0
3.814,1.081,0
3.815,8.039,0
3.816,5.292,0
3.817,-3.863,0
3.818,-4.961,0
3.819,-1.666,0
3.82,-2.581,0
3.821,-5.328,0
3.822,-4.595,0
3.823,-8.44,0
3.824,-5.145,0
3.825,-7.159,0
3.826,-1.482,0
3.827,10.053,0
3.828,5.109,0
3.829,6.574,0
3.83,13.349,0
3.831,2.18,0
3.832,-8.257,0
3.833,-1.482,0
3.834,-7.525,0
3.835,7.307,0
3.836,5.292,0
3.837,-3.863,0
3.838,-8.807,0
3.839,-7.342,0
3.84,-3.313,0
3.841,0.166,0
3.842,-7.708,0
3.843,-8.624,0
3.844,-5.877,0
3.845,-3.497,0
3.846,-1.299,0
3.847,3.278,0
3.848,6.391,0
3.849,4.743,0
3.85,0.166,0
3.851,-2.947,0
3.852,4.377,0
3.853,9.321,0
3.854,-4.595,0
3.855,-2.581,0
3.856,-4.412,0
3.857,-2.764,0
3.858,-10.271,0
3.859,-6.243,0
3.86,-0.201,0
3.861,0.898,0
3.862,3.828,0
3.863,6.574,0
3.864,-2.581,0
3.865,-3.68,0
3.866,1.997,0
3.867,2.912,0
3.868,-1.666,0
3.869,-0.933,0
3.87,-0.201,0
3.871,-4.778,0
3.872,-6.609,0
3.873,-4.961,0
3.874,-1.666,0
3.875,-4.778,0
3.876,-3.497,0
3.877,-9.722,0
3.878,4.194,0
3.879,10.236,0
3.88,12.067,0
3.881,-9.539,0
3.882,17.194,0
3.883,13.715,0
3.884,4.194,0
3.885,-4.595,0
3.886,-2.032,0
3.887,-4.412,0
3.888,-2.215,0
3.889,-0.201,0
3.89,1.63,0
3.891,-3.313,0
3.892,-4.778,0
3.893,-3.497,0
3.894,4.926,0
3.895,-5.328,0
3.896,-4.046,0
3.897,7.124,0
3.898,-0.384,0
3.899,0.898,0
3.9,-0.201,0
3.901,7.673,0
3.902,-1.482,0
3.903,-9.905,0
3.904,-11.004,0
3.905,-8.074,0
3.906,0.349,0
3.907,1.447,0
3.908,-1.482,0
3.909,-4.229,0
3.91,1.447,0
3.911,6.757,0
3.912,4.926,0
3.913,3.095,0
3.914,3.645,0
3.915,3.278,0
3.916,0.166,0
3.917,5.659,0
3.918,1.813,0
3.919,-1.482,0
3.92,-4.595,0
3.921,-8.44,0
3.922,-0.933,0
3.923,-2.032,0
3.924,0.898,0
3.925,5.476,0
3.926,1.447,0
3.927,-0.567,0
3.928,0.166,0
3.929,9.138,0
3.93,5.659,0
3.931,6.757,0
3.932,13.715,0
3.933,-0.201,0
3.934,-6.243,0
3.935,-0.75,0
3.936,0.898,0
3.937,-0.567,0
3.938,-4.595,0
3.939,1.447,0
3.94,-4.229,0
3.941,-1.299,0
3.942,-0.384,0
3.943,-4.412,0
3.944,-0.567,0
3.945,-1.116,0
3.946,0.715,0
3.947,3.461,0
3.948,2.18,0
3.949,3.461,0
3.95,0.715,0
3.951,4.926,0
3.952,-2.398,0
3.953,-1.482,0
3.954,-2.398,0
3.955,-0.018,0
3.956,-0.75,0
3.957,-4.046,0
3.958,2.912,0
3.959,0.166,0
3.96,2.546,0
3.961,4.743,0
3.962,2.912,0
3.963,-2.764,0
3.964,-4.961,0
3.965,2.546,0
3.966,1.63,0
3.967,-4.778,0
3.968,4.377,0
3.969,3.278,0
3.97,-2.398,0
3.971,-3.313,0
3.972,-4.229,0
3.973,-0.201,0
3.974,-10.271,0
3.975,1.997,0
3.976,6.94,0
3.977,8.405,0
3.978,0.166,0
3.979,-6.609,0
3.98,11.884,0
3.981,19.758,0
3.982,12.617,0
3.983,1.63,0
3.984,3.645,0
3.985,1.813,0
3.986,0.166,0
3.987,-4.229,0
3.988,-13.75,0
3.989,-12.652,0
3.99,-6.976,0
3.991,-6.06,0
3.992,-6.976,0
3.993,-6.243,0
3.994,-0.933,0
3.995,0.898,0
3.996,1.447,0
3.997,-0.201,0
3.998,3.095,0
3.999,-0.018,0
4,1.081,0
4.001,-0.018,0
4.002,-3.313,0
4.003,-2.947,0
4.004,-3.313,0
4.005,-5.145,0
4.006,-4.412,0
4.007,-8.624,0
4.008,-5.511,0
4.009,-0.384,0
4.01,-3.68,0
4.011,3.278,0
4.012,6.025,0
4.013,3.645,0
4.014,-3.313,0
4.015,-4.229,0
4.016,-3.497,0
4.017,4.926,0
4.018,3.828,0
4.019,4.743,0
4.02,1.997,0
4.021,1.264,0
4.022,-5.694,0
4.023,-4.778,0
4.024,2.729,0
4.025,7.673,0
4.026,3.095,0
4.027,-2.581,0
4.028,-0.384,0
4.029,-1.299,0
4.03,0.532,0
4.031,10.053,0
4.032,-2.215,0
4.033,9.321,0
4.034,7.856,0
4.035,-12.652,0
4.036,-3.863,0
4.037,-1.299,0
4.038,-3.68,0
4.039,-5.877,0
4.04,-3.863,0
4.041,-9.356,0
4.042,5.659,0
4.043,-4.412,0
4.044,-2.581,0
4.045,-0.933,0
4.046,0.532,0
4.047,-3.497,0
4.048,-0.018,0
4.049,5.659,0
4.05,6.574,0
4.051,3.828,0
4.052,7.856,0
4.053,-0.567,0
4.054,-1.666,0
4.055,-6.609,0
4.056,-3.863,0
4.057,-4.595,0
4.058,-5.328,0
4.059,0.898,0
4.06,-4.778,0
4.061,3.645,0
4.062,2.546,0
4.063,1.63,0
4.064,2.546,0
4.065,-4.961,0
4.066,-4.046,0
4.067,-3.13,0
4.068,4.377,0
4.069,5.292,0
4.07,6.208,0
4.071,-6.243,0
4.072,-0.75,0
4.073,-2.398,0
4.074,1.997,0
4.075,-2.032,0
4.076,-5.511,0
4.077,6.94,0
4.078,1.997,0
4.079,-2.398,0
4.08,2.363,0
4.081,-1.666,0
4.082,16.828,0
4.083,3.461,0
4.084,5.842,0
4.085,12.434,0
4.086,6.391,0
4.087,0.898,0
4.088,2.546,0
4.089,-1.849,0
4.09,-5.877,0
4.091,-9.356,0
4.092,-1.482,0
4.093,-0.567,0
4.094,0.349,0
4.095,-0.384,0
4.096,0.349,0
4.097,-0.201,0
4.098,9.321,0
4.099,10.603,0
4.1,-2.947,0
4.101,-1.116,0
4.102,0.532,0
4.103,-0.933,0
4.104,-2.215,0
4.105,-1.116,0
4.106,-2.215,0
4.107,-3.13,0
4.108,-5.877,0
4.109,-5.145,0
4.11,-4.412,0
4.111,0.166,0
4.112,1.997,0
4.113,-1.849,0
4.114,0.532,0
4.115,0.898,0
4.116,1.264,0
4.117,2.363,0
4.118,4.926,0
4.119,8.222,0
4.12,1.264,0
4.121,-3.68,0
4.122,-8.257,0
4.123,-2.581,0
4.124,-4.778,0
4.125,-6.609,0
4.126,0.349,0
4.127,-2.398,0
4.128,-0.018,0
4.129,-0.75,0
4.13,1.081,0
4.131,-0.567,0
4.132,-0.018,0
4.133,2.729,0
4.134,6.025,0
4.135,12.983,0
4.136,12.067,0
4.137,-0.018,0
4.138,-4.961,0
4.139,-3.497,0
4.14,-2.215,0
4.141,-1.116,0
4.142,-0.018,0
4.143,-4.961,0
4.144,-2.215,0
4.145,3.461,0
4.146,7.307,0
4.147,2.729,0
4.148,-5.511,0
4.149,-2.215,0
4.15,4.743,0
4.151,0.166,0
4.152,-2.215,0
4.153,-10.638,0
4.154,-2.764,0
4.155,2.18,0
4.156,-4.229,0
4.157,3.278,0
4.158,2.363,0
4.159,-6.06,0
4.16,-2.764,0
4.161,4.194,0
4.162,-2.215,0
4.163,-2.947,0
4.164,-5.145,0
4.165,-9.722,0
4.166,-2.764,0
4.167,3.645,0
4.168,-2.032,0
4.169,-1.299,0
4.17,-3.13,0
4.171,-0.018,0
4.172,-0.567,0
4.173,-2.947,0
4.174,1.264,0
4.175,-0.384,0
4.176,-0.75,0
4.177,0.532,0
4.178,3.278,0
4.179,2.18,0
4.18,1.813,0
4.181,2.546,0
4.182,0.898,0
4.183,-0.933,0
4.184,3.095,0
4.185,5.842,0
4.186,11.335,0
4.187,10.603,0
4.188,1.63,0
4.189,-6.792,0
4.19,-5.694,0
4.191,-4.778,0
4.192,-5.694,0
4.193,1.813,0
4.194,0.898,0
4.195,-9.356,0
4.196,-5.328,0
4.197,3.095,0
4.198,4.194,0
4.199,5.109,0
4.2,2.363,0
4.201,-3.313,0
4.202,-5.511,0
4.203,-2.215,0
4.204,-0.384,0
4.205,-2.032,0
4.206,-5.328,0
4.207,0.715,0
4.208,3.095,0
4.209,-0.75,0
4.21,-2.581,0
4.211,-0.75,0
4.212,1.997,0
4.213,3.278,0
4.214,-1.849,0
4.215,7.124,0
4.216,1.081,0
4.217,-2.215,0
4.218,0.715,0
4.219,-2.032,0
4.22,-1.299,0
4.221,-5.145,0
4.222,-6.976,0
4.223,-8.807,0
4.224,-6.06,0
4.225,-1.482,0
4.226,-0.933,0
4.227,2.912,0
4.228,0.532,0
4.229,1.813,0
4.23,0.715,0
4.231,2.546,0
4.232,5.842,0
4.233,1.63,0
4.234,1.997,0
4.235,7.673,0
4.236,5.292,0
4.237,9.138,0
4.238,7.307,0
4.239,-0.933,0
4.24,2.363,0
4.241,-6.792,0
4.242,1.63,0
4.243,-6.243,0
4.244,-3.313,0
4.245,-0.567,0
4.246,0.166,0
4.247,-2.032,0
4.248,-2.581,0
4.249,1.813,0
4.25,-5.511,0
4.251,-0.567,0
4.252,4.011,0
4.253,-1.666,0
4.254,0.532,0
4.255,1.081,0
4.256,-5.877,0
4.257,-10.455,0
4.258,-8.074,0
4.259,-7.342,0
4.26,2.912,0
4.261,4.377,0
4.262,0.349,0
4.263,1.447,0
4.264,2.546,0
4.265,5.476,0
4.266,2.729,0
4.267,3.461,0
4.268,-0.384,0
4.269,-0.933,0
4.27,4.743,0
4.271,-3.68,0
4.272,-2.581,0
4.273,-5.511,0
4.274,-4.595,0
4.275,-5.328,0
4.276,-3.13,0
4.277,3.095,0
4.278,7.124,0
4.279,6.391,0
4.28,0.166,0
4.281,-0.567,0
4.282,-2.764,0
4.283,-6.06,0
4.284,1.63,0
4.285,-1.482,0
4.286,5.842,0
4.287,0.898,0
4.288,-3.68,0
4.289,5.476,0
4.29,4.377,0
4.291,12.25,0
4.292,1.081,0
4.293,-21.441,0
4.294,1.081,0
4.295,4.011,0
4.296,6.574,0
4.297,4.194,0
4.298,1.997,0
4.299,-4.046,0
4.3,1.447,0
4.301,-3.497,0
4.302,-2.032,0
4.303,4.743,0
4.304,-6.426,0
4.305,-2.032,0
4.306,-0.75,0
4.307,2.729,0
4.308,-0.567,0
4.309,0.349,0
4.31,6.757,0
4.311,-0.75,0
4.312,2.18,0
4.313,-2.398,0
4.314,-9.905,0
4.315,-6.976,0
4.316,-0.567,0
4.317,-4.595,0
4.318,-11.553,0
4.319,-1.299,0
4.32,-2.581,0
4.321,-6.06,0
4.322,-9.356,0
4.323,-4.412,0
4.324,0.166,0
4.325,5.842,0
4.326,3.645,0
4.327,1.813,0
4.328,4.926,0
4.329,-2.398,0
4.33,-1.482,0
4.331,-0.567,0
4.332,6.94,0
4.333,4.011,0
4.334,-4.412,0
4.335,-7.891,0
4.336,4.56,0
4.337,2.912,0
4.338,1.447,0
4.339,-2.581,0
4.34,-1.482,0
4.341,-2.581,0
4.342,2.363,0
4.343,1.447,0
4.344,5.476,0
4.345,1.63,0
4.346,-2.947,0
4.347,-3.497,0
4.348,-1.849,0
4.349,2.729,0
4.35,8.405,0
4.351,9.138,0
4.352,7.307,0
4.353,0.349,0
4.354,-4.229,0
4.355,-0.201,0
4.356,-2.398,0
4.357,5.109,0
4.358,0.166,0
4.359,2.912,0
4.36,6.94,0
4.361,9.138,0
4.362,4.56,0
4.363,1.447,0
4.364,6.574,0
4.365,0.349,0
4.366,-2.032,0
4.367,-2.764,0
4.368,-7.342,0
4.369,-9.173,0
4.37,-9.722,0
4.371,-4.229,0
4.372,-8.074,0
4.373,-9.905,0
4.374,-10.455,0
4.375,-5.328,0
4.376,-9.905,0
4.377,-2.947,0
4.378,3.461,0
4.379,5.842,0
4.38,0.532,0
4.381,-0.018,0
4.382,0.532,0
4.383,2.18,0
4.384,-5.328,0
4.385,-2.032,0
4.386,3.095,0
4.387,2.18,0
4.388,16.096,0
4.389,1.997,0
4.39,-7.159,0
4.391,7.856,0
4.392,5.842,0
4.393,0.349,0
4.394,-1.299,0
4.395,3.095,0
4.396,-0.933,0
4.397,-4.412,0
4.398,-7.708,0
4.399,-6.792,0
4.4,-4.046,0
4.401,-6.426,0
4.402,-5.694,0
4.403,-5.145,0
4.404,0.532,0
4.405,-0.201,0
4.406,-0.75,0
4.407,-1.299,0
4.408,-4.046,0
4.409,-1.666,0
4.41,-2.947,0
4.411,2.546,0
4.412,-2.764,0
4.413,-6.06,0
4.414,3.461,0
4.415,7.49,0
4.416,6.391,0
4.417,3.095,0
4.418,2.18,0
4.419,3.095,0
4.42,-2.581,0
4.421,1.264,0
4.422,-3.313,0
4.423,-5.145,0
4.424,-4.595,0
4.425,-2.215,0
4.426,-2.581,0
4.427,3.645,0
4.428,-0.933,0
4.429,-4.961,0
4.43,-10.271,0
4.431,-5.694,0
4.432,3.828,0
4.433,10.603,0
4.434,2.18,0
4.435,1.081,0
4.436,-3.863,0
4.437,1.63,0
4.438,-1.116,0
4.439,-3.497,0
4.44,8.039,0
4.441,19.575,0
4.442,3.095,0
4.443,-3.497,0
4.444,-1.482,0
4.445,0.349,0
4.446,-1.299,0
4.447,3.095,0
4.448,1.813,0
4.449,0.715,0
4.45,-0.384,0
4.451,-1.299,0
4.452,3.278,0
4.453,7.307,0
4.454,6.574,0
4.455,3.278,0
4.456,10.236,0
4.457,12.983,0
4.458,20.49,0
4.459,23.42,0
4.46,24.335,0
4.461,23.603,0
4.462,12.067,0
4.463,13.715,0
4.464,15.18,0
4.465,11.152,0
4.466,5.109,0
4.467,-7.342,0
4.468,-12.286,0
4.469,-22.723,0
4.47,-26.751,0
4.471,-32.793,0
4.472,-36.089,0
4.473,-41.033,0
4.474,-30.779,0
4.475,-15.765,0
4.476,-9.722,0
4.477,-7.891,0
4.478,-16.131,0
4.479,-38.653,0
4.48,-67.95,0
4.481,-87.542,0
4.482,-98.162,0
4.483,-127.46,0
4.484,-154.93,0
4.485,-144.31,0
4.486,-153.83,0
4.487,-150.9,0
4.488,-127.28,0
4.489,-113.91,0
4.49,-77.471,0
4.491,-9.173,0
4.492,56.196,0
4.493,149.4,0
4.494,161.85,0
4.495,173.02,0
4.496,162.76,0
4.497,134.75,0
4.498,109.48,0
4.499,117.17,0
4.5,110.21,0
4.501,91.352,0
4.502,85.676,0
4.503,80.549,0
4.504,75.788,0
4.505,88.605,0
4.506,76.887,0
4.507,73.408,0
4.508,76.521,0
4.509,85.31,0
4.51,87.873,0
4.511,95.014,0
4.512,92.817,0
4.513,74.689,0
4.514,52.717,0
4.515,37.885,0
4.516,24.519,0
4.517,12.434,0
4.518,14.631,0
4.519,8.588,0
4.52,-0.567,0
4.521,-12.103,0
4.522,-25.652,0
4.523,-42.132,0
4.524,-53.118,0
4.525,-55.132,0
4.526,-56.963,0
4.527,-52.02,0
4.528,-50.555,0
4.529,-54.583,0
4.53,-58.062,0
4.531,-54.766,0
4.532,-59.71,0
4.533,-66.119,0
4.534,-53.667,0
4.535,-51.836,0
4.536,-53.484,0
4.537,-54.949,0
4.538,-53.667,0
4.539,-59.161,0
4.54,-58.062,0
4.541,-56.963,0
4.542,-43.78,0
4.543,-34.625,0
4.544,-19.61,0
4.545,-17.596,0
4.546,-23.089,0
4.547,-21.441,0
4.548,-22.906,0
4.549,-21.624,0
4.55,-13.201,0
4.551,-7.525,0
4.552,-16.68,0
4.553,-13.201,0
4.554,-5.328,0
4.555,-8.257,0
4.556,-5.511,0
4.557,-3.13,0
4.558,-3.863,0
4.559,-3.313,0
4.56,3.645,0
4.561,0.898,0
4.562,4.926,0
4.563,5.659,0
4.564,7.49,0
4.565,8.039,0
4.566,5.292,0
4.567,8.588,0
4.568,10.786,0
4.569,5.292,0
4.57,7.49,0
4.571,9.321,0
4.572,2.363,0
4.573,1.447,0
4.574,7.124,0
4.575,6.391,0
4.576,4.56,0
4.577,5.109,0
4.578,12.434,0
4.579,7.49,0
4.58,10.236,0
4.581,10.969,0
4.582,8.771,0
4.583,5.476,0
4.584,-2.764,0
4.585,5.109,0
4.586,10.053,0
4.587,5.476,0
4.588,3.095,0
4.589,5.292,0
4.59,7.49,0
4.591,12.067,0
4.592,5.109,0
4.593,2.363,0
4.594,1.63,0
4.595,-0.567,0
4.596,8.405,0
4.597,14.448,0
4.598,15.546,0
4.599,20.49,0
4.6,17.744,0
4.601,5.292,0
4.602,3.461,0
4.603,1.813,0
4.604,0.349,0
4.605,-3.68,0
4.606,-4.778,0
4.607,-3.68,0
4.608,-6.609,0
4.609,-9.356,0
4.61,-3.68,0
4.611,1.63,0
4.612,6.208,0
4.613,0.532,0
4.614,2.729,0
4.615,-1.849,0
4.616,-1.299,0
4.617,-2.947,0
4.618,-2.581,0
4.619,1.63,0
4.62,4.377,0
4.621,1.997,0
4.622,-0.201,0
4.623,-2.215,0
4.624,-0.384,0
4.625,-3.68,0
4.626,0.166,0
4.627,-5.328,0
4.628,3.095,0
4.629,6.391,0
4.63,5.476,0
4.631,-0.933,0
4.632,3.095,0
4.633,2.363,0
4.634,2.912,0
4.635,-1.482,0
4.636,-7.708,0
4.637,-6.976,0
4.638,-4.778,0
4.639,2.729,0
4.64,1.813,0
4.641,3.828,0
4.642,-0.75,0
4.643,11.701,0
4.644,6.208,0
4.645,4.56,0
4.646,0.166,0
4.647,15.18,0
4.648,9.138,0
4.649,-3.68,0
4.65,-2.032,0
4.651,-0.567,0
4.652,-4.595,0
4.653,-3.497,0
4.654,-6.792,0
4.655,-7.708,0
4.656,-6.792,0
4.657,-4.412,0
4.658,-5.145,0
4.659,-0.567,0
4.66,-0.018,0
4.661,0.532,0
4.662,-0.75,0
4.663,-3.863,0
4.664,0.715,0
4.665,-1.116,0
4.666,-6.243,0
4.667,-5.694,0
4.668,-2.581,0
4.669,0.166,0
4.67,0.532,0
4.671,1.813,0
4.672,-4.412,0
4.673,-8.99,0
4.674,-4.961,0
4.675,-2.764,0
4.676,3.461,0
4.677,-0.567,0
4.678,-4.412,0
4.679,1.813,0
4.68,4.194,0
4.681,3.461,0
4.682,1.63,0
4.683,1.081,0
4.684,3.828,0
4.685,1.447,0
4.686,-0.75,0
4.687,-1.116,0
4.688,0.715,0
4.689,-1.849,0
4.69,0.166,0
4.691,-4.046,0
4.692,-8.624,0
4.693,-2.947,0
4.694,8.588,0
4.695,3.645,0
4.696,5.109,0
4.697,9.138,0
4.698,5.659,0
4.699,4.56,0
4.7,3.645,0
4.701,0.898,0
4.702,1.63,0
4.703,-6.792,0
4.704,-10.088,0
4.705,-7.159,0
4.706,-4.412,0
4.707,-8.44,0
4.708,-1.482,0
4.709,-0.567,0
4.71,0.166,0
4.711,-3.68,0
4.712,-0.384,0
4.713,-0.933,0
4.714,-0.384,0
4.715,0.898,0
4.716,1.264,0
4.717,-1.482,0
4.718,-2.581,0
4.719,-5.877,0
4.72,-2.032,0
4.721,0.349,0
4.722,-3.863,0
4.723,-2.215,0
4.724,-0.933,0
4.725,-1.299,0
4.726,-0.201,0
4.727,1.63,0
4.728,3.461,0
4.729,0.166,0
4.73,0.532,0
4.731,0.898,0
4.732,1.264,0
4.733,0.898,0
4.734,3.645,0
4.735,2.546,0
4.736,-0.75,0
4.737,-6.243,0
4.738,-2.398,0
4.739,-4.229,0
4.74,-7.342,0
4.741,-4.595,0
4.742,-7.891,0
4.743,0.898,0
4.744,-0.384,0
4.745,5.842,0
4.746,19.758,0
4.747,13.715,0
4.748,4.56,0
4.749,2.912,0
4.75,1.447,0
4.751,0.166,0
4.752,1.264,0
4.753,0.166,0
4.754,-2.764,0
4.755,-5.511,0
4.756,-4.778,0
4.757,-0.933,0
4.758,-2.764,0
4.759,0.349,0
4.76,-4.778,0
4.761,-2.947,0
4.762,1.447,0
4.763,-1.299,0
4.764,1.081,0
4.765,4.194,0
4.766,6.208,0
4.767,0.532,0
4.768,2.912,0
4.769,-5.511,0
4.77,-2.215,0
4.771,-5.145,0
4.772,-2.398,0
4.773,-3.13,0
4.774,-2.398,0
4.775,-1.849,0
4.776,2.546,0
4.777,1.997,0
4.778,4.377,0
4.779,2.18,0
4.78,-1.666,0
4.781,0.715,0
4.782,4.926,0
4.783,8.771,0
4.784,1.264,0
4.785,-4.412,0
4.786,0.532,0
4.787,1.447,0
4.788,2.18,0
4.789,-3.13,0
4.79,-1.299,0
4.791,0.532,0
4.792,1.081,0
4.793,-4.412,0
4.794,1.63,0
4.795,-0.567,0
4.796,9.687,0
4.797,8.222,0
4.798,9.504,0
4.799,12.983,0
4.8,-4.046,0
4.801,-6.426,0
4.802,0.166,0
4.803,2.18,0
4.804,-3.313,0
4.805,-4.961,0
4.806,-0.567,0
4.807,0.715,0
4.808,1.813,0
4.809,-1.482,0
4.81,-0.567,0
4.811,-6.976,0
4.812,-4.595,0
4.813,-6.792,0
4.814,-2.215,0
4.815,-0.384,0
4.816,5.842,0
4.817,0.166,0
4.818,4.011,0
4.819,0.715,0
4.82,-1.116,0
4.821,-0.567,0
4.822,-0.201,0
4.823,0.166,0
4.824,-2.581,0
4.825,-2.947,0
4.826,-2.581,0
4.827,-0.567,0
4.828,-0.384,0
4.829,3.645,0
4.83,5.292,0
4.831,0.715,0
4.832,0.166,0
4.833,-3.68,0
4.834,-3.313,0
4.835,-0.201,0
4.836,2.546,0
4.837,-3.13,0
4.838,-0.75,0
4.839,-6.06,0
4.84,-4.229,0
4.841,-3.68,0
4.842,-5.328,0
4.843,-6.609,0
4.844,-2.398,0
4.845,-0.567,0
4.846,1.081,0
4.847,5.659,0
4.848,15.18,0
4.849,16.462,0
4.85,5.292,0
4.851,0.898,0
4.852,-8.624,0
4.853,-9.722,0
4.854,-8.624,0
4.855,-3.68,0
4.856,-2.764,0
4.857,-2.032,0
4.858,-4.229,0
4.859,-0.933,0
4.86,-0.384,0
4.861,-3.13,0
4.862,-3.497,0
4.863,-1.299,0
4.864,-0.933,0
4.865,2.546,0
4.866,1.264,0
4.867,1.63,0
4.868,-0.933,0
4.869,-1.299,0
4.87,-4.595,0
4.871,-2.398,0
4.872,-3.497,0
4.873,-0.933,0
4.874,-2.032,0
4.875,2.546,0
4.876,-3.68,0
4.877,-1.299,0
4.878,-0.567,0
4.879,-1.116,0
4.88,-1.666,0
4.881,2.18,0
4.882,3.461,0
4.883,-1.666,0
4.884,2.912,0
4.885,2.363,0
4.886,2.912,0
4.887,0.532,0
4.888,-4.595,0
4.889,-2.764,0
4.89,-0.933,0
4.891,-3.68,0
4.892,-3.313,0
4.893,-3.68,0
4.894,2.546,0
4.895,3.461,0
4.896,0.898,0
4.897,1.63,0
4.898,13.166,0
4.899,1.63,0
4.9,6.025,0
4.901,7.307,0
4.902,1.264,0
4.903,2.363,0
4.904,-2.581,0
4.905,-5.328,0
4.906,-2.947,0
4.907,2.363,0
4.908,-2.215,0
4.909,-1.666,0
4.91,-0.018,0
4.911,-4.595,0
4.912,-1.482,0
4.913,0.166,0
4.914,0.532,0
4.915,-0.75,0
4.916,5.476,0
4.917,4.56,0
4.918,0.532,0
4.919,1.264,0
4.92,-4.961,0
4.921,-5.694,0
4.922,-3.497,0
4.923,-4.046,0
4.924,-2.215,0
4.925,-1.666,0
4.926,-0.384,0
4.927,-0.018,0
4.928,1.997,0
4.929,0.166,0
4.93,-1.666,0
4.931,1.081,0
4.932,5.292,0
4.933,4.743,0
4.934,0.166,0
4.935,-6.792,0
4.936,-0.384,0
4.937,-1.116,0
4.938,-3.313,0
4.939,-6.609,0
4.94,-4.778,0
4.941,2.546,0
4.942,3.461,0
4.943,8.039,0
4.944,2.363,0
4.945,3.095,0
4.946,2.546,0
4.947,0.898,0
4.948,1.447,0
4.949,9.87,0
4.95,10.969,0
4.951,5.292,0
4.952,10.236,0
4.953,-3.68,0
4.954,-13.75,0
4.955,-4.595,0
4.956,-9.539,0
4.957,-8.074,0
4.958,-9.356,0
4.959,-3.313,0
4.96,-8.99,0
4.961,-2.032,0
4.962,0.715,0
4.963,1.447,0
4.964,2.18,0
4.965,2.729,0
4.966,0.898,0
4.967,1.447,0
4.968,-0.933,0
4.969,-2.215,0
4.97,-0.201,0
4.971,-1.299,0
4.972,-0.933,0
4.973,-1.666,0
4.974,-1.849,0
4.975,-3.68,0
4.976,-4.229,0
4.977,-0.933,0
4.978,4.194,0
4.979,3.645,0
4.98,5.476,0
4.981,-0.75,0
4.982,-1.482,0
4.983,-3.68,0
4.984,-9.905,0
4.985,-5.877,0
4.986,2.546,0
4.987,-3.13,0
4.988,-6.06,0
4.989,-6.976,0
4.99,-1.299,0
4.991,4.011,0
4.992,3.461,0
4.993,0.349,0
4.994,0.898,0
4.995,1.264,0
4.996,2.546,0
4.997,-0.201,0
4.998,-2.032,0
4.999,-0.933,0
5,4.56,0
5.001,2.363,0
5.002,9.87,0
5.003,8.955,0
5.004,0.532,0
5.005,-0.567,0
5.006,-3.497,0
5.007,-2.581,0
5.008,1.447,0
5.009,-2.398,0
5.01,-1.849,0
5.011,-0.018,0
5.012,-0.567,0
5.013,-0.201,0
5.014,-2.398,0
5.015,2.18,0
5.016,-0.933,0
5.017,-1.482,0
5.018,-2.764,0
5.019,-1.482,0
5.02,-4.229,0
5.021,-3.13,0
5.022,-2.764,0
5.023,-2.032,0
5.024,-1.849,0
5.025,-0.018,0
5.026,-3.497,0
5.027,-3.13,0
5.028,-0.018,0
5.029,1.081,0
5.03,-3.13,0
5.031,0.715,0
5.032,-0.567,0
5.033,1.63,0
5.034,-0.384,0
5.035,-0.75,0
5.036,-1.116,0
5.037,-1.299,0
5.038,0.532,0
5.039,-2.947,0
5.04,-1.666,0
5.041,-2.032,0
5.042,1.447,0
5.043,-0.75,0
5.044,1.997,0
5.045,0.898,0
5.046,-0.201,0
5.047,0.532,0
5.048,3.095,0
5.049,0.898,0
5.05,4.194,0
5.051,10.419,0
5.052,5.842,0
5.053,6.574,0
5.054,2.729,0
5.055,3.278,0
5.056,6.391,0
5.057,-2.032,0
5.058,-15.582,0
5.059,-2.764,0
5.06,-7.708,0
5.061,-3.313,0
5.062,-4.595,0
5.063,-3.497,0
5.064,-6.792,0
5.065,-1.849,0
5.066,-2.764,0
5.067,-2.032,0
5.068,-2.764,0
5.069,-0.933,0
5.07,0.898,0
5.071,-2.947,0
5.072,-5.328,0
5.073,0.715,0
5.074,1.447,0
5.075,2.18,0
5.076,0.349,0
5.077,2.18,0
5.078,2.729,0
5.079,-0.567,0
5.08,-1.849,0
5.081,-0.75,0
5.082,0.349,0
5.083,-3.68,0
5.084,-3.313,0
5.085,-0.201,0
5.086,-2.215,0
5.087,-1.849,0
5.088,-2.947,0
5.089,-4.412,0
5.09,-5.145,0
5.091,-4.412,0
5.092,-0.933,0
5.093,0.349,0
5.094,-2.764,0
5.095,-2.398,0
5.096,2.546,0
5.097,0.715,0
5.098,-3.68,0
5.099,4.743,0
5.1,8.222,0
5.101,4.743,0
5.102,8.039,0
5.103,3.095,0
5.104,-8.99,0
5.105,9.321,0
5.106,2.18,0
5.107,-8.807,0
5.108,-6.792,0
5.109,-4.961,0
5.11,-3.313,0
5.111,-1.849,0
5.112,-3.13,0
5.113,-2.032,0
5.114,-0.933,0
5.115,6.025,0
5.116,3.278,0
5.117,2.546,0
5.118,3.278,0
5.119,-0.018,0
5.12,-3.13,0
5.121,-1.482,0
5.122,-2.764,0
5.123,-2.398,0
5.124,-0.384,0
5.125,1.447,0
5.126,1.813,0
5.127,1.081,0
5.128,1.813,0
5.129,3.095,0
5.13,-0.384,0
5.131,-3.68,0
5.132,0.532,0
5.133,4.377,0
5.134,7.673,0
5.135,5.476,0
5.136,2.729,0
5.137,3.828,0
5.138,-0.933,0
5.139,-0.384,0
5.14,0.166,0
5.141,-0.201,0
5.142,1.997,0
5.143,-0.75,0
5.144,2.729,0
5.145,1.447,0
5.146,-4.778,0
5.147,-3.863,0
5.148,-3.13,0
5.149,-3.863,0
5.15,-2.032,0
5.151,-2.032,0
5.152,1.081,0
5.153,3.828,0
5.154,1.447,0
5.155,8.405,0
5.156,-6.792,0
5.157,-8.99,0
5.158,-2.947,0
5.159,-4.778,0
5.16,-6.426,0
5.161,-7.891,0
5.162,-3.863,0
5.163,-2.764,0
5.164,-1.666,0
5.165,-4.595,0
5.166,-1.849,0
5.167,2.18,0
5.168,-0.018,0
5.169,0.532,0
5.17,-1.299,0
5.171,-5.145,0
5.172,-1.849,0
5.173,0.349,0
5.174,-3.497,0
5.175,-0.201,0
5.176,1.997,0
5.177,0.898,0
5.178,2.729,0
5.179,-2.032,0
5.18,-0.201,0
5.181,-0.75,0
5.182,1.63,0
5.183,2.912,0
5.184,0.166,0
5.185,-2.398,0
5.186,-1.299,0
5.187,0.166,0
5.188,-3.497,0
5.189,-1.116,0
5.19,-0.75,0
5.191,-6.976,0
5.192,-4.229,0
5.193,-0.201,0
5.194,3.645,0
5.195,0.349,0
5.196,0.898,0
5.197,3.645,0
5.198,-0.933,0
5.199,-0.384,0
5.2,1.264,0
5.201,-2.032,0
5.202,-0.567,0
5.203,-0.933,0
5.204,5.292,0
5.205,2.546,0
5.206,13.349,0
5.207,14.814,0
5.208,8.039,0
5.209,-3.13,0
5.21,-4.595,0
5.211,-3.313,0
5.212,-2.215,0
5.213,1.081,0
5.214,-1.849,0
5.215,-0.933,0
5.216,1.447,0
5.217,2.18,0
5.218,-1.116,0
5.219,-2.947,0
5.22,-3.497,0
5.221,-5.877,0
5.222,-4.595,0
5.223,-2.581,0
5.224,-3.68,0
5.225,-2.581,0
5.226,-1.849,0
5.227,-1.116,0
5.228,-2.947,0
5.229,-0.384,0
5.23,0.715,0
5.231,4.743,0
5.232,10.969,0
5.233,13.349,0
5.234,15.546,0
5.235,18.842,0
5.236,18.293,0
5.237,21.04,0
5.238,22.321,0
5.239,25.434,0
5.24,19.208,0
5.241,16.462,0
5.242,10.786,0
5.243,12.983,0
5.244,8.405,0
5.245,2.729,0
5.246,-7.342,0
5.247,-16.863,0
5.248,-22.906,0
5.249,-30.779,0
5.25,-33.709,0
5.251,-40.118,0
5.252,-39.385,0
5.253,-30.596,0
5.254,-20.525,0
5.255,-13.75,0
5.256,-5.328,0
5.257,-8.624,0
5.258,-15.582,0
5.259,-29.498,0
5.26,-59.71,0
5.261,-89.922,0
5.262,-125.44,0
5.263,-149.25,0
5.264,-153.46,0
5.265,-149.62,0
5.266,-139,0
5.267,-142.11,0
5.268,-115.37,0
5.269,-68.865,0
5.27,1.081,0
5.271,85.126,0
5.272,141.52,0
5.273,151.78,0
5.274,161.12,0
5.275,135.85,0
5.276,128.16,0
5.277,93.183,0
5.278,86.958,0
5.279,69.746,0
5.28,64.619,0
5.281,59.858,0
5.282,64.069,0
5.283,67.915,0
5.284,78.535,0
5.285,81.647,0
5.286,96.479,0
5.287,99.042,0
5.288,106.18,0
5.289,108.38,0
5.29,106.37,0
5.291,97.211,0
5.292,85.676,0
5.293,66.083,0
5.294,41.914,0
5.295,25.8,0
5.296,17.011,0
5.297,14.448,0
5.298,16.828,0
5.299,1.447,0
5.3,-12.652,0
5.301,-29.131,0
5.302,-44.512,0
5.303,-50.555,0
5.304,-53.301,0
5.305,-55.132,0
5.306,-46.893,0
5.307,-60.442,0
5.308,-43.963,0
5.309,-46.16,0
5.31,-52.203,0
5.311,-57.696,0
5.312,-52.752,0
5.313,-54.217,0
5.314,-52.935,0
5.315,-56.414,0
5.316,-57.513,0
5.317,-52.569,0
5.318,-51.653,0
5.319,-49.273,0
5.32,-47.076,0
5.321,-45.245,0
5.322,-43.414,0
5.323,-40.667,0
5.324,-35.174,0
5.325,-31.329,0
5.326,-26.751,0
5.327,-17.229,0
5.328,-13.201,0
5.329,-19.244,0
5.33,-15.948,0
5.331,-11.004,0
5.332,-10.088,0
5.333,-4.412,0
5.334,-5.145,0
5.335,-0.567,0
5.336,-3.68,0
5.337,0.166,0
5.338,1.447,0
5.339,1.081,0
5.34,4.926,0
5.341,3.645,0
5.342,4.011,0
5.343,5.109,0
5.344,6.94,0
5.345,6.574,0
5.346,8.039,0
5.347,8.771,0
5.348,6.94,0
5.349,9.138,0
5.35,7.307,0
5.351,6.574,0
5.352,6.757,0
5.353,6.208,0
5.354,3.278,0
5.355,4.56,0
5.356,3.461,0
5.357,9.138,0
5.358,11.518,0
5.359,10.786,0
5.36,21.04,0
5.361,16.645,0
5.362,7.124,0
5.363,6.025,0
5.364,7.124,0
5.365,6.208,0
5.366,5.292,0
5.367,6.025,0
5.368,8.222,0
5.369,6.391,0
5.37,1.997,0
5.371,1.447,0
5.372,1.081,0
5.373,-4.961,0
5.374,-2.581,0
5.375,1.264,0
5.376,5.842,0
5.377,4.011,0
5.378,3.461,0
5.379,2.18,0
5.38,3.461,0
5.381,5.476,0
5.382,-0.201,0
5.383,0.532,0
5.384,1.264,0
5.385,1.813,0
5.386,4.926,0
5.387,1.081,0
5.388,-0.201,0
5.389,-0.567,0
5.39,-1.666,0
5.391,0.166,0
5.392,-1.666,0
5.393,1.63,0
5.394,-1.482,0
5.395,2.363,0
5.396,-0.018,0
5.397,3.095,0
5.398,1.997,0
5.399,5.476,0
5.4,3.278,0
5.401,-2.947,0
5.402,-3.863,0
5.403,0.166,0
5.404,0.898,0
5.405,1.447,0
5.406,-2.764,0
5.407,-0.933,0
5.408,5.292,0
5.409,6.025,0
5.41,-5.511,0
5.411,12.8,0
5.412,0.715,0
5.413,2.912,0
5.414,0.898,0
5.415,-0.933,0
5.416,-2.581,0
5.417,-1.116,0
5.418,-2.398,0
5.419,-3.497,0
5.42,-4.595,0
5.421,-3.68,0
5.422,-2.764,0
5.423,-3.497,0
5.424,-1.299,0
5.425,-1.849,0
5.426,-2.398,0
5.427,-2.947,0
5.428,-1.666,0
5.429,-1.299,0
5.43,-0.933,0
5.431,-0.567,0
5.432,-2.398,0
5.433,-4.412,0
5.434,-0.201,0
5.435,5.476,0
5.436,3.278,0
5.437,2.729,0
5.438,-1.666,0
5.439,3.461,0
5.44,-1.116,0
5.441,-4.229,0
5.442,-1.482,0
5.443,-2.764,0
5.444,-1.482,0
5.445,-1.849,0
5.446,-2.215,0
5.447,-2.581,0
5.448,-4.046,0
5.449,0.166,0
5.45,3.278,0
5.451,2.729,0
5.452,0.349,0
5.453,2.546,0
5.454,-2.032,0
5.455,-0.201,0
5.456,0.349,0
5.457,-2.764,0
5.458,-2.398,0
5.459,4.56,0
5.46,7.49,0
5.461,12.067,0
5.462,9.687,0
5.463,1.264,0
5.464,-4.412,0
5.465,0.532,0
5.466,-0.384,0
5.467,1.997,0
5.468,-1.849,0
5.469,-3.68,0
5.47,-4.229,0
5.471,-4.778,0
5.472,-5.145,0
5.473,-3.863,0
5.474,-3.497,0
5.475,-6.06,0
5.476,-6.426,0
5.477,-1.849,0
5.478,-2.398,0
5.479,-0.567,0
5.48,-4.412,0
5.481,-1.116,0
5.482,0.166,0
5.483,-1.849,0
5.484,-2.215,0
5.485,-1.849,0
5.486,-1.116,0
5.487,-1.299,0
5.488,-1.116,0
5.489,-2.215,0
5.49,-1.116,0
5.491,-3.68,0
5.492,1.813,0
5.493,11.884,0
5.494,5.109,0
5.495,-3.313,0
5.496,-2.215,0
5.497,2.729,0
5.498,-0.018,0
5.499,0.715,0
5.5,-1.482,0
5.501,-0.933,0
5.502,-1.482,0
5.503,-4.229,0
5.504,-3.863,0
5.505,-6.976,0
5.506,-5.877,0
5.507,-0.933,0
5.508,-1.299,0
5.509,-4.595,0
5.51,4.926,0
5.511,6.208,0
5.512,7.307,0
5.513,6.208,0
5.514,7.124,0
5.515,13.532,0
5.516,12.8,0
5.517,7.49,0
5.518,-0.018,0
5.519,0.898,0
5.52,1.813,0
5.521,-2.215,0
5.522,-4.412,0
5.523,-6.243,0
5.524,-6.792,0
5.525,-4.046,0
5.526,-5.328,0
5.527,-0.201,0
5.528,-0.75,0
5.529,-3.863,0
5.53,-2.215,0
5.531,-2.581,0
5.532,0.532,0
5.533,-0.567,0
5.534,1.997,0
5.535,0.898,0
5.536,1.63,0
5.537,-2.581,0
5.538,-3.13,0
5.539,-4.778,0
5.54,-6.06,0
5.541,-0.933,0
5.542,-2.764,0
5.543,0.349,0
5.544,-1.299,0
5.545,-1.666,0
5.546,3.461,0
5.547,1.63,0
5.548,2.18,0
5.549,1.63,0
5.55,2.912,0
5.551,-0.201,0
5.552,0.898,0
5.553,1.997,0
5.554,3.828,0
5.555,0.532,0
5.556,-0.75,0
5.557,-3.497,0
5.558,-1.666,0
5.559,-0.567,0
5.56,1.997,0
5.561,6.574,0
5.562,6.025,0
5.563,-2.215,0
5.564,12.617,0
5.565,6.574,0
5.566,4.743,0
5.567,-0.201,0
5.568,-1.666,0
5.569,-5.694,0
5.57,0.349,0
5.571,-0.75,0
5.572,-1.666,0
5.573,6.757,0
5.574,5.659,0
5.575,-1.299,0
5.576,-0.384,0
5.577,-2.764,0
5.578,-0.567,0
5.579,-2.398,0
5.58,0.715,0
5.581,-0.933,0
5.582,2.363,0
5.583,1.997,0
5.584,-0.018,0
5.585,1.081,0
5.586,-1.482,0
5.587,-2.947,0
5.588,-2.215,0
5.589,-2.032,0
5.59,-5.511,0
5.591,-3.13,0
5.592,-0.933,0
5.593,-2.032,0
5.594,-0.933,0
5.595,0.898,0
5.596,-1.116,0
5.597,-0.384,0
5.598,2.546,0
5.599,2.18,0
5.6,2.546,0
5.601,1.813,0
5.602,-1.849,0
5.603,-0.567,0
5.604,-0.201,0
5.605,-2.947,0
5.606,-1.849,0
5.607,-2.947,0
5.608,-2.764,0
5.609,-2.032,0
5.61,-2.764,0
5.611,-1.482,0
5.612,1.997,0
5.613,3.278,0
5.614,4.56,0
5.615,3.461,0
5.616,4.56,0
5.617,1.997,0
5.618,6.574,0
5.619,4.743,0
5.62,-4.778,0
5.621,-0.75,0
5.622,2.729,0
5.623,-5.145,0
5.624,-6.06,0
5.625,-5.145,0
5.626,-4.412,0
5.627,-2.215,0
5.628,-4.046,0
5.629,-2.215,0
5.63,-3.863,0
5.631,-2.581,0
5.632,-0.384,0
5.633,-3.13,0
5.634,-1.299,0
5.635,0.532,0
5.636,2.546,0
5.637,-1.116,0
5.638,0.166,0
5.639,-2.947,0
5.64,-5.694,0
5.641,-2.215,0
5.642,-0.018,0
5.643,-0.384,0
5.644,-3.863,0
5.645,-0.75,0
5.646,-3.497,0
5.647,-0.933,0
5.648,-2.764,0
5.649,-2.032,0
5.65,-0.75,0
5.651,-1.482,0
5.652,-1.299,0
5.653,0.166,0
5.654,-2.032,0
5.655,-3.313,0
5.656,-4.046,0
5.657,-1.849,0
5.658,-0.567,0
5.659,-1.849,0
5.66,-2.032,0
5.661,-3.497,0
5.662,-0.201,0
5.663,4.926,0
5.664,0.349,0
5.665,9.87,0
5.666,8.588,0
5.667,-2.581,0
5.668,1.813,0
5.669,-2.215,0
5.67,-1.116,0
5.671,-4.412,0
5.672,-5.328,0
5.673,-6.243,0
5.674,-2.215,0
5.675,-1.482,0
5.676,-2.032,0
5.677,-0.201,0
5.678,-1.849,0
5.679,0.532,0
5.68,-1.666,0
5.681,0.349,0
5.682,1.447,0
5.683,4.743,0
5.684,0.166,0
5.685,0.715,0
5.686,-3.13,0
5.687,-2.764,0
5.688,0.349,0
5.689,-0.75,0
5.69,-2.581,0
5.691,-0.75,0
5.692,-3.497,0
5.693,-0.933,0
5.694,-2.764,0
5.695,1.813,0
5.696,2.363,0
5.697,0.532,0
5.698,2.18,0
5.699,1.813,0
5.7,0.532,0
5.701,-2.215,0
5.702,-0.384,0
5.703,-0.018,0
5.704,-3.313,0
5.705,-2.947,0
5.706,-1.849,0
5.707,-5.328,0
5.708,-3.13,0
5.709,1.447,0
5.71,0.898,0
5.711,1.447,0
5.712,3.095,0
5.713,3.461,0
5.714,10.419,0
5.715,13.349,0
5.716,8.771,0
5.717,3.095,0
5.718,0.898,0
5.719,2.729,0
5.72,7.124,0
5.721,5.476,0
5.722,10.053,0
5.723,6.94,0
5.724,-1.482,0
5.725,-7.525,0
5.726,-4.229,0
5.727,-5.145,0
5.728,-4.229,0
5.729,-3.497,0
5.73,0.349,0
5.731,-2.947,0
5.732,-1.116,0
5.733,0.532,0
5.734,1.813,0
5.735,-5.145,0
5.736,-2.215,0
5.737,-3.13,0
5.738,-0.75,0
5.739,-2.947,0
5.74,-1.116,0
5.741,-1.666,0
5.742,3.461,0
5.743,1.63,0
5.744,-1.482,0
5.745,-2.032,0
5.746,-5.328,0
5.747,0.715,0
5.748,1.447,0
5.749,5.292,0
5.75,1.997,0
5.751,0.166,0
5.752,0.715,0
5.753,1.081,0
5.754,-3.13,0
5.755,-3.68,0
5.756,-4.961,0
5.757,0.166,0
5.758,-0.384,0
5.759,1.447,0
5.76,-0.201,0
5.761,-1.482,0
5.762,-0.201,0
5.763,2.363,0
5.764,-0.384,0
5.765,5.292,0
5.766,6.025,0
5.767,14.448,0
5.768,4.194,0
5.769,-5.328,0
5.77,-4.229,0
5.771,-0.933,0
5.772,-0.018,0
5.773,-0.933,0
5.774,-4.961,0
5.775,-2.764,0
5.776,-4.595,0
5.777,-2.764,0
5.778,-1.116,0
5.779,-2.398,0
5.78,-3.68,0
5.781,-4.778,0
5.782,-3.68,0
5.783,1.081,0
5.784,0.532,0
5.785,-1.116,0
5.786,0.166,0
5.787,1.447,0
5.788,-0.567,0
5.789,-1.666,0
5.79,-1.299,0
5.791,-2.032,0
5.792,-0.75,0
5.793,3.278,0
5.794,4.926,0
5.795,2.546,0
5.796,-1.666,0
5.797,-1.116,0
5.798,-0.75,0
5.799,-1.116,0
5.8,-3.863,0
5.801,-1.299,0
5.802,1.997,0
5.803,-1.849,0
5.804,-1.482,0
5.805,-2.764,0
5.806,-0.75,0
5.807,-1.849,0
5.808,-0.018,0
5.809,-1.482,0
5.81,-3.313,0
5.811,0.166,0
5.812,0.532,0
5.813,-2.215,0
5.814,2.363,0
5.815,-1.116,0
5.816,1.997,0
5.817,4.011,0
5.818,1.447,0
5.819,6.94,0
5.82,4.743,0
5.821,-5.511,0
5.822,-4.046,0
5.823,-0.018,0
5.824,1.081,0
5.825,13.532,0
5.826,11.884,0
5.827,4.377,0
5.828,-2.398,0
5.829,-1.299,0
5.83,-2.398,0
5.831,-1.482,0
5.832,-2.398,0
5.833,-0.018,0
5.834,-2.215,0
5.835,-1.666,0
5.836,-4.778,0
5.837,-0.933,0
5.838,-2.215,0
5.839,-0.933,0
5.84,-0.567,0
5.841,-1.666,0
5.842,-2.764,0
5.843,-1.299,0
5.844,-0.018,0
5.845,0.166,0
5.846,0.349,0
5.847,-2.032,0
5.848,-0.018,0
5.849,-1.299,0
5.85,-3.68,0
5.851,0.898,0
5.852,-0.933,0
5.853,-1.482,0
5.854,-0.933,0
5.855,1.447,0
5.856,-1.666,0
5.857,-1.299,0
5.858,1.264,0
5.859,-2.764,0
5.86,-1.482,0
5.861,-0.201,0
5.862,0.898,0
5.863,-0.201,0
5.864,-4.229,0
5.865,0.898,0
5.866,2.18,0
5.867,9.138,0
5.868,-2.032,0
5.869,11.518,0
5.87,9.687,0
5.871,-1.849,0
5.872,-6.243,0
5.873,-2.215,0
5.874,-3.313,0
5.875,-2.215,0
5.876,-3.13,0
5.877,-0.384,0
5.878,0.349,0
5.879,-1.849,0
5.88,-2.398,0
5.881,-1.849,0
5.882,-2.398,0
5.883,-3.68,0
5.884,-1.482,0
5.885,-4.229,0
5.886,-2.398,0
5.887,-4.229,0
5.888,-4.961,0
5.889,-5.694,0
5.89,-4.412,0
5.891,-0.933,0
5.892,-2.215,0
5.893,-2.581,0
5.894,-0.567,0
5.895,1.997,0
5.896,0.898,0
5.897,0.166,0
5.898,0.898,0
5.899,3.278,0
5.9,2.546,0
5.901,3.278,0
5.902,1.447,0
5.903,2.546,0
5.904,1.081,0
5.905,-1.849,0
5.906,-4.595,0
5.907,-3.497,0
5.908,-5.328,0
5.909,-2.032,0
5.91,-1.666,0
5.911,-0.567,0
5.912,1.997,0
5.913,2.363,0
5.914,2.546,0
5.915,2.363,0
5.916,3.095,0
5.917,2.363,0
5.918,5.842,0
5.919,8.222,0
5.92,6.94,0
5.921,4.194,0
5.922,5.292,0
5.923,10.053,0
5.924,10.603,0
5.925,2.18,0
5.926,-3.863,0
5.927,-2.764,0
5.928,-5.694,0
5.929,-4.778,0
5.93,-0.75,0
5.931,-0.018,0
5.932,3.278,0
5.933,1.447,0
5.934,4.194,0
5.935,3.828,0
5.936,0.715,0
5.937,-3.13,0
5.938,-1.849,0
5.939,-3.13,0
5.94,-4.229,0
5.941,-5.328,0
5.942,0.166,0
5.943,-2.032,0
5.944,-0.201,0
5.945,-3.313,0
5.946,-4.961,0
5.947,-3.68,0
5.948,-4.961,0
5.949,1.264,0
5.95,-1.482,0
5.951,-0.75,0
5.952,-0.018,0
5.953,-1.849,0
5.954,-6.243,0
5.955,-4.595,0
5.956,-4.961,0
5.957,-4.595,0
5.958,-5.694,0
5.959,-6.792,0
5.96,-6.426,0
5.961,-3.13,0
5.962,-0.933,0
5.963,1.813,0
5.964,-3.13,0
5.965,0.166,0
5.966,-1.666,0
5.967,3.095,0
5.968,5.842,0
5.969,11.335,0
5.97,6.025,0
5.971,2.729,0
5.972,5.842,0
5.973,5.292,0
5.974,9.87,0
5.975,0.349,0
5.976,-9.173,0
5.977,-0.75,0
5.978,-4.046,0
5.979,-3.13,0
5.98,-0.384,0
5.981,-1.116,0
5.982,1.081,0
5.983,-2.215,0
5.984,-2.764,0
5.985,-4.412,0
5.986,-3.13,0
5.987,-3.497,0
5.988,-2.398,0
5.989,-2.764,0
5.99,-1.666,0
5.991,-3.68,0
5.992,-1.116,0
5.993,-2.947,0
5.994,-1.482,0
5.995,0.349,0
5.996,1.63,0
5.997,1.081,0
5.998,1.63,0
5.999,2.912,0
6,3.095,0
6.001,1.081,0
6.002,-0.018,0
6.003,-0.75,0
6.004,2.912,0
6.005,-1.666,0
6.006,0.166,0
6.007,-1.482,0
6.008,-1.116,0
6.009,0.166,0
6.01,0.532,0
6.011,-2.947,0
6.012,-2.581,0
6.013,-1.482,0
6.014,1.081,0
6.015,-1.482,0
6.016,-1.299,0
6.017,0.532,0
6.018,-0.567,0
6.019,0.715,0
6.02,4.194,0
6.021,5.476,0
6.022,5.109,0
6.023,5.476,0
6.024,3.645,0
6.025,2.546,0
6.026,4.56,0
6.027,5.842,0
6.028,6.025,0
6.029,5.476,0
6.03,8.771,0
6.031,1.813,0
6.032,0.898,0
6.033,11.152,0
6.034,15.18,0
6.035,18.659,0
6.036,21.955,0
6.037,19.025,0
6.038,19.941,0
6.039,10.786,0
6.04,9.687,0
6.041,6.391,0
6.042,5.476,0
6.043,0.898,0
6.044,-4.778,0
6.045,-16.314,0
6.046,-21.258,0
6.047,-28.765,0
6.048,-35.54,0
6.049,-39.019,0
6.05,-40.118,0
6.051,-28.948,0
6.052,-18.511,0
6.053,-17.229,0
6.054,-18.328,0
6.055,-28.582,0
6.056,-43.597,0
6.057,-61.724,0
6.058,-88.458,0
6.059,-106.22,0
6.06,-135.52,0
6.061,-147.23,0
6.062,-143.75,0
6.063,-146.87,0
6.064,-138.08,0
6.065,-113.91,0
6.066,-97.796,0
6.067,-65.203,0
6.068,-0.201,0
6.069,101.24,0
6.07,147.93,0
6.071,173.2,0
6.072,165.51,0
6.073,158.55,0
6.074,139.69,0
6.075,122.48,0
6.076,117.35,0
6.077,103.07,0
6.078,90.253,0
6.079,86.408,0
6.08,97.028,0
6.081,100.14,0
6.082,103.07,0
6.083,100.51,0
6.084,88.422,0
6.085,90.62,0
6.086,92.634,0
6.087,94.465,0
6.088,96.113,0
6.089,76.521,0
6.09,57.844,0
6.091,35.871,0
6.092,15.18,0
6.093,12.617,0
6.094,5.476,0
6.095,3.278,0
6.096,-2.764,0
6.097,-15.582,0
6.098,-27.117,0
6.099,-40.667,0
6.1,-46.16,0
6.101,-54.4,0
6.102,-52.935,0
6.103,-59.71,0
6.104,-63.189,0
6.105,-62.09,0
6.106,-59.161,0
6.107,-54.583,0
6.108,-56.963,0
6.109,-60.809,0
6.11,-57.513,0
6.111,-58.062,0
6.112,-56.414,0
6.113,-55.132,0
6.114,-53.851,0
6.115,-54.217,0
6.116,-50.738,0
6.117,-47.625,0
6.118,-47.259,0
6.119,-41.583,0
6.12,-36.456,0
6.121,-32.427,0
6.122,-20.892,0
6.123,-22.54,0
6.124,-18.145,0
6.125,-11.37,0
6.126,-7.891,0
6.127,-6.792,0
6.128,-3.863,0
6.129,-4.778,0
6.13,-0.75,0
6.131,3.095,0
6.132,13.349,0
6.133,11.884,0
6.134,7.856,0
6.135,-0.567,0
6.136,-3.863,0
6.137,1.081,0
6.138,3.828,0
6.139,-0.201,0
6.14,3.645,0
6.141,3.095,0
6.142,3.645,0
6.143,1.997,0
6.144,1.63,0
6.145,1.997,0
6.146,1.63,0
6.147,5.109,0
6.148,10.236,0
6.149,8.405,0
6.15,7.856,0
6.151,9.504,0
6.152,8.222,0
6.153,6.025,0
6.154,7.124,0
6.155,8.222,0
6.156,4.926,0
6.157,7.673,0
6.158,4.194,0
6.159,7.307,0
6.16,9.321,0
6.161,6.757,0
6.162,7.124,0
6.163,7.307,0
6.164,9.138,0
6.165,7.307,0
6.166,5.109,0
6.167,7.673,0
6.168,5.109,0
6.169,2.363,0
6.17,4.926,0
6.171,2.363,0
6.172,1.264,0
6.173,5.842,0
6.174,7.673,0
6.175,-1.849,0
6.176,13.166,0
6.177,11.152,0
6.178,1.997,0
6.179,0.349,0
6.18,1.813,0
6.181,0.532,0
6.182,-2.947,0
6.183,2.729,0
6.184,1.813,0
6.185,-0.933,0
6.186,-0.201,0
6.187,-0.933,0
6.188,-1.482,0
6.189,-0.933,0
6.19,-0.384,0
6.191,-0.75,0
6.192,0.532,0
6.193,-2.215,0
6.194,1.997,0
6.195,0.349,0
6.196,-0.933,0
6.197,-2.215,0
6.198,1.63,0
6.199,-0.75,0
6.2,0.532,0
6.201,0.898,0
6.202,-1.666,0
6.203,0.898,0
6.204,2.912,0
6.205,-0.75,0
6.206,1.63,0
6.207,-2.581,0
6.208,0.166,0
6.209,-3.13,0
6.21,-2.764,0
6.211,-2.398,0
6.212,1.813,0
6.213,-2.032,0
6.214,0.349,0
6.215,2.546,0
6.216,-0.201,0
6.217,0.898,0
6.218,2.729,0
6.219,-0.018,0
6.22,-0.384,0
6.221,-0.018,0
6.222,-1.299,0
6.223,-0.567,0
6.224,3.645,0
6.225,3.095,0
6.226,9.321,0
6.227,8.588,0
6.228,3.278,0
6.229,-0.018,0
6.23,-1.849,0
6.231,-0.201,0
6.232,-2.581,0
6.233,1.63,0
6.234,1.081,0
6.235,-1.299,0
6.236,-1.666,0
6.237,-4.412,0
6.238,-4.046,0
6.239,-2.215,0
6.24,-3.68,0
6.241,-1.116,0
6.242,-3.68,0
6.243,-3.497,0
6.244,-2.215,0
6.245,-0.384,0
6.246,-3.863,0
6.247,0.715,0
6.248,0.166,0
6.249,-0.384,0
6.25,-1.666,0
6.251,0.532,0
6.252,3.278,0
6.253,-0.201,0
6.254,0.166,0
6.255,-0.933,0
6.256,0.898,0
6.257,-3.13,0
6.258,-5.511,0
6.259,-3.313,0
6.26,-2.947,0
6.261,-3.313,0
6.262,-0.75,0
6.263,-2.764,0
6.264,-2.032,0
6.265,-4.961,0
6.266,-1.482,0
6.267,2.729,0
6.268,1.081,0
6.269,-3.497,0
6.27,-1.666,0
6.271,-2.215,0
6.272,-3.497,0
6.273,-0.567,0
6.274,-2.764,0
6.275,3.461,0
6.276,0.715,0
6.277,1.447,0
6.278,-6.976,0
6.279,10.053,0
6.28,7.673,0
6.281,-3.313,0
6.282,-5.328,0
6.283,-3.497,0
6.284,-1.849,0
6.285,-3.313,0
6.286,-2.032,0
6.287,-0.933,0
6.288,-2.032,0
6.289,-2.947,0
6.29,-2.032,0
6.291,-1.299,0
6.292,-3.497,0
6.293,-2.947,0
6.294,-2.398,0
6.295,-2.947,0
6.296,-0.567,0
6.297,-0.201,0
6.298,-2.215,0
6.299,-1.849,0
6.3,-1.482,0
6.301,-0.75,0
6.302,-2.032,0
6.303,-0.75,0
6.304,1.813,0
6.305,-1.482,0
6.306,-0.384,0
6.307,-0.75,0
6.308,-2.581,0
6.309,-1.116,0
6.31,2.546,0
6.311,4.926,0
6.312,-2.032,0
6.313,0.898,0
6.314,-0.018,0
6.315,-0.75,0
6.316,1.447,0
6.317,1.997,0
6.318,-1.116,0
6.319,0.532,0
6.32,-0.75,0
6.321,-2.947,0
6.322,-1.849,0
6.323,-2.947,0
6.324,-2.764,0
6.325,-0.933,0
6.326,3.645,0
6.327,13.898,0
6.328,9.504,0
6.329,5.476,0
6.33,-0.567,0
6.331,0.532,0
6.332,1.447,0
6.333,0.532,0
6.334,-3.497,0
6.335,-2.764,0
6.336,-2.215,0
6.337,-0.384,0
6.338,-3.13,0
6.339,-1.849,0
6.34,-3.13,0
6.341,-1.116,0
6.342,-0.018,0
6.343,-1.116,0
6.344,0.349,0
6.345,-3.863,0
6.346,0.532,0
6.347,-0.018,0
6.348,0.349,0
6.349,3.461,0
6.35,1.447,0
6.351,1.081,0
6.352,1.447,0
6.353,1.63,0
6.354,-1.482,0
6.355,1.264,0
6.356,-2.215,0
6.357,-0.933,0
6.358,0.166,0
6.359,3.645,0
6.36,-1.482,0
6.361,1.813,0
6.362,3.645,0
6.363,-0.201,0
6.364,-1.482,0
6.365,-0.201,0
6.366,2.546,0
6.367,3.645,0
6.368,4.011,0
6.369,1.997,0
6.37,0.715,0
6.371,-2.764,0
6.372,-1.482,0
6.373,1.264,0
6.374,0.898,0
6.375,3.095,0
6.376,1.264,0
6.377,5.842,0
6.378,6.391,0
6.379,10.786,0
6.38,8.039,0
6.381,0.532,0
6.382,-0.567,0
6.383,0.349,0
6.384,-0.567,0
6.385,-4.595,0
6.386,-2.398,0
6.387,-4.229,0
6.388,-1.116,0
6.389,0.532,0
6.39,-0.75,0
6.391,-3.863,0
6.392,-1.116,0
6.393,-0.75,0
6.394,1.081,0
6.395,0.898,0
6.396,-2.215,0
6.397,-1.116,0
6.398,-2.947,0
6.399,-2.581,0
6.4,1.997,0
6.401,-1.299,0
6.402,-0.75,0
6.403,-0.201,0
6.404,-0.567,0
6.405,-3.68,0
6.406,-2.581,0
6.407,0.898,0
6.408,-3.313,0
6.409,-1.666,0
6.41,-2.947,0
6.411,-3.313,0
6.412,-1.299,0
6.413,-0.201,0
6.414,-2.032,0
6.415,-3.497,0
6.416,-2.764,0
6.417,0.715,0
6.418,-2.398,0
6.419,-0.384,0
6.42,-3.863,0
6.421,-2.581,0
6.422,-2.215,0
6.423,-3.313,0
6.424,-0.75,0
6.425,-3.497,0
6.426,0.166,0
6.427,2.729,0
6.428,8.222,0
6.429,4.377,0
6.43,2.546,0
6.431,12.067,0
6.432,8.039,0
6.433,-10.455,0
6.434,-7.891,0
6.435,-5.511,0
6.436,-7.708,0
6.437,-1.666,0
6.438,-7.159,0
6.439,-5.511,0
6.44,-6.976,0
6.441,-2.947,0
6.442,-1.849,0
6.443,-2.947,0
6.444,-5.877,0
6.445,0.532,0
6.446,-0.201,0
6.447,-0.933,0
6.448,-5.511,0
6.449,-3.68,0
6.45,-2.032,0
6.451,-0.75,0
6.452,0.532,0
6.453,0.898,0
6.454,-1.666,0
6.455,-0.567,0
6.456,-2.581,0
6.457,-1.299,0
6.458,-2.032,0
6.459,-1.482,0
6.46,-0.384,0
6.461,-2.215,0
6.462,-0.75,0
6.463,0.715,0
6.464,-1.482,0
6.465,-2.764,0
6.466,1.264,0
6.467,1.813,0
6.468,-0.567,0
6.469,-0.201,0
6.47,-1.299,0
6.471,-3.863,0
6.472,0.166,0
6.473,0.532,0
6.474,-3.68,0
6.475,-4.229,0
6.476,-5.511,0
6.477,0.898,0
6.478,2.18,0
6.479,8.405,0
6.48,14.814,0
6.481,12.434,0
6.482,4.011,0
6.483,-1.666,0
6.484,-0.75,0
6.485,1.997,0
6.486,-2.032,0
6.487,-4.229,0
6.488,-3.68,0
6.489,-3.13,0
6.49,-5.877,0
6.491,-3.497,0
6.492,-3.13,0
6.493,-2.032,0
6.494,0.532,0
6.495,-0.567,0
6.496,-1.299,0
6.497,0.532,0
6.498,-1.299,0
6.499,-0.75,0
6.5,-2.764,0
6.501,-4.046,0
6.502,-0.567,0
6.503,-0.201,0
6.504,-0.567,0
6.505,0.532,0
6.506,-0.567,0
6.507,-2.398,0
6.508,-0.384,0
6.509,-0.567,0
6.51,-3.497,0
6.511,-0.933,0
6.512,-0.567,0
6.513,0.898,0
6.514,-0.384,0
6.515,-1.116,0
6.516,-2.215,0
6.517,0.166,0
6.518,0.349,0
6.519,0.166,0
6.52,0.898,0
6.521,-2.215,0
6.522,0.532,0
6.523,-1.299,0
6.524,-0.933,0
6.525,-2.947,0
6.526,0.166,0
6.527,-2.581,0
6.528,-2.764,0
6.529,-0.933,0
6.53,4.56,0
6.531,8.405,0
6.532,11.701,0
6.533,8.588,0
6.534,6.94,0
6.535,3.645,0
6.536,3.278,0
6.537,4.377,0
6.538,0.898,0
6.539,-1.299,0
6.54,1.447,0
6.541,2.546,0
6.542,2.912,0
6.543,1.447,0
6.544,-2.215,0
6.545,1.081,0
6.546,4.194,0
6.547,3.095,0
6.548,0.532,0
6.549,3.828,0
6.55,-2.398,0
6.551,-5.145,0
6.552,-4.412,0
6.553,-2.215,0
6.554,-4.046,0
6.555,-2.215,0
6.556,1.63,0
6.557,1.997,0
6.558,-3.13,0
6.559,-1.299,0
6.56,8.222,0
6.561,4.194,0
6.562,-4.229,0
6.563,10.603,0
6.564,0.532,0
6.565,-1.299,0
6.566,0.349,0
6.567,-1.116,0
6.568,0.166,0
6.569,-3.313,0
6.57,-2.215,0
6.571,-3.13,0
6.572,-5.877,0
6.573,-3.497,0
6.574,-1.299,0
6.575,-4.595,0
6.576,-4.046,0
6.577,-2.398,0
6.578,0.898,0
6.579,0.898,0
6.58,0.532,0
6.581,6.757,0
6.582,17.011,0
6.583,10.236,0
6.584,6.757,0
6.585,1.081,0
6.586,-1.849,0
6.587,-4.595,0
6.588,-0.567,0
6.589,-2.764,0
6.59,-2.215,0
6.591,2.18,0
6.592,-0.567,0
6.593,-0.933,0
6.594,-3.13,0
6.595,-1.116,0
6.596,-1.482,0
6.597,-0.384,0
6.598,0.349,0
6.599,-0.384,0
6.6,0.349,0
6.601,2.546,0
6.602,-1.666,0
6.603,-1.116,0
6.604,-1.666,0
6.605,0.715,0
6.606,0.349,0
6.607,-1.666,0
6.608,-2.032,0
6.609,-1.666,0
6.61,-0.933,0
6.611,0.349,0
6.612,1.081,0
6.613,-2.398,0
6.614,-0.018,0
6.615,0.349,0
6.616,-0.018,0
6.617,2.546,0
6.618,-1.482,0
6.619,-0.201,0
6.62,1.997,0
6.621,-3.497,0
6.622,-1.299,0
6.623,-0.75,0
6.624,-0.201,0
6.625,-1.849,0
6.626,-3.13,0
6.627,-0.933,0
6.628,2.912,0
6.629,0.532,0
6.63,-1.299,0
6.631,-0.018,0
6.632,6.208,0
6.633,-4.046,0
6.634,10.969,0
6.635,8.955,0
6.636,-0.201,0
6.637,-1.849,0
6.638,-3.313,0
6.639,-4.595,0
6.64,-5.694,0
6.641,-4.595,0
6.642,-3.68,0
6.643,-2.764,0
6.644,-3.497,0
6.645,-1.299,0
6.646,-1.849,0
6.647,-1.299,0
6.648,-1.849,0
6.649,-2.215,0
6.65,-0.933,0
6.651,-1.299,0
6.652,-3.13,0
6.653,-2.764,0
6.654,-3.497,0
6.655,-0.384,0
6.656,-2.398,0
6.657,-3.497,0
6.658,-0.933,0
6.659,1.813,0
6.66,-1.666,0
6.661,-2.032,0
6.662,0.715,0
6.663,0.349,0
6.664,-0.018,0
6.665,0.715,0
6.666,2.546,0
6.667,-1.482,0
6.668,-0.933,0
6.669,-0.567,0
6.67,1.63,0
6.671,-2.215,0
6.672,-5.511,0
6.673,0.532,0
6.674,4.56,0
6.675,0.715,0
6.676,-2.581,0
6.677,-3.13,0
6.678,-1.482,0
6.679,-2.764,0
6.68,-2.398,0
6.681,-2.032,0
6.682,2.546,0
6.683,12.067,0
6.684,2.546,0
6.685,21.04,0
6.686,13.166,0
6.687,6.025,0
6.688,-0.567,0
6.689,-2.581,0
6.69,-0.75,0
6.691,-2.398,0
6.692,-3.863,0
6.693,-2.581,0
6.694,-1.482,0
6.695,-2.581,0
6.696,-1.666,0
6.697,1.081,0
6.698,-1.299,0
6.699,-2.032,0
6.7,-3.863,0
6.701,-0.75,0
6.702,-0.201,0
6.703,1.081,0
6.704,-3.13,0
6.705,-1.482,0
6.706,-2.764,0
6.707,-2.398,0
6.708,-3.497,0
6.709,-1.666,0
6.71,-2.764,0
6.711,-1.299,0
6.712,-1.116,0
6.713,-0.384,0
6.714,2.18,0
6.715,1.081,0
6.716,3.095,0
6.717,1.264,0
6.718,4.743,0
6.719,0.532,0
6.72,-1.116,0
6.721,-2.398,0
6.722,2.729,0
6.723,-0.567,0
6.724,-3.68,0
6.725,-3.13,0
6.726,-1.849,0
6.727,-2.215,0
6.728,1.63,0
6.729,-0.75,0
6.73,0.532,0
6.731,-3.313,0
6.732,0.166,0
6.733,-0.201,0
6.734,6.757,0
6.735,5.842,0
6.736,16.096,0
6.737,14.814,0
6.738,3.645,0
6.739,-0.75,0
6.74,-4.778,0
6.741,-1.299,0
6.742,-2.398,0
6.743,-5.328,0
6.744,-2.581,0
6.745,-0.201,0
6.746,-4.046,0
6.747,-2.215,0
6.748,0.898,0
6.749,-1.849,0
6.75,-2.215,0
6.751,-0.018,0
6.752,-0.384,0
6.753,-1.482,0
6.754,-1.849,0
6.755,0.166,0
6.756,-1.666,0
6.757,-3.497,0
6.758,-2.032,0
6.759,-0.567,0
6.76,-3.497,0
6.761,-1.482,0
6.762,-2.581,0
6.763,0.715,0
6.764,-0.384,0
6.765,1.447,0
6.766,0.349,0
6.767,1.081,0
6.768,0.349,0
6.769,1.081,0
6.77,-0.018,0
6.771,1.081,0
6.772,0.166,0
6.773,1.081,0
6.774,-0.933,0
6.775,-2.032,0
6.776,-0.018,0
6.777,-0.75,0
6.778,-0.567,0
6.779,-0.384,0
6.78,0.166,0
6.781,-2.764,0
6.782,-1.666,0
6.783,0.898,0
6.784,-0.201,0
6.785,5.292,0
6.786,6.025,0
6.787,5.476,0
6.788,12.434,0
6.789,2.18,0
6.79,-4.595,0
6.791,-1.116,0
6.792,-2.215,0
6.793,0.715,0
6.794,-2.032,0
6.795,-1.299,0
6.796,-5.145,0
6.797,-0.567,0
6.798,-4.961,0
6.799,-1.116,0
6.8,-0.75,0
6.801,-2.947,0
6.802,3.278,0
6.803,2.363,0
6.804,-3.313,0
6.805,-4.046,0
6.806,-3.497,0
6.807,-0.384,0
6.808,-7.708,0
6.809,-2.764,0
6.81,-3.68,0
6.811,-2.947,0
6.812,-0.75,0
6.813,-0.201,0
6.814,-3.313,0
6.815,-1.666,0
6.816,-0.384,0
6.817,-0.75,0
6.818,-0.384,0
6.819,2.18,0
6.82,3.278,0
6.821,5.292,0
6.822,1.63,0
6.823,0.349,0
6.824,-0.933,0
6.825,-1.299,0
6.826,-3.863,0
6.827,-3.497,0
6.828,-2.032,0
6.829,-1.849,0
6.83,1.081,0
6.831,2.912,0
6.832,1.081,0
6.833,1.813,0
6.834,3.828,0
6.835,0.715,0
6.836,6.94,0
6.837,13.349,0
6.838,12.617,0
6.839,1.081,0
6.84,-0.567,0
6.841,-4.961,0
6.842,-0.933,0
6.843,-2.032,0
6.844,-0.933,0
6.845,-1.849,0
6.846,-2.764,0
6.847,1.264,0
6.848,3.461,0
6.849,6.757,0
6.85,2.363,0
6.851,4.011,0
6.852,6.391,0
6.853,1.264,0
6.854,1.813,0
6.855,-0.018,0
6.856,-1.666,0
6.857,-2.032,0
6.858,-2.398,0
6.859,0.349,0
6.86,-4.595,0
6.861,-5.145,0
6.862,-6.976,0
6.863,-5.328,0
6.864,-4.046,0
6.865,-2.764,0
6.866,-5.511,0
6.867,-2.032,0
6.868,-2.398,0
6.869,-2.032,0
6.87,-4.595,0
6.871,0.166,0
6.872,-1.666,0
6.873,-3.313,0
6.874,-3.68,0
6.875,-2.398,0
6.876,-2.764,0
6.877,-1.666,0
6.878,-2.764,0
6.879,-2.581,0
6.88,1.63,0
6.881,2.18,0
6.882,0.532,0
6.883,-0.75,0
6.884,1.447,0
6.885,-1.299,0
6.886,-0.201,0
6.887,5.476,0
6.888,4.743,0
6.889,6.94,0
6.89,6.391,0
6.891,4.56,0
6.892,-1.666,0
6.893,9.138,0
6.894,4.743,0
6.895,-2.032,0
6.896,1.447,0
6.897,0.349,0
6.898,-2.581,0
6.899,-1.666,0
6.9,-0.933,0
6.901,-0.201,0
6.902,-2.032,0
6.903,-1.482,0
6.904,-3.13,0
6.905,-4.412,0
6.906,-2.215,0
6.907,-1.116,0
6.908,-2.215,0
6.909,-4.778,0
6.91,-2.032,0
6.911,0.532,0
6.912,-0.567,0
6.913,-3.313,0
6.914,-0.75,0
6.915,-1.849,0
6.916,-1.116,0
6.917,0.166,0
6.918,-2.764,0
6.919,-1.666,0
6.92,-4.229,0
6.921,0.349,0
6.922,2.18,0
6.923,-0.933,0
6.924,2.912,0
6.925,-0.384,0
6.926,-0.018,0
6.927,0.349,0
6.928,-1.482,0
6.929,0.349,0
6.93,-1.666,0
6.931,-0.384,0
6.932,0.898,0
6.933,1.081,0
6.934,-0.018,0
6.935,2.546,0
6.936,1.63,0
6.937,-3.13,0
6.938,-2.581,0
6.939,3.645,0
6.94,12.8,0
6.941,9.321,0
6.942,3.645,0
6.943,-1.299,0
6.944,-0.384,0
6.945,0.349,0
6.946,1.081,0
6.947,0.532,0
6.948,4.926,0
6.949,12.25,0
6.95,11.335,0
6.951,15.913,0
6.952,19.941,0
6.953,22.138,0
6.954,23.969,0
6.955,22.138,0
6.956,13.715,0
6.957,12.617,0
6.958,11.518,0
6.959,6.574,0
6.96,3.828,0
6.961,-1.849,0
6.962,-13.384,0
6.963,-21.624,0
6.964,-29.131,0
6.965,-27.85,0
6.966,-39.019,0
6.967,-31.512,0
6.968,-24.737,0
6.969,-13.567,0
6.97,-9.173,0
6.971,-18.694,0
6.972,-37.188,0
6.973,-50.555,0
6.974,-72.527,0
6.975,-105.12,0
6.976,-117.94,0
6.977,-137.53,0
6.978,-141.01,0
6.979,-150.53,0
6.98,-153.46,0
6.981,-134.78,0
6.982,-112.81,0
6.983,-92.12,0
6.984,-67.95,0
6.985,-19.244,0
6.986,85.859,0
6.987,142.25,0
6.988,157.27,0
6.989,170.82,0
6.99,158.37,0
6.991,147.2,0
6.992,136.94,0
6.993,127.61,0
6.994,119.18,0
6.995,111.49,0
6.996,104.54,0
6.997,110.76,0
6.998,127.97,0
6.999,122.85,0
7,108.56,0
7.001,86.958,0
7.002,83.112,0
7.003,79.633,0
7.004,89.155,0
7.005,80.366,0
7.006,61.689,0
7.007,39.716,0
7.008,19.025,0
7.009,11.152,0
7.01,4.011,0
7.011,6.208,0
7.012,0.166,0
7.013,-5.328,0
7.014,-20.342,0
7.015,-30.413,0
7.016,-43.23,0
7.017,-44.878,0
7.018,-43.414,0
7.019,-55.682,0
7.02,-63.921,0
7.021,-62.457,0
7.022,-61.175,0
7.023,-55.132,0
7.024,-60.809,0
7.025,-57.879,0
7.026,-56.963,0
7.027,-59.344,0
7.028,-58.611,0
7.029,-60.442,0
7.03,-57.33,0
7.031,-54.583,0
7.032,-55.865,0
7.033,-51.653,0
7.034,-45.428,0
7.035,-44.695,0
7.036,-39.385,0
7.037,-34.808,0
7.038,-30.596,0
7.039,-28.765,0
7.04,-20.342,0
7.041,-21.441,0
7.042,-18.145,0
7.043,-17.229,0
7.044,-12.652,0
7.045,-10.271,0
7.046,-4.961,0
7.047,-4.412,0
7.048,3.828,0
7.049,2.729,0
7.05,3.645,0
7.051,2.729,0
7.052,8.405,0
7.053,16.828,0
7.054,-0.201,0
7.055,-2.581,0
7.056,4.011,0
7.057,6.025,0
7.058,4.194,0
7.059,5.842,0
7.06,10.236,0
7.061,3.461,0
7.062,4.56,0
7.063,7.856,0
7.064,2.912,0
7.065,7.49,0
7.066,5.109,0
7.067,7.307,0
7.068,4.011,0
7.069,4.56,0
7.07,5.109,0
7.071,3.828,0
7.072,6.94,0
7.073,4.926,0
7.074,5.292,0
7.075,7.124,0
7.076,4.377,0
7.077,9.321,0
7.078,4.743,0
7.079,6.574,0
7.08,6.025,0
7.081,6.391,0
7.082,4.194,0
7.083,6.94,0
7.084,3.461,0
7.085,4.743,0
7.086,6.757,0
7.087,4.194,0
7.088,4.56,0
7.089,3.095,0
7.09,2.363,0
7.091,0.532,0
7.092,4.56,0
7.093,0.715,0
7.094,8.222,0
7.095,13.898,0
7.096,8.955,0
7.097,0.532,0
7.098,-0.567,0
7.099,0.349,0
7.1,-0.567,0
7.101,-2.947,0
7.102,-0.75,0
7.103,-0.201,0
7.104,2.912,0
7.105,-0.933,0
7.106,-0.567,0
7.107,0.715,0
7.108,2.729,0
7.109,-2.947,0
7.11,-0.567,0
7.111,-2.764,0
7.112,3.461,0
7.113,-0.567,0
7.114,-2.764,0
7.115,-2.215,0
7.116,6.025,0
7.117,7.124,0
7.118,6.208,0
7.119,1.63,0
7.12,-0.75,0
7.121,-1.482,0
7.122,0.349,0
7.123,-0.201,0
7.124,-2.947,0
7.125,-1.666,0
7.126,-2.947,0
7.127,-0.933,0
7.128,-0.567,0
7.129,-1.666,0
7.13,-1.849,0
7.131,1.813,0
7.132,0.532,0
7.133,-0.75,0
7.134,1.997,0
7.135,1.63,0
7.136,-2.398,0
7.137,-2.032,0
7.138,-4.229,0
7.139,-0.384,0
7.14,-1.299,0
7.141,-1.666,0
7.142,3.461,0
7.143,8.039,0
7.144,13.715,0
7.145,8.405,0
7.146,-1.849,0
7.147,-0.384,0
7.148,0.898,0
7.149,-2.581,0
7.15,-1.482,0
7.151,-2.398,0
7.152,-1.482,0
7.153,-0.75,0
7.154,-4.595,0
7.155,-5.145,0
7.156,-2.032,0
7.157,-4.778,0
7.158,-2.398,0
7.159,-4.595,0
7.16,-2.581,0
7.161,-2.947,0
7.162,0.349,0
7.163,-1.666,0
7.164,4.011,0
7.165,1.63,0
7.166,2.363,0
7.167,-0.933,0
7.168,0.898,0
7.169,0.349,0
7.17,-2.032,0
7.171,-1.666,0
7.172,-3.68,0
7.173,-1.849,0
7.174,-3.68,0
7.175,-3.497,0
7.176,-2.764,0
7.177,-1.482,0
7.178,-0.384,0
7.179,-0.567,0
7.18,-1.482,0
7.181,-4.229,0
7.182,-1.666,0
7.183,0.166,0
7.184,-1.299,0
7.185,-1.116,0
7.186,-1.299,0
7.187,-1.116,0
7.188,-2.581,0
7.189,-0.384,0
7.19,-3.497,0
7.191,-1.299,0
7.192,-0.933,0
7.193,4.743,0
7.194,2.363,0
7.195,7.673,0
7.196,10.969,0
7.197,6.574,0
7.198,0.349,0
7.199,-2.032,0
7.2,-2.764,0
7.201,-4.595,0
7.202,-5.145,0
7.203,-2.398,0
7.204,-3.68,0
7.205,-5.877,0
7.206,-3.863,0
7.207,-6.426,0
7.208,-6.06,0
7.209,-5.328,0
7.21,-2.764,0
7.211,-2.398,0
7.212,1.63,0
7.213,-1.116,0
7.214,1.264,0
7.215,0.898,0
7.216,-2.947,0
7.217,0.349,0
7.218,2.546,0
7.219,-1.299,0
7.22,1.081,0
7.221,-1.116,0
7.222,-2.215,0
7.223,-1.116,0
7.224,-1.482,0
7.225,-1.299,0
7.226,-0.018,0
7.227,1.813,0
7.228,2.363,0
7.229,-0.933,0
7.23,-0.567,0
7.231,-1.666,0
7.232,-2.764,0
7.233,1.264,0
7.234,0.898,0
7.235,0.532,0
7.236,-0.567,0
7.237,-2.398,0
7.238,-2.032,0
7.239,-0.567,0
7.24,-2.398,0
7.241,-0.018,0
7.242,-1.299,0
7.243,0.715,0
7.244,4.926,0
7.245,-3.313,0
7.246,11.518,0
7.247,5.476,0
7.248,-0.018,0
7.249,-1.666,0
7.25,-0.201,0
7.251,-1.482,0
7.252,1.997,0
7.253,-1.299,0
7.254,1.63,0
7.255,-4.778,0
7.256,-4.046,0
7.257,-4.778,0
7.258,-0.201,0
7.259,-4.595,0
7.26,-2.947,0
7.261,-2.581,0
7.262,-2.215,0
7.263,-1.116,0
7.264,-0.75,0
7.265,-0.384,0
7.266,0.349,0
7.267,1.63,0
7.268,-1.849,0
7.269,-0.567,0
7.27,1.447,0
7.271,4.011,0
7.272,0.715,0
7.273,1.081,0
7.274,1.447,0
7.275,-0.384,0
7.276,-0.567,0
7.277,0.715,0
7.278,1.447,0
7.279,0.898,0
7.28,0.349,0
7.281,-0.567,0
7.282,-2.947,0
7.283,0.349,0
7.284,2.546,0
7.285,2.18,0
7.286,0.349,0
7.287,3.645,0
7.288,1.63,0
7.289,-2.581,0
7.29,-0.933,0
7.291,-2.215,0
7.292,-1.849,0
7.293,0.898,0
7.294,7.124,0
7.295,6.208,0
7.296,-1.299,0
7.297,-0.384,0
7.298,0.532,0
7.299,4.56,0
7.3,6.757,0
7.301,-3.497,0
7.302,12.983,0
7.303,6.391,0
7.304,-3.68,0
7.305,-5.511,0
7.306,-3.863,0
7.307,-5.328,0
7.308,-4.046,0
7.309,-2.947,0
7.31,0.349,0
7.311,-6.609,0
7.312,-7.525,0
7.313,-3.497,0
7.314,-1.299,0
7.315,1.997,0
7.316,1.447,0
7.317,1.997,0
7.318,0.715,0
7.319,0.349,0
7.32,-2.398,0
7.321,0.166,0
7.322,-1.666,0
7.323,-1.849,0
7.324,-0.018,0
7.325,-4.046,0
7.326,-3.497,0
7.327,-3.13,0
7.328,1.997,0
7.329,-4.229,0
7.33,1.447,0
7.331,-0.75,0
7.332,-0.201,0
7.333,-0.75,0
7.334,-1.299,0
7.335,1.997,0
7.336,-4.961,0
7.337,-2.032,0
7.338,-1.116,0
7.339,-5.145,0
7.34,-4.412,0
7.341,-1.116,0
7.342,-2.947,0
7.343,-0.201,0
7.344,0.898,0
7.345,-2.398,0
7.346,4.56,0
7.347,5.476,0
7.348,-8.44,0
7.349,9.687,0
7.35,7.307,0
7.351,0.715,0
7.352,-1.299,0
7.353,-3.13,0
7.354,-1.482,0
7.355,-2.947,0
7.356,-4.229,0
7.357,-3.13,0
7.358,-4.229,0
7.359,-3.313,0
7.36,-6.06,0
7.361,-2.032,0
7.362,-4.229,0
7.363,-2.398,0
7.364,-0.567,0
7.365,-1.116,0
7.366,-2.398,0
7.367,-0.201,0
7.368,1.813,0
7.369,-1.666,0
7.37,0.532,0
7.371,-5.694,0
7.372,-2.947,0
7.373,-2.215,0
7.374,1.63,0
7.375,-0.201,0
7.376,1.63,0
7.377,-1.116,0
7.378,0.166,0
7.379,0.532,0
7.38,0.166,0
7.381,-1.666,0
7.382,-1.299,0
7.383,-2.032,0
7.384,-0.201,0
7.385,-1.482,0
7.386,1.63,0
7.387,-0.384,0
7.388,-3.863,0
7.389,-2.581,0
7.39,-3.68,0
7.391,-1.849,0
7.392,-4.412,0
7.393,-0.384,0
7.394,1.264,0
7.395,-2.032,0
7.396,3.461,0
7.397,13.532,0
7.398,1.264,0
7.399,12.8,0
7.4,-3.68,0
7.401,-5.877,0
7.402,0.166,0
7.403,1.997,0
7.404,-2.947,0
7.405,-1.482,0
7.406,-0.201,0
7.407,-1.299,0
7.408,-4.595,0
7.409,-3.68,0
7.41,-2.764,0
7.411,-5.145,0
7.412,0.166,0
7.413,0.715,0
7.414,0.166,0
7.415,-2.581,0
7.416,-0.201,0
7.417,1.081,0
7.418,-1.666,0
7.419,-2.032,0
7.42,-0.933,0
7.421,-0.75,0
7.422,-1.482,0
7.423,-5.511,0
7.424,-2.764,0
7.425,-1.482,0
7.426,0.715,0
7.427,-0.384,0
7.428,-1.482,0
7.429,0.349,0
7.43,-0.384,0
7.431,0.898,0
7.432,1.081,0
7.433,2.546,0
7.434,-0.75,0
7.435,0.532,0
7.436,-1.482,0
7.437,-1.116,0
7.438,-0.018,0
7.439,-0.75,0
7.44,-1.482,0
7.441,-2.215,0
7.442,-0.75,0
7.443,0.349,0
7.444,0.166,0
7.445,-2.215,0
7.446,-2.032,0
7.447,-1.299,0
7.448,2.912,0
7.449,6.025,0
7.45,8.771,0
7.451,1.264,0
7.452,13.715,0
7.453,5.476,0
7.454,-2.032,0
7.455,-0.75,0
7.456,-4.229,0
7.457,-3.13,0
7.458,-4.046,0
7.459,-3.13,0
7.46,-5.511,0
7.461,-0.201,0
7.462,0.349,0
7.463,-1.482,0
7.464,-3.13,0
7.465,-0.75,0
7.466,-0.384,0
7.467,-0.75,0
7.468,-2.581,0
7.469,-1.482,0
7.47,-0.75,0
7.471,-2.581,0
7.472,-1.299,0
7.473,-1.849,0
7.474,-1.299,0
7.475,-4.229,0
7.476,-2.215,0
7.477,-1.116,0
7.478,-1.482,0
7.479,-2.215,0
7.48,-1.482,0
7.481,0.349,0
7.482,-2.215,0
7.483,2.546,0
7.484,-1.849,0
7.485,1.997,0
7.486,0.715,0
7.487,0.349,0
7.488,0.715,0
7.489,-4.229,0
7.49,0.349,0
7.491,-1.482,0
7.492,-0.933,0
7.493,-0.567,0
7.494,1.63,0
7.495,2.729,0
7.496,0.166,0
7.497,0.166,0
7.498,-3.13,0
7.499,3.095,0
7.5,4.011,0
7.501,-3.497,0
7.502,11.701,0
7.503,5.109,0
7.504,-0.933,0
7.505,-2.764,0
7.506,-1.116,0
7.507,-8.624,0
7.508,-1.849,0
7.509,-2.947,0
7.51,-1.849,0
7.511,-2.764,0
7.512,-1.849,0
7.513,-4.229,0
7.514,-2.032,0
7.515,-2.581,0
7.516,-0.75,0
7.517,-2.398,0
7.518,-2.032,0
7.519,-0.75,0
7.52,-0.384,0
7.521,-2.947,0
7.522,-1.116,0
7.523,-2.581,0
7.524,-1.299,0
7.525,-0.567,0
7.526,-2.032,0
7.527,-1.482,0
7.528,0.349,0
7.529,-0.75,0
7.53,0.349,0
7.531,-2.215,0
7.532,-1.849,0
7.533,0.898,0
7.534,-1.666,0
7.535,0.898,0
7.536,-1.116,0
7.537,0.715,0
7.538,-0.018,0
7.539,-3.497,0
7.54,3.095,0
7.541,-10.821,0
7.542,-0.75,0
7.543,-2.581,0
7.544,2.363,0
7.545,-2.032,0
7.546,-0.75,0
7.547,-1.849,0
7.548,-1.299,0
7.549,1.997,0
7.55,13.166,0
7.551,-6.426,0
7.552,6.94,0
7.553,4.56,0
7.554,2.363,0
7.555,8.405,0
7.556,6.574,0
7.557,-4.961,0
7.558,-0.567,0
7.559,-1.849,0
7.56,-0.75,0
7.561,-1.849,0
7.562,-0.933,0
7.563,-1.849,0
7.564,-4.229,0
7.565,1.081,0
7.566,-0.75,0
7.567,-2.581,0
7.568,-0.933,0
7.569,-1.299,0
7.57,-1.666,0
7.571,-2.032,0
7.572,-4.595,0
7.573,0.166,0
7.574,-2.947,0
7.575,-2.398,0
7.576,-3.68,0
7.577,-0.567,0
7.578,-1.666,0
7.579,-4.229,0
7.58,-1.666,0
7.581,1.081,0
7.582,-2.398,0
7.583,0.715,0
7.584,0.349,0
7.585,-3.13,0
7.586,-0.018,0
7.587,-0.384,0
7.588,-0.75,0
7.589,-2.581,0
7.59,-1.849,0
7.591,-0.567,0
7.592,-1.849,0
7.593,0.349,0
7.594,1.63,0
7.595,0.349,0
7.596,0.166,0
7.597,0.349,0
7.598,-1.482,0
7.599,-1.299,0
7.6,-0.75,0
7.601,2.546,0
7.602,2.912,0
7.603,1.813,0
7.604,7.49,0
7.605,9.87,0
7.606,-1.666,0
7.607,-0.018,0
7.608,-1.482,0
7.609,-2.764,0
7.61,-6.243,0
7.611,-2.947,0
7.612,-2.032,0
7.613,-1.116,0
7.614,-1.849,0
7.615,-2.581,0
7.616,0.715,0
7.617,-1.116,0
7.618,5.109,0
7.619,-0.567,0
7.62,0.166,0
7.621,-3.13,0
7.622,-2.581,0
7.623,-3.13,0
7.624,-1.849,0
7.625,-3.13,0
7.626,-3.497,0
7.627,-4.595,0
7.628,-2.032,0
7.629,0.715,0
7.63,-1.116,0
7.631,-0.75,0
7.632,2.546,0
7.633,-1.666,0
7.634,1.081,0
7.635,-1.299,0
7.636,-0.018,0
7.637,-2.032,0
7.638,-0.201,0
7.639,-2.764,0
7.64,-2.581,0
7.641,-0.75,0
7.642,-0.567,0
7.643,0.898,0
7.644,-0.567,0
7.645,2.363,0
7.646,0.349,0
7.647,-2.215,0
7.648,-2.581,0
7.649,-0.567,0
7.65,-1.299,0
7.651,0.532,0
7.652,4.56,0
7.653,2.912,0
7.654,6.208,0
7.655,5.842,0
7.656,3.828,0
7.657,9.504,0
7.658,11.884,0
7.659,3.461,0
7.66,-6.792,0
7.661,-2.764,0
7.662,-1.666,0
7.663,-2.764,0
7.664,-3.68,0
7.665,-4.595,0
7.666,-2.215,0
7.667,-0.018,0
7.668,-1.849,0
7.669,-0.018,0
7.67,-3.863,0
7.671,-2.581,0
7.672,-2.215,0
7.673,-6.792,0
7.674,-2.398,0
7.675,-1.849,0
7.676,-3.13,0
7.677,-3.497,0
7.678,-1.482,0
7.679,-0.384,0
7.68,-2.215,0
7.681,-2.947,0
7.682,-0.384,0
7.683,0.715,0
7.684,0.898,0
7.685,1.081,0
7.686,-1.299,0
7.687,-2.764,0
7.688,1.447,0
7.689,-1.666,0
7.69,-3.313,0
7.691,-4.595,0
7.692,-2.398,0
7.693,0.349,0
7.694,-0.018,0
7.695,-1.849,0
7.696,0.166,0
7.697,0.898,0
7.698,2.18,0
7.699,0.715,0
7.7,-0.75,0
7.701,-0.567,0
7.702,0.349,0
7.703,3.095,0
7.704,8.771,0
7.705,11.152,0
7.706,2.729,0
7.707,-5.145,0
7.708,-0.201,0
7.709,-1.116,0
7.71,-0.384,0
7.711,-1.116,0
7.712,-1.666,0
7.713,-2.215,0
7.714,0.532,0
7.715,1.813,0
7.716,-0.384,0
7.717,-2.398,0
7.718,-0.567,0
7.719,1.264,0
7.72,-0.75,0
7.721,-1.482,0
7.722,-2.215,0
7.723,-1.116,0
7.724,-4.412,0
7.725,-0.201,0
7.726,-2.947,0
7.727,-1.666,0
7.728,-1.299,0
7.729,-0.933,0
7.73,-0.567,0
7.731,-0.201,0
7.732,-2.947,0
7.733,-0.384,0
7.734,1.447,0
7.735,0.715,0
7.736,-0.018,0
7.737,-0.75,0
7.738,0.715,0
7.739,0.898,0
7.74,-0.384,0
7.741,-1.299,0
7.742,-2.032,0
7.743,-1.299,0
7.744,-3.313,0
7.745,-2.947,0
7.746,-1.482,0
7.747,-1.299,0
7.748,1.63,0
7.749,-1.849,0
7.75,2.363,0
7.751,-0.384,0
7.752,1.63,0
7.753,-1.666,0
7.754,5.292,0
7.755,6.208,0
7.756,5.292,0
7.757,4.56,0
7.758,2.363,0
7.759,11.335,0
7.76,-7.159,0
7.761,-9.722,0
7.762,-2.581,0
7.763,-0.384,0
7.764,-2.398,0
7.765,-0.567,0
7.766,-5.511,0
7.767,-1.116,0
7.768,-2.398,0
7.769,-5.877,0
7.77,-4.778,0
7.771,-1.849,0
7.772,-2.764,0
7.773,-3.497,0
7.774,-1.299,0
7.775,0.532,0
7.776,-0.018,0
7.777,-0.567,0
7.778,-5.145,0
7.779,0.532,0
7.78,-3.313,0
7.781,-0.018,0
7.782,0.532,0
7.783,-0.018,0
7.784,-0.384,0
7.785,-3.497,0
7.786,2.729,0
7.787,-3.68,0
7.788,-1.299,0
7.789,-2.032,0
7.79,-2.581,0
7.791,1.813,0
7.792,1.264,0
7.793,4.56,0
7.794,3.278,0
7.795,-0.567,0
7.796,0.715,0
7.797,-0.567,0
7.798,-1.666,0
7.799,-0.567,0
7.8,-1.666,0
7.801,0.349,0
7.802,-0.384,0
7.803,3.828,0
7.804,3.095,0
7.805,6.574,0
7.806,-0.933,0
7.807,9.321,0
7.808,5.292,0
7.809,-0.75,0
7.81,2.546,0
7.811,1.63,0
7.812,4.377,0
7.813,5.109,0
7.814,-0.201,0
7.815,1.63,0
7.816,-2.764,0
7.817,-0.018,0
7.818,-1.299,0
7.819,-0.018,0
7.82,-1.116,0
7.821,-4.595,0
7.822,-6.792,0
7.823,-4.778,0
7.824,-6.609,0
7.825,-4.778,0
7.826,-6.243,0
7.827,-3.68,0
7.828,-1.849,0
7.829,-1.116,0
7.83,-4.229,0
7.831,-3.13,0
7.832,-4.229,0
7.833,-2.398,0
7.834,-1.666,0
7.835,-0.384,0
7.836,-0.567,0
7.837,-1.116,0
7.838,-2.581,0
7.839,-5.145,0
7.84,-1.116,0
7.841,-2.398,0
7.842,-2.764,0
7.843,-1.666,0
7.844,-3.497,0
7.845,0.532,0
7.846,0.898,0
7.847,-2.215,0
7.848,0.532,0
7.849,-1.299,0
7.85,3.461,0
7.851,1.63,0
7.852,1.081,0
7.853,-0.201,0
7.854,1.63,0
7.855,0.349,0
7.856,6.574,0
7.857,7.49,0
7.858,6.757,0
7.859,4.56,0
7.86,5.109,0
7.861,1.997,0
7.862,4.743,0
7.863,1.447,0
7.864,3.645,0
7.865,2.546,0
7.866,5.109,0
7.867,4.011,0
7.868,1.997,0
7.869,6.208,0
7.87,4.377,0
7.871,-4.046,0
7.872,-5.145,0
7.873,-8.44,0
7.874,-7.525,0
7.875,-1.116,0
7.876,-3.497,0
7.877,-7.342,0
7.878,-4.046,0
7.879,-2.215,0
7.88,-1.666,0
7.881,-2.032,0
7.882,-1.666,0
7.883,-4.412,0
7.884,-0.201,0
7.885,0.349,0
7.886,-4.229,0
7.887,-1.116,0
7.888,-1.666,0
7.889,-0.384,0
7.89,-1.666,0
7.891,1.081,0
7.892,-1.482,0
7.893,-1.116,0
7.894,1.63,0
7.895,-0.933,0
7.896,0.898,0
7.897,0.166,0
7.898,1.997,0
7.899,0.715,0
7.9,0.166,0
7.901,-1.299,0
7.902,1.63,0
7.903,0.532,0
7.904,0.898,0
7.905,2.363,0
7.906,3.461,0
7.907,8.039,0
7.908,12.617,0
7.909,17.011,0
7.91,17.561,0
7.911,19.941,0
7.912,26.899,0
7.913,33.857,0
7.914,29.279,0
7.915,20.124,0
7.916,16.645,0
7.917,13.349,0
7.918,8.405,0
7.919,3.828,0
7.92,3.095,0
7.921,-2.215,0
7.922,-12.469,0
7.923,-26.019,0
7.924,-31.512,0
7.925,-36.456,0
7.926,-40.85,0
7.927,-36.822,0
7.928,-23.272,0
7.929,-10.455,0
7.93,-5.511,0
7.931,-13.018,0
7.932,-28.033,0
7.933,-50.188,0
7.934,-65.02,0
7.935,-99.993,0
7.936,-114.28,0
7.937,-135.88,0
7.938,-139.73,0
7.939,-143.21,0
7.94,-146.32,0
7.941,-131.49,0
7.942,-107.32,0
7.943,-97.796,0
7.944,-71.063,0
7.945,-17.413,0
7.946,82.746,0
7.947,151.04,0
7.948,163.5,0
7.949,152.33,0
7.95,162.58,0
7.951,134.56,0
7.952,109.3,0
7.953,116.99,0
7.954,110.03,0
7.955,91.169,0
7.956,95.38,0
7.957,101.06,0
7.958,127.24,0
7.959,112.96,0
7.96,100.14,0
7.961,80.549,0
7.962,84.028,0
7.963,93.549,0
7.964,108.38,0
7.965,89.704,0
7.966,72.858,0
7.967,48.505,0
7.968,32.392,0
7.969,17.561,0
7.97,9.687,0
7.971,12.067,0
7.972,9.87,0
7.973,-4.229,0
7.974,-20.708,0
7.975,-31.695,0
7.976,-41.766,0
7.977,-50.921,0
7.978,-49.273,0
7.979,-53.667,0
7.98,-63.189,0
7.981,-59.71,0
7.982,-60.809,0
7.983,-55.865,0
7.984,-51.287,0
7.985,-53.667,0
7.986,-54.4,0
7.987,-54.949,0
7.988,-58.062,0
7.989,-56.414,0
7.99,-56.78,0
7.991,-55.499,0
7.992,-54.4,0
7.993,-52.569,0
7.994,-47.076,0
7.995,-43.23,0
7.996,-41.399,0
7.997,-34.441,0
7.998,-33.526,0
7.999,-26.019,0
8,-23.089,0
8.001,-20.342,0
8.002,-14.666,0
8.003,-15.398,0
8.004,-12.103,0
8.005,-10.271,0
8.006,-6.426,0
8.007,-5.694,0
8.008,-4.412,0
8.009,2.546,0
8.01,13.715,0
8.011,12.25,0
8.012,8.222,0
8.013,2.18,0
8.014,5.476,0
8.015,4.56,0
8.016,5.476,0
8.017,4.743,0
8.018,5.476,0
8.019,4.926,0
8.02,4.377,0
8.021,2.729,0
8.022,4.011,0
8.023,4.377,0
8.024,4.743,0
8.025,8.955,0
8.026,6.208,0
8.027,8.588,0
8.028,3.461,0
8.029,8.039,0
8.03,4.926,0
8.031,13.349,0
8.032,14.448,0
8.033,6.574,0
8.034,5.659,0
8.035,8.405,0
8.036,7.673,0
8.037,8.405,0
8.038,6.574,0
8.039,2.18,0
8.04,0.532,0
8.041,2.912,0
8.042,5.109,0
8.043,1.264,0
8.044,4.56,0
8.045,5.842,0
8.046,4.743,0
8.047,1.264,0
8.048,2.546,0
8.049,2.912,0
8.05,2.546,0
8.051,4.377,0
8.052,4.56,0
8.053,3.278,0
8.054,3.095,0
8.055,3.278,0
8.056,2.18,0
8.057,0.898,0
8.058,1.63,0
8.059,4.377,0
8.06,10.053,0
8.061,7.673,0
8.062,6.94,0
8.063,-2.032,0
8.064,14.082,0
8.065,3.095,0
8.066,1.081,0
8.067,-0.75,0
8.068,0.898,0
8.069,-3.497,0
8.07,-2.215,0
8.071,-3.313,0
8.072,-0.018,0
8.073,-2.947,0
8.074,-3.863,0
8.075,-6.243,0
8.076,-4.046,0
8.077,2.18,0
8.078,-1.849,0
8.079,-4.046,0
8.08,0.532,0
8.081,-0.018,0
8.082,-0.567,0
8.083,-3.863,0
8.084,-1.666,0
8.085,1.081,0
8.086,0.715,0
8.087,-1.116,0
8.088,-0.384,0
8.089,0.898,0
8.09,0.166,0
8.091,-1.299,0
8.092,1.081,0
8.093,-0.384,0
8.094,2.18,0
8.095,1.813,0
8.096,-2.215,0
8.097,4.011,0
8.098,1.63,0
8.099,2.363,0
8.1,0.532,0
8.101,1.081,0
8.102,0.532,0
8.103,-1.849,0
8.104,2.363,0
8.105,-1.482,0
8.106,-0.201,0
8.107,-2.398,0
8.108,-1.299,0
8.109,-1.299,0
8.11,0.532,0
8.111,6.025,0
8.112,9.87,0
8.113,10.419,0
8.114,6.025,0
8.115,-2.398,0
8.116,1.081,0
8.117,-4.595,0
8.118,0.349,0
8.119,-2.398,0
8.12,-3.13,0
8.121,-2.398,0
8.122,-1.849,0
8.123,-1.299,0
8.124,-4.046,0
8.125,-4.412,0
8.126,-2.215,0
8.127,1.63,0
8.128,-1.666,0
8.129,-2.032,0
8.13,-3.13,0
8.131,-1.299,0
8.132,1.997,0
8.133,-0.75,0
8.134,-0.384,0
8.135,-2.947,0
8.136,-0.933,0
8.137,-2.764,0
8.138,-2.032,0
8.139,-1.482,0
8.14,-3.497,0
8.141,-1.116,0
8.142,-3.13,0
8.143,-0.567,0
8.144,-1.666,0
8.145,-4.412,0
8.146,-1.849,0
8.147,-1.482,0
8.148,-1.299,0
8.149,2.363,0
8.15,-2.215,0
8.151,-0.384,0
8.152,0.166,0
8.153,3.461,0
8.154,-3.497,0
8.155,-0.567,0
8.156,-1.482,0
8.157,-3.863,0
8.158,-1.666,0
8.159,-2.215,0
8.16,-2.032,0
8.161,1.081,0
8.162,9.504,0
8.163,1.081,0
8.164,11.335,0
8.165,4.56,0
8.166,-1.482,0
8.167,-2.581,0
8.168,-1.666,0
8.169,-0.75,0
8.17,-0.018,0
8.171,-2.215,0
8.172,-5.511,0
8.173,-3.68,0
8.174,-3.13,0
8.175,-1.849,0
8.176,0.349,0
8.177,-2.398,0
8.178,-1.299,0
8.179,-0.933,0
8.18,1.081,0
8.181,0.898,0
8.182,-1.482,0
8.183,-0.75,0
8.184,-1.482,0
8.185,1.447,0
8.186,-0.384,0
8.187,-0.018,0
8.188,-2.764,0
8.189,-0.933,0
8.19,0.898,0
8.191,-0.567,0
8.192,-0.384,0
8.193,1.447,0
8.194,-1.116,0
8.195,-0.75,0
8.196,1.264,0
8.197,-1.299,0
8.198,-2.398,0
8.199,-2.215,0
8.2,-0.384,0
8.201,3.645,0
8.202,0.898,0
8.203,4.194,0
8.204,1.997,0
8.205,-0.018,0
8.206,-1.849,0
8.207,-2.215,0
8.208,-2.032,0
8.209,1.081,0
8.21,-1.666,0
8.211,0.166,0
8.212,2.729,0
8.213,8.222,0
8.214,13.532,0
8.215,11.701,0
8.216,7.307,0
8.217,1.081,0
8.218,0.349,0
8.219,1.081,0
8.22,-2.215,0
8.221,-0.384,0
8.222,1.264,0
8.223,-4.229,0
8.224,-3.497,0
8.225,-6.792,0
8.226,-1.116,0
8.227,-1.849,0
8.228,-0.018,0
8.229,0.532,0
8.23,-1.116,0
8.231,-0.75,0
8.232,0.532,0
8.233,0.166,0
8.234,0.532,0
8.235,-1.299,0
8.236,-1.116,0
8.237,3.095,0
8.238,3.645,0
8.239,-0.201,0
8.24,-1.482,0
8.241,-2.764,0
8.242,-3.863,0
8.243,1.081,0
8.244,0.532,0
8.245,1.081,0
8.246,-1.666,0
8.247,1.63,0
8.248,1.997,0
8.249,1.63,0
8.25,2.729,0
8.251,-1.299,0
8.252,4.194,0
8.253,-1.116,0
8.254,0.715,0
8.255,2.546,0
8.256,-2.581,0
8.257,0.715,0
8.258,-2.398,0
8.259,2.729,0
8.26,0.898,0
8.261,-2.215,0
8.262,3.095,0
8.263,0.349,0
8.264,-0.933,0
8.265,6.025,0
8.266,8.955,0
8.267,4.377,0
8.268,6.757,0
8.269,18.293,0
8.27,13.349,0
8.271,2.912,0
8.272,-1.116,0
8.273,-2.215,0
8.274,-5.511,0
8.275,-4.595,0
8.276,-3.68,0
