0,1.878,0
0.001,-2.333,0
0.002,0.779,0
0.003,9.202,0
0.004,22.752,0
0.005,35.569,0
0.006,20.555,0
0.007,14.512,0
0.008,1.695,0
0.009,0.047,0
0.01,-13.503,0
0.011,-11.672,0
0.012,-13.32,0
0.013,-5.813,0
0.014,-12.587,0
0.015,-9.108,0
0.016,-12.404,0
0.017,-11.489,0
0.018,-14.235,0
0.019,-11.855,0
0.02,-6.545,0
0.021,-5.996,0
0.022,-9.108,0
0.023,-0.686,0
0.024,2.793,0
0.025,-0.502,0
0.026,-3.432,0
0.027,-0.686,0
0.028,-4.714,0
0.029,-3.981,0
0.03,-0.686,0
0.031,-6.362,0
0.032,-1.052,0
0.033,0.779,0
0.034,1.329,0
0.035,-4.897,0
0.036,-2.517,0
0.037,-1.784,0
0.038,-2.333,0
0.039,2.061,0
0.04,3.709,0
0.041,7.005,0
0.042,5.723,0
0.043,0.23,0
0.044,-1.967,0
0.045,-1.418,0
0.046,2.977,0
0.047,5.723,0
0.048,2.427,0
0.049,1.146,0
0.05,1.512,0
0.051,-3.981,0
0.052,-3.615,0
0.053,1.878,0
0.054,4.075,0
0.055,14.329,0
0.056,30.809,0
0.057,24.217,0
0.058,14.146,0
0.059,1.329,0
0.06,-6.911,0
0.061,-11.306,0
0.062,-10.024,0
0.063,-16.066,0
0.064,-14.968,0
0.065,-14.052,0
0.066,-13.137,0
0.067,-13.869,0
0.068,-13.137,0
0.069,-8.559,0
0.07,-5.446,0
0.071,-1.601,0
0.072,-2.883,0
0.073,-0.686,0
0.074,-0.319,0
0.075,2.244,0
0.076,1.878,0
0.077,-0.136,0
0.078,-0.869,0
0.079,-1.601,0
0.08,0.962,0
0.081,-0.136,0
0.082,1.878,0
0.083,1.146,0
0.084,-2.333,0
0.085,-1.052,0
0.086,1.695,0
0.087,5.174,0
0.088,6.456,0
0.089,3.709,0
0.09,6.272,0
0.091,6.639,0
0.092,4.625,0
0.093,0.413,0
0.094,0.962,0
0.095,6.089,0
0.096,2.793,0
0.097,5.906,0
0.098,6.456,0
0.099,5.174,0
0.1,8.287,0
0.101,2.061,0
0.102,-0.319,0
0.103,-1.235,0
0.104,11.216,0
0.105,5.723,0
0.106,17.259,0
0.107,30.809,0
0.108,32.64,0
0.109,27.696,0
0.11,8.104,0
0.111,-5.263,0
0.112,-7.644,0
0.113,-14.235,0
0.114,-12.221,0
0.115,-17.714,0
0.116,-19.362,0
0.117,-20.827,0
0.118,-19.545,0
0.119,-18.447,0
0.12,-17.348,0
0.121,-12.404,0
0.122,-2.15,0
0.123,10.118,0
0.124,8.47,0
0.125,4.075,0
0.126,-2.7,0
0.127,-6.179,0
0.128,-7.277,0
0.129,-12.221,0
0.13,-11.306,0
0.131,-5.629,0
0.132,-3.432,0
0.133,-2.883,0
0.134,-2.333,0
0.135,-7.46,0
0.136,-4.165,0
0.137,-7.277,0
0.138,-4.531,0
0.139,-3.249,0
0.14,3.709,0
0.141,4.625,0
0.142,0.047,0
0.143,0.779,0
0.144,0.047,0
0.145,-0.502,0
0.146,1.329,0
0.147,-1.418,0
0.148,-1.052,0
0.149,2.061,0
0.15,4.075,0
0.151,4.441,0
0.152,4.808,0
0.153,4.808,0
0.154,3.343,0
0.155,7.554,0
0.156,17.076,0
0.157,13.047,0
0.158,31.541,0
0.159,34.104,0
0.16,22.02,0
0.161,6.639,0
0.162,-3.432,0
0.163,-8.925,0
0.164,-10.573,0
0.165,-14.968,0
0.166,-16.25,0
0.167,-17.348,0
0.168,-16.25,0
0.169,-15.334,0
0.17,-12.587,0
0.171,-11.855,0
0.172,-9.658,0
0.173,-6.362,0
0.174,-1.967,0
0.175,-1.418,0
0.176,-3.798,0
0.177,-4.165,0
0.178,-4.531,0
0.179,-4.897,0
0.18,-3.798,0
0.181,0.779,0
0.182,4.075,0
0.183,2.244,0
0.184,-2.883,0
0.185,-2.333,0
0.186,2.061,0
0.187,1.512,0
0.188,2.793,0
0.189,2.427,0
0.19,3.526,0
0.191,-0.686,0
0.192,0.962,0
0.193,-1.418,0
0.194,0.779,0
0.195,1.878,0
0.196,-0.686,0
0.197,-1.784,0
0.198,1.512,0
0.199,5.723,0
0.2,6.272,0
0.201,2.977,0
0.202,4.258,0
0.203,3.16,0
0.204,1.146,0
0.205,2.244,0
0.206,1.146,0
0.207,5.723,0
0.208,15.977,0
0.209,23.484,0
0.21,33.006,0
0.211,14.512,0
0.212,6.639,0
0.213,-0.502,0
0.214,-7.094,0
0.215,-13.137,0
0.216,-11.306,0
0.217,-12.954,0
0.218,-14.418,0
0.219,-15.7,0
0.22,-16.799,0
0.221,-15.7,0
0.222,-12.771,0
0.223,-8.193,0
0.224,-4.165,0
0.225,-3.432,0
0.226,-6.728,0
0.227,-4.897,0
0.228,-4.348,0
0.229,-3.066,0
0.23,-5.263,0
0.231,-3.249,0
0.232,-4.348,0
0.233,-1.784,0
0.234,-2.517,0
0.235,-2.333,0
0.236,-1.601,0
0.237,-1.784,0
0.238,1.512,0
0.239,4.625,0
0.24,3.526,0
0.241,7.737,0
0.242,6.089,0
0.243,3.709,0
0.244,2.427,0
0.245,5.174,0
0.246,2.61,0
0.247,0.779,0
0.248,2.793,0
0.249,2.61,0
0.25,-0.319,0
0.251,-4.531,0
0.252,-2.883,0
0.253,-1.601,0
0.254,1.512,0
0.255,1.878,0
0.256,2.977,0
0.257,8.653,0
0.258,21.104,0
0.259,26.597,0
0.26,28.245,0
0.261,17.808,0
0.262,2.793,0
0.263,-7.277,0
0.264,-12.771,0
0.265,-11.123,0
0.266,-15.517,0
0.267,-11.489,0
0.268,-14.968,0
0.269,-11.672,0
0.27,-14.602,0
0.271,-10.024,0
0.272,-10.756,0
0.273,-5.446,0
0.274,-3.615,0
0.275,-6.728,0
0.276,-6.179,0
0.277,-0.686,0
0.278,3.16,0
0.279,3.709,0
0.28,0.596,0
0.281,3.343,0
0.282,3.709,0
0.283,3.343,0
0.284,0.596,0
0.285,1.695,0
0.286,-1.601,0
0.287,-1.235,0
0.288,-0.136,0
0.289,3.892,0
0.29,2.61,0
0.291,-1.601,0
0.292,-2.15,0
0.293,0.23,0
0.294,1.512,0
0.295,-0.502,0
0.296,1.329,0
0.297,-2.7,0
0.298,1.878,0
0.299,-1.235,0
0.3,1.512,0
0.301,-1.784,0
0.302,-1.418,0
0.303,-1.784,0
0.304,2.427,0
0.305,-1.418,0
0.306,1.878,0
0.307,-0.502,0
0.308,6.456,0
0.309,5.54,0
0.31,19.456,0
0.311,37.583,0
0.312,30.442,0
0.313,10.484,0
0.314,-2.883,0
0.315,-10.024,0
0.316,-12.221,0
0.317,-14.235,0
0.318,-19.729,0
0.319,-14.785,0
0.32,-16.25,0
0.321,-12.221,0
0.322,-11.123,0
0.323,-10.024,0
0.324,-7.094,0
0.325,-2.517,0
0.326,-4.897,0
0.327,-2.7,0
0.328,-2.15,0
0.329,-2.7,0
0.33,0.047,0
0.331,0.413,0
0.332,3.526,0
0.333,0.779,0
0.334,-0.319,0
0.335,-1.418,0
0.336,-0.686,0
0.337,-0.502,0
0.338,1.878,0
0.339,4.625,0
0.34,0.413,0
0.341,-2.333,0
0.342,2.244,0
0.343,-0.869,0
0.344,-0.319,0
0.345,0.047,0
0.346,2.244,0
0.347,2.61,0
0.348,0.047,0
0.349,1.878,0
0.35,3.343,0
0.351,-0.319,0
0.352,5.174,0
0.353,2.977,0
0.354,-1.601,0
0.355,0.23,0
0.356,0.779,0
0.357,1.878,0
0.358,3.16,0
0.359,10.118,0
0.36,9.202,0
0.361,15.611,0
0.362,23.118,0
0.363,32.273,0
0.364,16.16,0
0.365,5.174,0
0.366,-0.869,0
0.367,-13.686,0
0.368,-8.742,0
0.369,-7.277,0
0.37,-3.249,0
0.371,-11.672,0
0.372,-14.968,0
0.373,-15.883,0
0.374,-18.63,0
0.375,-14.602,0
0.376,-13.869,0
0.377,-9.292,0
0.378,-9.841,0
0.379,-8.193,0
0.38,-5.813,0
0.381,-5.446,0
0.382,-3.432,0
0.383,-0.869,0
0.384,0.962,0
0.385,-1.052,0
0.386,2.061,0
0.387,-2.517,0
0.388,-1.967,0
0.389,-2.517,0
0.39,-2.883,0
0.391,-0.686,0
0.392,-0.319,0
0.393,1.512,0
0.394,4.075,0
0.395,4.808,0
0.396,3.526,0
0.397,1.695,0
0.398,5.174,0
0.399,5.54,0
0.4,5.174,0
0.401,0.596,0
0.402,1.146,0
0.403,2.793,0
0.404,1.512,0
0.405,-2.7,0
0.406,3.526,0
0.407,2.793,0
0.408,6.272,0
0.409,-0.686,0
0.41,3.892,0
0.411,11.399,0
0.412,14.329,0
0.413,28.245,0
0.414,38.316,0
0.415,25.499,0
0.416,10.484,0
0.417,0.413,0
0.418,-8.742,0
0.419,-13.686,0
0.42,-18.081,0
0.421,-16.799,0
0.422,-17.897,0
0.423,-18.996,0
0.424,-18.081,0
0.425,-11.672,0
0.426,-10.939,0
0.427,-5.629,0
0.428,-8.925,0
0.429,-7.094,0
0.43,-3.249,0
0.431,-1.967,0
0.432,-0.686,0
0.433,2.061,0
0.434,-3.615,0
0.435,-2.883,0
0.436,-3.615,0
0.437,-1.784,0
0.438,1.329,0
0.439,1.878,0
0.44,2.244,0
0.441,4.441,0
0.442,4.075,0
0.443,6.639,0
0.444,4.808,0
0.445,6.272,0
0.446,6.456,0
0.447,8.287,0
0.448,4.808,0
0.449,-1.784,0
0.45,-2.7,0
0.451,-5.08,0
0.452,-2.883,0
0.453,-2.333,0
0.454,0.779,0
0.455,-0.869,0
0.456,-0.502,0
0.457,-0.869,0
0.458,5.357,0
0.459,1.146,0
0.46,3.892,0
0.461,11.399,0
0.462,8.47,0
0.463,11.216,0
0.464,23.667,0
0.465,32.823,0
0.466,24.583,0
0.467,4.991,0
0.468,-2.883,0
0.469,-5.263,0
0.47,-7.46,0
0.471,-13.503,0
0.472,-18.996,0
0.473,-14.052,0
0.474,-15.517,0
0.475,-14.235,0
0.476,-10.756,0
0.477,-9.658,0
0.478,-2.7,0
0.479,-1.784,0
0.48,-1.052,0
0.481,1.146,0
0.482,1.695,0
0.483,-0.136,0
0.484,1.512,0
0.485,-3.981,0
0.486,-7.827,0
0.487,-5.996,0
0.488,-4.165,0
0.489,-6.911,0
0.49,-3.615,0
0.491,-1.418,0
0.492,-1.052,0
0.493,2.427,0
0.494,3.709,0
0.495,9.202,0
0.496,7.005,0
0.497,2.427,0
0.498,-0.686,0
0.499,-1.235,0
0.5,0.047,0
0.501,-0.319,0
0.502,0.779,0
0.503,-2.7,0
0.504,1.512,0
0.505,-0.136,0
0.506,0.23,0
0.507,1.512,0
0.508,1.146,0
0.509,1.512,0
0.51,7.005,0
0.511,3.709,0
0.512,9.935,0
0.513,20.188,0
0.514,37.95,0
0.515,35.569,0
0.516,15.611,0
0.517,2.244,0
0.518,-4.897,0
0.519,-11.489,0
0.52,-17.531,0
0.521,-15.7,0
0.522,-14.052,0
0.523,-12.587,0
0.524,-8.559,0
0.525,-7.46,0
0.526,-6.362,0
0.527,-7.277,0
0.528,-8.193,0
0.529,-4.165,0
0.53,-4.897,0
0.531,-3.066,0
0.532,-6.179,0
0.533,-5.629,0
0.534,-2.333,0
0.535,-1.052,0
0.536,-5.629,0
0.537,-1.235,0
0.538,0.413,0
0.539,0.779,0
0.54,0.413,0
0.541,2.427,0
0.542,-0.136,0
0.543,2.427,0
0.544,4.441,0
0.545,2.61,0
0.546,2.793,0
0.547,4.258,0
0.548,2.793,0
0.549,2.61,0
0.55,0.23,0
0.551,-2.517,0
0.552,-2.15,0
0.553,3.343,0
0.554,1.146,0
0.555,-0.686,0
0.556,-0.136,0
0.557,-0.686,0
0.558,-1.967,0
0.559,-0.686,0
0.56,5.54,0
0.561,4.808,0
0.562,3.892,0
0.563,16.343,0
0.564,21.836,0
0.565,40.147,0
0.566,56.993,0
0.567,37.034,0
0.568,39.598,0
0.569,22.752,0
0.57,16.16,0
0.571,6.089,0
0.572,0.596,0
0.573,-1.052,0
0.574,3.343,0
0.575,-3.432,0
0.576,-14.602,0
0.577,-22.109,0
0.578,-28.884,0
0.579,-37.307,0
0.58,-45.18,0
0.581,-52.138,0
0.582,-51.223,0
0.583,-43.715,0
0.584,-34.56,0
0.585,-26.137,0
0.586,-18.264,0
0.587,-27.419,0
0.588,-45.913,0
0.589,-64.589,0
0.59,-76.674,0
0.591,-96.633,0
0.592,-120.8,0
0.593,-130.32,0
0.594,-127.39,0
0.595,-129.96,0
0.596,-122.82,0
0.597,-120.62,0
0.598,-102.49,0
0.599,-70.815,0
0.6,-5.813,0
0.601,96.91,0
0.602,137.74,0
0.603,150.19,0
0.604,139.02,0
0.605,128.77,0
0.606,100.75,0
0.607,75.486,0
0.608,52.415,0
0.609,31.541,0
0.61,37.767,0
0.611,54.979,0
0.612,77.317,0
0.613,92.881,0
0.614,116.69,0
0.615,138.29,0
0.616,126.57,0
0.617,123.09,0
0.618,126.21,0
0.619,135,0
0.62,137.56,0
0.621,120.71,0
0.622,87.571,0
0.623,54.246,0
0.624,41.429,0
0.625,29.71,0
0.626,33.189,0
0.627,23.667,0
0.628,2.977,0
0.629,-4.897,0
0.63,-16.982,0
0.631,-27.968,0
0.632,-29.982,0
0.633,-31.813,0
0.634,-40.053,0
0.635,-41.518,0
0.636,-48.293,0
0.637,-47.194,0
0.638,-48.293,0
0.639,-47.377,0
0.64,-57.631,0
0.641,-56.35,0
0.642,-62.392,0
0.643,-63.491,0
0.644,-66.42,0
0.645,-65.505,0
0.646,-71.181,0
0.647,-68.984,0
0.648,-62.758,0
0.649,-55.251,0
0.65,-52.321,0
0.651,-49.575,0
0.652,-48.842,0
0.653,-48.11,0
0.654,-41.884,0
0.655,-39.504,0
0.656,-35.659,0
0.657,-29.433,0
0.658,-21.926,0
0.659,-21.01,0
0.66,-18.264,0
0.661,-15.883,0
0.662,-13.686,0
0.663,-10.573,0
0.664,-8.742,0
0.665,0.779,0
0.666,10.301,0
0.667,21.47,0
0.668,37.95,0
0.669,26.963,0
0.67,16.893,0
0.671,7.737,0
0.672,-0.502,0
0.673,-4.897,0
0.674,-8.925,0
0.675,-7.827,0
0.676,-4.531,0
0.677,-7.46,0
0.678,-6.545,0
0.679,-7.277,0
0.68,-0.319,0
0.681,-1.235,0
0.682,1.146,0
0.683,3.343,0
0.684,3.892,0
0.685,0.779,0
0.686,3.526,0
0.687,2.244,0
0.688,4.441,0
0.689,-0.136,0
0.69,1.695,0
0.691,4.441,0
0.692,5.723,0
0.693,8.836,0
0.694,9.202,0
0.695,9.568,0
0.696,8.47,0
0.697,9.202,0
0.698,5.54,0
0.699,6.822,0
0.7,6.456,0
0.701,6.089,0
0.702,10.301,0
0.703,8.653,0
0.704,8.287,0
0.705,7.005,0
0.706,8.104,0
0.707,2.427,0
0.708,8.104,0
0.709,5.906,0
0.71,5.357,0
0.711,5.906,0
0.712,3.16,0
0.713,1.878,0
0.714,1.878,0
0.715,6.089,0
0.716,9.935,0
0.717,12.315,0
0.718,19.273,0
0.719,26.231,0
0.72,19.822,0
0.721,17.442,0
0.722,15.245,0
0.723,6.272,0
0.724,-4.897,0
0.725,-12.404,0
0.726,-19.179,0
0.727,-18.081,0
0.728,-16.982,0
0.729,-16.066,0
0.73,-15.151,0
0.731,-14.418,0
0.732,-10.573,0
0.733,-7.277,0
0.734,-6.728,0
0.735,-6.179,0
0.736,1.329,0
0.737,-1.967,0
0.738,0.962,0
0.739,1.878,0
0.74,1.146,0
0.741,-1.052,0
0.742,2.244,0
0.743,-3.432,0
0.744,0.413,0
0.745,0.962,0
0.746,0.413,0
0.747,-2.333,0
0.748,2.244,0
0.749,2.793,0
0.75,-1.052,0
0.751,-0.686,0
0.752,-2.883,0
0.753,1.695,0
0.754,2.244,0
0.755,0.596,0
0.756,3.892,0
0.757,6.089,0
0.758,8.836,0
0.759,8.47,0
0.76,8.836,0
0.761,6.089,0
0.762,4.991,0
0.763,3.892,0
0.764,4.625,0
0.765,-1.784,0
0.766,-1.601,0
0.767,2.427,0
0.768,10.85,0
0.769,16.893,0
0.77,27.146,0
0.771,31.175,0
0.772,20.005,0
0.773,6.456,0
0.774,-10.024,0
0.775,-12.221,0
0.776,-14.235,0
0.777,-16.066,0
0.778,-17.714,0
0.779,-19.179,0
0.78,-15.151,0
0.781,-16.25,0
0.782,-12.954,0
0.783,-12.038,0
0.784,-9.292,0
0.785,-6.911,0
0.786,-4.714,0
0.787,-4.165,0
0.788,-3.615,0
0.789,-5.263,0
0.79,-5.629,0
0.791,-4.348,0
0.792,-5.446,0
0.793,-3.615,0
0.794,1.878,0
0.795,2.61,0
0.796,4.441,0
0.797,1.329,0
0.798,2.977,0
0.799,2.61,0
0.8,2.244,0
0.801,1.146,0
0.802,-0.686,0
0.803,2.61,0
0.804,1.512,0
0.805,-1.052,0
0.806,2.977,0
0.807,4.258,0
0.808,1.146,0
0.809,1.512,0
0.81,0.413,0
0.811,2.244,0
0.812,-1.052,0
0.813,-1.418,0
0.814,1.329,0
0.815,-0.502,0
0.816,1.146,0
0.817,0.047,0
0.818,4.625,0
0.819,13.597,0
0.82,12.498,0
0.821,29.527,0
0.822,31.907,0
0.823,16.526,0
0.824,6.456,0
0.825,-2.7,0
0.826,-10.939,0
0.827,-12.404,0
0.828,-13.686,0
0.829,-14.785,0
0.83,-11.489,0
0.831,-10.573,0
0.832,-13.32,0
0.833,-9.292,0
0.834,-10.024,0
0.835,-10.573,0
0.836,-6.179,0
0.837,-5.629,0
0.838,-4.348,0
0.839,-3.066,0
0.84,-1.967,0
0.841,-1.601,0
0.842,-1.235,0
0.843,2.061,0
0.844,4.258,0
0.845,6.272,0
0.846,3.709,0
0.847,1.878,0
0.848,5.174,0
0.849,6.456,0
0.85,6.089,0
0.851,4.258,0
0.852,3.892,0
0.853,1.878,0
0.854,0.596,0
0.855,1.878,0
0.856,-1.601,0
0.857,0.779,0
0.858,1.146,0
0.859,-2.7,0
0.86,4.808,0
0.861,8.104,0
0.862,9.019,0
0.863,6.272,0
0.864,0.596,0
0.865,-4.714,0
0.866,-4.165,0
0.867,-6.179,0
0.868,-4.348,0
0.869,4.075,0
0.87,12.498,0
0.871,24.949,0
0.872,29.893,0
0.873,16.343,0
0.874,3.526,0
0.875,-8.01,0
0.876,-9.475,0
0.877,-18.996,0
0.878,-20.095,0
0.879,-16.799,0
0.88,-11.855,0
0.881,-12.771,0
0.882,-12.038,0
0.883,-12.771,0
0.884,-12.221,0
0.885,-10.39,0
0.886,-7.644,0
0.887,-4.348,0
0.888,0.779,0
0.889,0.23,0
0.89,2.061,0
0.891,1.512,0
0.892,1.146,0
0.893,-1.967,0
0.894,-3.066,0
0.895,-1.967,0
0.896,-3.798,0
0.897,-1.052,0
0.898,1.512,0
0.899,0.413,0
0.9,-4.165,0
0.901,-2.333,0
0.902,2.061,0
0.903,8.287,0
0.904,2.61,0
0.905,3.343,0
0.906,-2.883,0
0.907,2.793,0
0.908,4.991,0
0.909,4.441,0
0.91,1.329,0
0.911,2.977,0
0.912,1.695,0
0.913,0.413,0
0.914,-0.686,0
0.915,1.146,0
0.916,2.244,0
0.917,0.23,0
0.918,-0.319,0
0.919,-1.601,0
0.92,2.427,0
0.921,9.751,0
0.922,20.921,0
0.923,22.386,0
0.924,23.667,0
0.925,27.146,0
0.926,28.245,0
0.927,13.047,0
0.928,6.456,0
0.929,-11.672,0
0.93,-14.052,0
0.931,-20.644,0
0.932,-18.63,0
0.933,-16.799,0
0.934,-21.743,0
0.935,-17.348,0
0.936,-16.066,0
0.937,-19.545,0
0.938,-11.672,0
0.939,-8.742,0
0.94,-2.333,0
0.941,-8.01,0
0.942,-4.165,0
0.943,-7.46,0
0.944,-3.066,0
0.945,-1.418,0
0.946,3.16,0
0.947,1.329,0
0.948,-4.897,0
0.949,-5.629,0
0.95,-6.362,0
0.951,-5.813,0
0.952,-1.418,0
0.953,0.23,0
0.954,-1.052,0
0.955,0.23,0
0.956,2.244,0
0.957,3.343,0
0.958,3.709,0
0.959,7.005,0
0.96,4.808,0
0.961,3.709,0
0.962,7.188,0
0.963,7.554,0
0.964,2.977,0
0.965,4.808,0
0.966,0.962,0
0.967,0.596,0
0.968,0.962,0
0.969,0.413,0
0.97,-0.686,0
0.971,4.991,0
0.972,12.498,0
0.973,21.653,0
0.974,25.132,0
0.975,33.006,0
0.976,33.921,0
0.977,31.175,0
0.978,18.724,0
0.979,-5.08,0
0.98,-14.602,0
0.981,-23.391,0
0.982,-15.517,0
0.983,-17.897,0
0.984,-15.7,0
0.985,-17.714,0
0.986,-19.545,0
0.987,-17.897,0
0.988,-13.503,0
0.989,-9.475,0
0.99,-5.996,0
0.991,-7.094,0
0.992,-2.15,0
0.993,-8.559,0
0.994,-4.531,0
0.995,-3.798,0
0.996,-5.629,0
0.997,-3.798,0
0.998,2.427,0
0.999,1.695,0
1,3.892,0
1.001,2.061,0
1.002,0.23,0
1.003,-0.319,0
1.004,0.962,0
1.005,-3.249,0
1.006,-1.601,0
1.007,0.779,0
1.008,-1.418,0
1.009,3.16,0
1.01,3.709,0
1.011,5.357,0
1.012,7.737,0
1.013,5.54,0
1.014,4.441,0
1.015,3.343,0
1.016,5.174,0
1.017,4.441,0
1.018,0.23,0
1.019,-0.319,0
1.02,3.343,0
1.021,6.089,0
1.022,9.385,0
1.023,11.583,0
1.024,17.808,0
1.025,15.062,0
1.026,12.681,0
1.027,7.371,0
1.028,1.146,0
1.029,-8.01,0
1.03,-11.489,0
1.031,-12.587,0
1.032,-13.503,0
1.033,-12.587,0
1.034,-14.968,0
1.035,-17.165,0
1.036,-13.869,0
1.037,-10.756,0
1.038,-5.629,0
1.039,-7.46,0
1.04,-6.911,0
1.041,-5.263,0
1.042,0.23,0
1.043,0.962,0
1.044,-3.615,0
1.045,-3.066,0
1.046,-1.418,0
1.047,-2.7,0
1.048,-0.502,0
1.049,0.596,0
1.05,2.427,0
1.051,4.258,0
1.052,3.526,0
1.053,3.343,0
1.054,2.61,0
1.055,-0.502,0
1.056,1.512,0
1.057,-1.967,0
1.058,1.146,0
1.059,0.047,0
1.06,-2.517,0
1.061,2.244,0
1.062,-0.869,0
1.063,4.258,0
1.064,3.709,0
1.065,4.258,0
1.066,0.413,0
1.067,3.709,0
1.068,0.596,0
1.069,-0.502,0
1.07,0.596,0
1.071,3.343,0
1.072,-0.686,0
1.073,6.822,0
1.074,10.118,0
1.075,25.315,0
1.076,27.513,0
1.077,25.499,0
1.078,12.681,0
1.079,1.146,0
1.08,-9.292,0
1.081,-8.01,0
1.082,-11.489,0
1.083,-12.587,0
1.084,-15.517,0
1.085,-16.433,0
1.086,-15.7,0
1.087,-17.897,0
1.088,-10.39,0
1.089,-11.306,0
1.09,-8.559,0
1.091,-6.179,0
1.092,-3.981,0
1.093,-2.15,0
1.094,-5.263,0
1.095,-5.813,0
1.096,-2.517,0
1.097,-2.15,0
1.098,-5.996,0
1.099,-1.418,0
1.1,4.258,0
1.101,-1.052,0
1.102,2.244,0
1.103,-2.15,0
1.104,0.596,0
1.105,0.23,0
1.106,7.188,0
1.107,14.146,0
1.108,11.399,0
1.109,3.892,0
1.11,0.962,0
1.111,5.54,0
1.112,1.512,0
1.113,-5.446,0
1.114,-10.024,0
1.115,-4.348,0
1.116,-3.615,0
1.117,-1.784,0
1.118,-3.615,0
1.119,-3.066,0
1.12,-4.348,0
1.121,-5.629,0
1.122,-1.052,0
1.123,0.962,0
1.124,6.639,0
1.125,14.146,0
1.126,17.076,0
1.127,27.33,0
1.128,17.808,0
1.129,14.329,0
1.13,8.653,0
1.131,-2.517,0
1.132,-10.024,0
1.133,-16.799,0
1.134,-15.7,0
1.135,-14.602,0
1.136,-15.517,0
1.137,-16.433,0
1.138,-14.052,0
1.139,-13.32,0
1.14,-8.742,0
1.141,-5.629,0
1.142,-5.08,0
1.143,-6.362,0
1.144,-6.728,0
1.145,-6.362,0
1.146,-3.798,0
1.147,-4.165,0
1.148,-3.981,0
1.149,-2.7,0
1.15,-6.728,0
1.151,-3.981,0
1.152,-1.601,0
1.153,-0.319,0
1.154,5.906,0
1.155,6.822,0
1.156,2.793,0
1.157,2.061,0
1.158,3.892,0
1.159,2.061,0
1.16,2.61,0
1.161,2.977,0
1.162,3.343,0
1.163,1.329,0
1.164,0.962,0
1.165,2.793,0
1.166,3.526,0
1.167,6.089,0
1.168,2.793,0
1.169,-2.7,0
1.17,-1.967,0
1.171,2.61,0
1.172,3.16,0
1.173,4.075,0
1.174,1.329,0
1.175,8.836,0
1.176,12.132,0
1.177,27.33,0
1.178,29.527,0
1.179,23.484,0
1.18,7.005,0
1.181,-3.981,0
1.182,-10.024,0
1.183,-19.179,0
1.184,-17.531,0
1.185,-16.066,0
1.186,-12.038,0
1.187,-13.137,0
1.188,-9.841,0
1.189,-8.925,0
1.19,-6.179,0
1.191,-5.446,0
1.192,-1.601,0
1.193,-3.432,0
1.194,0.962,0
1.195,-2.883,0
1.196,-1.601,0
1.197,-3.798,0
1.198,-3.432,0
1.199,2.244,0
1.2,1.512,0
1.201,-2.333,0
1.202,-0.502,0
1.203,3.892,0
1.204,4.441,0
1.205,1.146,0
1.206,6.272,0
1.207,8.104,0
1.208,9.935,0
1.209,6.089,0
1.21,9.385,0
1.211,5.174,0
1.212,2.427,0
1.213,2.061,0
1.214,0.779,0
1.215,-1.967,0
1.216,0.596,0
1.217,-2.7,0
1.218,-7.277,0
1.219,-4.165,0
1.22,-2.517,0
1.221,-2.883,0
1.222,2.244,0
1.223,4.075,0
1.224,1.878,0
1.225,3.709,0
1.226,12.132,0
1.227,13.23,0
1.228,9.935,0
1.229,21.104,0
1.23,28.611,0
1.231,10.85,0
1.232,3.709,0
1.233,-7.277,0
1.234,-13.32,0
1.235,-11.489,0
1.236,-16.433,0
1.237,-17.897,0
1.238,-16.616,0
1.239,-13.137,0
1.24,-9.841,0
1.241,-10.756,0
1.242,-9.841,0
1.243,-12.221,0
1.244,-10.024,0
1.245,-10.573,0
1.246,-7.46,0
1.247,-4.714,0
1.248,-2.333,0
1.249,-3.615,0
1.25,-1.601,0
1.251,0.962,0
1.252,2.061,0
1.253,2.793,0
1.254,0.962,0
1.255,-0.319,0
1.256,-0.136,0
1.257,-3.432,0
1.258,1.695,0
1.259,4.991,0
1.26,4.441,0
1.261,1.695,0
1.262,1.329,0
1.263,0.962,0
1.264,2.061,0
1.265,2.427,0
1.266,2.793,0
1.267,4.258,0
1.268,4.991,0
1.269,2.061,0
1.27,0.962,0
1.271,-0.869,0
1.272,-4.165,0
1.273,2.793,0
1.274,5.723,0
1.275,3.343,0
1.276,-3.066,0
1.277,7.737,0
1.278,18.174,0
1.279,24.949,0
1.28,28.428,0
1.281,20.555,0
1.282,11.399,0
1.283,2.977,0
1.284,-4.897,0
1.285,-7.827,0
1.286,-14.235,0
1.287,-11.855,0
1.288,-12.587,0
1.289,-13.137,0
1.29,-10.024,0
1.291,-4.897,0
1.292,-1.601,0
1.293,0.23,0
1.294,-1.418,0
1.295,5.174,0
1.296,4.258,0
1.297,8.287,0
1.298,12.132,0
1.299,16.709,0
1.3,22.386,0
1.301,18.541,0
1.302,23.118,0
1.303,18.724,0
1.304,19.273,0
1.305,17.991,0
1.306,19.273,0
1.307,13.047,0
1.308,-0.869,0
1.309,-10.939,0
1.31,-23.757,0
1.311,-35.292,0
1.312,-45.729,0
1.313,-47.011,0
1.314,-40.969,0
1.315,-26.137,0
1.316,-16.066,0
1.317,-21.56,0
1.318,-33.095,0
1.319,-52.688,0
1.32,-76.857,0
1.321,-86.379,0
1.322,-95.168,0
1.323,-113.84,0
1.324,-120.99,0
1.325,-127.58,0
1.326,-138.01,0
1.327,-140.03,0
1.328,-123.55,0
1.329,-103.59,0
1.33,-63.308,0
1.331,23.301,0
1.332,110.46,0
1.333,121.63,0
1.334,152.39,0
1.335,143.05,0
1.336,117.78,0
1.337,94.712,0
1.338,73.838,0
1.339,67.613,0
1.34,61.937,0
1.341,56.81,0
1.342,80.613,0
1.343,102.22,0
1.344,113.94,0
1.345,124.56,0
1.346,127.67,0
1.347,124.74,0
1.348,106.06,0
1.349,108.44,0
1.35,110.64,0
1.351,100.57,0
1.352,80.43,0
1.353,56.26,0
1.354,46.739,0
1.355,31.907,0
1.356,34.471,0
1.357,22.386,0
1.358,11.399,0
1.359,5.357,0
1.36,-3.798,0
1.361,-12.038,0
1.362,-19.545,0
1.363,-15.517,0
1.364,-26.687,0
1.365,-37.124,0
1.366,-38.405,0
1.367,-41.884,0
1.368,-38.588,0
1.369,-39.504,0
1.37,-42.25,0
1.371,-41.518,0
1.372,-46.828,0
1.373,-51.406,0
1.374,-60.927,0
1.375,-64.956,0
1.376,-70.998,0
1.377,-66.97,0
1.378,-68.068,0
1.379,-52.871,0
1.38,-50.673,0
1.381,-52.688,0
1.382,-25.222,0
1.383,-13.503,0
1.384,-24.123,0
1.385,-33.645,0
1.386,-42.434,0
1.387,-44.997,0
1.388,-42.617,0
1.389,-40.419,0
1.39,-38.405,0
1.391,-29.25,0
1.392,-24.306,0
1.393,-22.841,0
1.394,-21.56,0
1.395,-18.081,0
1.396,-14.785,0
1.397,-9.841,0
1.398,-5.263,0
1.399,-4.531,0
1.4,0.779,0
1.401,-1.052,0
1.402,-0.502,0
1.403,5.723,0
1.404,6.456,0
1.405,8.653,0
1.406,13.23,0
1.407,8.836,0
1.408,6.089,0
1.409,3.709,0
1.41,2.427,0
1.411,5.174,0
1.412,4.808,0
1.413,5.906,0
1.414,10.484,0
1.415,11.033,0
1.416,12.864,0
1.417,10.118,0
1.418,12.498,0
1.419,10.301,0
1.42,8.287,0
1.421,10.118,0
1.422,13.414,0
1.423,16.16,0
1.424,13.597,0
1.425,8.104,0
1.426,11.949,0
1.427,7.371,0
1.428,9.935,0
1.429,6.822,0
1.43,10.667,0
1.431,18.174,0
1.432,30.625,0
1.433,32.273,0
1.434,15.794,0
1.435,4.808,0
1.436,-1.235,0
1.437,0.596,0
1.438,-4.348,0
1.439,0.047,0
1.44,-3.981,0
1.441,-0.502,0
1.442,-6.179,0
1.443,-7.094,0
1.444,-6.179,0
1.445,-0.502,0
1.446,1.695,0
1.447,-4.531,0
1.448,-2.15,0
1.449,-7.46,0
1.45,-2.883,0
1.451,-3.432,0
1.452,-2.883,0
1.453,-1.601,0
1.454,-1.235,0
1.455,-0.136,0
1.456,-0.502,0
1.457,4.991,0
1.458,4.258,0
1.459,2.427,0
1.46,2.977,0
1.461,1.329,0
1.462,0.962,0
1.463,1.329,0
1.464,0.23,0
1.465,-2.333,0
1.466,-2.7,0
1.467,-4.714,0
1.468,-0.502,0
1.469,2.61,0
1.47,7.737,0
1.471,7.188,0
1.472,5.357,0
1.473,7.005,0
1.474,8.287,0
1.475,5.174,0
1.476,-0.319,0
1.477,-2.517,0
1.478,0.779,0
1.479,0.413,0
1.48,2.244,0
1.481,10.667,0
1.482,11.766,0
1.483,19.639,0
1.484,20.555,0
1.485,32.64,0
1.486,27.696,0
1.487,14.146,0
1.488,-2.333,0
1.489,-8.925,0
1.49,-10.939,0
1.491,-12.771,0
1.492,-14.418,0
1.493,-15.883,0
1.494,-14.602,0
1.495,-15.7,0
1.496,-12.404,0
1.497,-11.489,0
1.498,-10.573,0
1.499,-9.841,0
1.5,-12.038,0
1.501,-10.207,0
1.502,-8.376,0
1.503,-5.629,0
1.504,-2.333,0
1.505,-2.7,0
1.506,-1.601,0
1.507,0.23,0
1.508,-0.136,0
1.509,-0.869,0
1.51,-1.052,0
1.511,-4.531,0
1.512,1.512,0
1.513,0.779,0
1.514,6.089,0
1.515,9.385,0
1.516,6.272,0
1.517,-2.15,0
1.518,-3.249,0
1.519,-4.348,0
1.52,0.596,0
1.521,-3.981,0
1.522,1.695,0
1.523,0.962,0
1.524,4.258,0
1.525,3.709,0
1.526,7.554,0
1.527,2.977,0
1.528,2.427,0
1.529,-0.319,0
1.53,-1.052,0
1.531,-0.686,0
1.532,6.272,0
1.533,11.216,0
1.534,21.47,0
1.535,30.992,0
1.536,12.498,0
1.537,15.062,0
1.538,2.977,0
1.539,-3.615,0
1.54,-9.658,0
1.541,-7.827,0
1.542,-9.475,0
1.543,-10.939,0
1.544,-17.714,0
1.545,-18.813,0
1.546,-15.517,0
1.547,-12.587,0
1.548,-13.503,0
1.549,-11.123,0
1.55,-4.165,0
1.551,-6.911,0
1.552,-1.235,0
1.553,-0.502,0
1.554,-2.333,0
1.555,-0.502,0
1.556,4.625,0
1.557,0.047,0
1.558,0.596,0
1.559,3.343,0
1.56,2.061,0
1.561,5.174,0
1.562,-0.319,0
1.563,1.878,0
1.564,2.427,0
1.565,4.258,0
1.566,3.709,0
1.567,0.413,0
1.568,2.61,0
1.569,3.709,0
1.57,6.272,0
1.571,2.244,0
1.572,5.54,0
1.573,1.329,0
1.574,5.174,0
1.575,4.808,0
1.576,4.441,0
1.577,2.427,0
1.578,2.061,0
1.579,1.695,0
1.58,3.16,0
1.581,4.808,0
1.582,1.146,0
1.583,8.653,0
1.584,11.949,0
1.585,21.104,0
1.586,27.146,0
1.587,37.4,0
1.588,16.893,0
1.589,8.104,0
1.59,-5.263,0
1.591,-7.644,0
1.592,-14.235,0
1.593,-16.25,0
1.594,-14.418,0
1.595,-19.362,0
1.596,-17.897,0
1.597,-11.123,0
1.598,-5.08,0
1.599,-3.981,0
1.6,-6.911,0
1.601,-11.489,0
1.602,-10.756,0
1.603,-12.954,0
1.604,-12.404,0
1.605,-10.573,0
1.606,-7.827,0
1.607,-9.108,0
1.608,-5.996,0
1.609,-1.418,0
1.61,-1.967,0
1.611,-0.319,0
1.612,-3.615,0
1.613,-2.333,0
1.614,0.413,0
1.615,-1.418,0
1.616,4.075,0
1.617,1.878,0
1.618,-1.418,0
1.619,-4.531,0
1.62,0.596,0
1.621,5.174,0
1.622,2.061,0
1.623,1.512,0
1.624,6.089,0
1.625,6.639,0
1.626,6.089,0
1.627,7.371,0
1.628,2.244,0
1.629,1.695,0
1.63,-0.136,0
1.631,-5.263,0
1.632,-1.784,0
1.633,-2.333,0
1.634,4.625,0
1.635,11.033,0
1.636,23.484,0
1.637,36.302,0
1.638,34.654,0
1.639,18.174,0
1.64,2.793,0
1.641,-3.249,0
1.642,-5.08,0
1.643,-13.32,0
1.644,-17.714,0
1.645,-10.939,0
1.646,-9.841,0
1.647,-8.742,0
1.648,-7.827,0
1.649,-6.911,0
1.65,-12.587,0
1.651,-13.32,0
1.652,-11.489,0
1.653,-9.658,0
1.654,-6.911,0
1.655,-3.615,0
1.656,-2.333,0
1.657,1.512,0
1.658,1.146,0
1.659,5.357,0
1.66,-3.066,0
1.661,0.413,0
1.662,-2.883,0
1.663,-5.813,0
1.664,0.596,0
1.665,1.329,0
1.666,5.174,0
1.667,3.343,0
1.668,0.23,0
1.669,-1.418,0
1.67,0.962,0
1.671,-2.15,0
1.672,0.596,0
1.673,6.272,0
1.674,5.54,0
1.675,3.343,0
1.676,5.174,0
1.677,0.779,0
1.678,-3.066,0
1.679,-3.432,0
1.68,-0.319,0
1.681,0.779,0
1.682,0.413,0
1.683,1.878,0
1.684,0.779,0
1.685,4.075,0
1.686,7.188,0
1.687,13.414,0
1.688,25.499,0
1.689,30.442,0
1.69,31.907,0
1.691,19.639,0
1.692,8.104,0
1.693,-5.446,0
1.694,-14.602,0
1.695,-19.545,0
1.696,-18.081,0
1.697,-19.362,0
1.698,-25.405,0
1.699,-19.729,0
1.7,-20.644,0
1.701,-16.066,0
1.702,-18.447,0
1.703,-10.024,0
1.704,-6.728,0
1.705,-3.798,0
1.706,-1.052,0
1.707,-1.784,0
1.708,0.413,0
1.709,-0.136,0
1.71,-1.967,0
1.711,0.779,0
1.712,1.146,0
1.713,-3.981,0
1.714,0.596,0
1.715,2.427,0
1.716,0.779,0
1.717,-1.601,0
1.718,-0.319,0
1.719,0.779,0
1.72,1.878,0
1.721,4.441,0
1.722,0.413,0
1.723,4.258,0
1.724,6.639,0
1.725,8.836,0
1.726,2.61,0
1.727,3.526,0
1.728,1.146,0
1.729,-1.052,0
1.73,-2.883,0
1.731,-1.052,0
1.732,7.371,0
1.733,6.272,0
1.734,1.878,0
1.735,-1.418,0
1.736,13.78,0
1.737,7.188,0
1.738,13.23,0
1.739,26.048,0
1.74,37.583,0
1.741,24.034,0
1.742,14.878,0
1.743,-3.432,0
1.744,-10.573,0
1.745,-17.165,0
1.746,-19.179,0
1.747,-13.686,0
1.748,-15.334,0
1.749,-13.869,0
1.75,-12.587,0
1.751,-16.066,0
1.752,-14.968,0
1.753,-10.024,0
1.754,-12.771,0
1.755,-12.038,0
1.756,-5.08,0
1.757,1.329,0
1.758,0.596,0
1.759,-1.601,0
1.76,-1.052,0
1.761,-0.502,0
1.762,2.244,0
1.763,3.526,0
1.764,0.413,0
1.765,-2.333,0
1.766,0.23,0
1.767,-0.869,0
1.768,-2.883,0
1.769,-1.601,0
1.77,2.427,0
1.771,6.272,0
1.772,10.85,0
1.773,10.301,0
1.774,8.653,0
1.775,3.16,0
1.776,-0.686,0
1.777,-1.235,0
1.778,-0.686,0
1.779,-1.235,0
1.78,2.061,0
1.781,-3.066,0
1.782,0.23,0
1.783,0.779,0
1.784,-0.869,0
1.785,-1.052,0
1.786,2.244,0
1.787,9.202,0
1.788,12.132,0
1.789,22.386,0
1.79,21.104,0
1.791,27.146,0
1.792,26.048,0
1.793,28.978,0
1.794,29.893,0
1.795,25.865,0
1.796,14.329,0
1.797,-3.981,0
1.798,-16.066,0
1.799,-22.658,0
1.8,-28.701,0
1.801,-26.87,0
1.802,-28.518,0
1.803,-24.123,0
1.804,-22.841,0
1.805,-16.799,0
1.806,-15.7,0
1.807,-12.771,0
1.808,-11.855,0
1.809,-7.827,0
1.81,-5.629,0
1.811,-5.08,0
1.812,-4.531,0
1.813,-2.883,0
1.814,0.413,0
1.815,0.779,0
1.816,1.146,0
1.817,3.709,0
1.818,-0.319,0
1.819,-1.601,0
1.82,2.61,0
1.821,5.357,0
1.822,5.723,0
1.823,4.441,0
1.824,1.695,0
1.825,2.793,0
1.826,0.23,0
1.827,2.244,0
1.828,2.427,0
1.829,2.61,0
1.83,3.16,0
1.831,-0.136,0
1.832,2.977,0
1.833,5.723,0
1.834,2.244,0
1.835,1.878,0
1.836,4.075,0
1.837,2.977,0
1.838,2.61,0
1.839,4.441,0
1.84,0.413,0
1.841,-2.333,0
1.842,-2.7,0
1.843,1.512,0
1.844,-2.333,0
1.845,5.174,0
1.846,6.272,0
1.847,13.23,0
1.848,19.639,0
1.849,27.146,0
1.85,32.09,0
1.851,25.682,0
1.852,13.23,0
1.853,-3.249,0
1.854,-9.841,0
1.855,-15.883,0
1.856,-17.714,0
1.857,-16.066,0
1.858,-20.461,0
1.859,-19.179,0
1.86,-18.081,0
1.861,-12.404,0
1.862,-15.334,0
1.863,-12.587,0
1.864,-11.855,0
1.865,-8.01,0
1.866,-9.841,0
1.867,-8.01,0
1.868,-7.46,0
1.869,-7.094,0
1.87,-1.052,0
1.871,-0.319,0
1.872,0.413,0
1.873,2.244,0
1.874,4.075,0
1.875,6.822,0
1.876,4.441,0
1.877,4.075,0
1.878,2.977,0
1.879,-0.502,0
1.88,0.779,0
1.881,1.878,0
1.882,2.244,0
1.883,2.61,0
1.884,4.625,0
1.885,0.413,0
1.886,-1.418,0
1.887,-3.249,0
1.888,-2.7,0
1.889,4.808,0
1.89,12.681,0
1.891,19.639,0
1.892,33.555,0
1.893,35.569,0
1.894,19.09,0
1.895,12.498,0
1.896,2.427,0
1.897,-3.066,0
1.898,-11.306,0
1.899,-15.7,0
1.9,-16.982,0
1.901,-15.883,0
1.902,-14.785,0
1.903,-9.841,0
1.904,-10.756,0
1.905,-11.489,0
1.906,-10.756,0
1.907,-14.052,0
1.908,-10.939,0
1.909,-11.489,0
1.91,-8.193,0
1.911,-3.981,0
1.912,-3.432,0
1.913,2.061,0
1.914,-1.784,0
1.915,2.793,0
1.916,4.625,0
1.917,-1.601,0
1.918,-2.333,0
1.919,2.977,0
1.92,2.427,0
1.921,0.596,0
1.922,4.441,0
1.923,5.723,0
1.924,5.357,0
1.925,9.202,0
1.926,1.695,0
1.927,4.991,0
1.928,4.075,0
1.929,4.991,0
1.93,5.723,0
1.931,4.991,0
1.932,4.441,0
1.933,1.329,0
1.934,-1.418,0
1.935,4.075,0
1.936,6.272,0
1.937,1.695,0
1.938,2.61,0
1.939,0.779,0
1.94,9.202,0
1.941,17.625,0
1.942,14.329,0
1.943,29.527,0
1.944,27.33,0
1.945,17.259,0
1.946,0.779,0
1.947,-10.207,0
1.948,-12.221,0
1.949,-17.714,0
1.95,-19.362,0
1.951,-20.827,0
1.952,-19.545,0
1.953,-16.066,0
1.954,-14.968,0
1.955,-10.024,0
1.956,-10.939,0
1.957,-10.207,0
1.958,-12.404,0
1.959,-12.954,0
1.96,-7.277,0
1.961,-3.432,0
1.962,-5.263,0
1.963,-3.432,0
1.964,-2.883,0
1.965,2.61,0
1.966,-1.235,0
1.967,-1.784,0
1.968,0.047,0
1.969,1.695,0
1.97,0.413,0
1.971,2.61,0
1.972,3.709,0
1.973,3.343,0
1.974,7.371,0
1.975,6.089,0
1.976,0.047,0
1.977,0.779,0
1.978,1.512,0
1.979,2.061,0
1.98,-3.615,0
1.981,-1.418,0
1.982,3.16,0
1.983,-2.517,0
1.984,-0.319,0
1.985,-0.869,0
1.986,3.526,0
1.987,4.075,0
1.988,4.441,0
1.989,3.343,0
1.99,2.061,0
1.991,8.287,0
1.992,14.695,0
1.993,18.724,0
1.994,19.456,0
1.995,24.034,0
1.996,28.428,0
1.997,32.273,0
1.998,24.766,0
1.999,7.737,0
2,-9.108,0
2.001,-20.095,0
2.002,-22.109,0
2.003,-23.94,0
2.004,-22.292,0
2.005,-20.827,0
2.006,-14.052,0
2.007,-15.151,0
2.008,-9.475,0
2.009,-10.39,0
2.01,-11.306,0
2.011,-7.277,0
2.012,-8.01,0
2.013,-7.46,0
2.014,-10.573,0
2.015,-7.827,0
2.016,-10.207,0
2.017,-3.249,0
2.018,-4.165,0
2.019,-3.249,0
2.02,0.779,0
2.021,4.625,0
2.022,7.92,0
2.023,16.16,0
2.024,17.259,0
2.025,16.343,0
2.026,17.259,0
2.027,19.639,0
2.028,23.484,0
2.029,28.062,0
2.03,27.513,0
2.031,24.766,0
2.032,21.47,0
2.033,22.752,0
2.034,16.526,0
2.035,13.78,0
2.036,2.977,0
2.037,-7.46,0
2.038,-14.235,0
2.039,-20.278,0
2.04,-26.687,0
2.041,-34.56,0
2.042,-19.362,0
2.043,0.596,0
2.044,13.963,0
2.045,16.343,0
2.046,-3.615,0
2.047,-43.898,0
2.048,-72.646,0
2.049,-98.83,0
2.05,-113.11,0
2.051,-134.72,0
2.052,-138.56,0
2.053,-135.09,0
2.054,-144.61,0
2.055,-147.54,0
2.056,-139.66,0
2.057,-127.58,0
2.058,-98.83,0
2.059,-39.687,0
2.06,53.514,0
2.061,115.77,0
2.062,126.94,0
2.063,137.19,0
2.064,127.85,0
2.065,102.59,0
2.066,79.515,0
2.067,72.557,0
2.068,53.697,0
2.069,59.373,0
2.07,74.937,0
2.071,108.26,0
2.072,121.08,0
2.073,117.23,0
2.074,120.71,0
2.075,117.6,0
2.076,108.81,0
2.077,111.38,0
2.078,109,0
2.079,98.008,0
2.08,71.824,0
2.081,46.922,0
2.082,37.4,0
2.083,40.33,0
2.084,37.767,0
2.085,35.386,0
2.086,28.794,0
2.087,18.724,0
2.088,13.23,0
2.089,11.583,0
2.09,7.188,0
2.091,-5.446,0
2.092,-23.208,0
2.093,-30.349,0
2.094,-23.757,0
2.095,-25.771,0
2.096,-16.616,0
2.097,-11.672,0
2.098,-16.066,0
2.099,-36.574,0
2.1,-57.265,0
2.101,-70.632,0
2.102,-77.773,0
2.103,-84.365,0
2.104,-82.351,0
2.105,-80.52,0
2.106,-78.872,0
2.107,-74.477,0
2.108,-75.759,0
2.109,-69.716,0
2.11,-64.04,0
2.111,-57.082,0
2.112,-50.673,0
2.113,-44.997,0
2.114,-39.687,0
2.115,-32.18,0
2.116,-27.236,0
2.117,-20.827,0
2.118,-20.095,0
2.119,-16.25,0
2.12,-11.672,0
2.121,-5.996,0
2.122,-3.798,0
2.123,-4.348,0
2.124,-1.235,0
2.125,-2.883,0
2.126,-0.502,0
2.127,6.456,0
2.128,5.54,0
2.129,0.962,0
2.13,3.343,0
2.131,8.653,0
2.132,6.822,0
2.133,7.371,0
2.134,10.118,0
2.135,6.822,0
2.136,8.104,0
2.137,8.47,0
2.138,9.568,0
2.139,8.47,0
2.14,13.047,0
2.141,8.47,0
2.142,6.272,0
2.143,8.104,0
2.144,14.329,0
2.145,20.005,0
2.146,30.076,0
2.147,42.344,0
2.148,24.034,0
2.149,21.653,0
2.15,6.272,0
2.151,0.23,0
2.152,-5.263,0
2.153,-6.911,0
2.154,-5.446,0
2.155,-4.165,0
2.156,-3.066,0
2.157,-4.165,0
2.158,-5.08,0
2.159,-0.502,0
2.16,-2.883,0
2.161,-3.615,0
2.162,-3.066,0
2.163,-1.235,0
2.164,-0.686,0
2.165,2.61,0
2.166,-3.432,0
2.167,-1.052,0
2.168,5.906,0
2.169,6.822,0
2.17,6.089,0
2.171,5.357,0
2.172,3.526,0
2.173,5.357,0
2.174,3.709,0
2.175,8.287,0
2.176,5.174,0
2.177,0.047,0
2.178,1.878,0
2.179,0.047,0
2.18,3.892,0
2.181,1.512,0
2.182,1.146,0
2.183,0.047,0
2.184,1.146,0
2.185,2.244,0
2.186,5.54,0
2.187,2.427,0
2.188,3.526,0
2.189,2.427,0
2.19,2.793,0
2.191,4.808,0
2.192,4.075,0
2.193,1.146,0
2.194,-0.136,0
2.195,3.343,0
2.196,10.85,0
2.197,23.301,0
2.198,31.541,0
2.199,33.006,0
2.2,15.245,0
2.201,3.16,0
2.202,-3.432,0
2.203,-5.446,0
2.204,-10.939,0
2.205,-12.587,0
2.206,-11.123,0
2.207,-12.404,0
2.208,-13.503,0
2.209,-16.799,0
2.21,-11.855,0
2.211,-9.108,0
2.212,-8.376,0
2.213,-6.179,0
2.214,-6.728,0
2.215,-4.897,0
2.216,-5.446,0
2.217,-4.165,0
2.218,-1.967,0
2.219,-2.333,0
2.22,-3.432,0
2.221,-0.136,0
2.222,3.709,0
2.223,2.427,0
2.224,1.146,0
2.225,0.047,0
2.226,1.146,0
2.227,0.047,0
2.228,-0.136,0
2.229,-0.869,0
2.23,-0.136,0
2.231,-1.601,0
2.232,-4.897,0
2.233,-4.531,0
2.234,-0.686,0
2.235,0.596,0
2.236,0.23,0
2.237,2.977,0
2.238,5.54,0
2.239,9.568,0
2.24,8.287,0
2.241,7.005,0
2.242,2.427,0
2.243,0.596,0
2.244,-0.319,0
2.245,2.427,0
2.246,9.935,0
2.247,8.836,0
2.248,13.78,0
2.249,22.203,0
2.25,30.076,0
2.251,14.878,0
2.252,3.892,0
2.253,1.878,0
2.254,-7.277,0
2.255,-12.221,0
2.256,-16.616,0
2.257,-15.334,0
2.258,-16.433,0
2.259,-13.137,0
2.26,-14.052,0
2.261,-11.306,0
2.262,-12.038,0
2.263,-9.841,0
2.264,-8.01,0
2.265,-7.46,0
2.266,-5.813,0
2.267,-6.179,0
2.268,-1.052,0
2.269,-0.502,0
2.27,0.047,0
2.271,-0.502,0
2.272,1.878,0
2.273,3.16,0
2.274,5.906,0
2.275,0.23,0
2.276,-2.15,0
2.277,-2.883,0
2.278,-2.333,0
2.279,2.061,0
2.28,3.709,0
2.281,0.413,0
2.282,0.779,0
2.283,0.413,0
2.284,-0.686,0
2.285,0.413,0
2.286,4.991,0
2.287,1.695,0
2.288,6.089,0
2.289,5.54,0
2.29,5.174,0
2.291,7.371,0
2.292,7.737,0
2.293,2.061,0
2.294,1.329,0
2.295,4.075,0
2.296,3.343,0
2.297,13.597,0
2.298,12.132,0
2.299,18.907,0
2.3,30.076,0
2.301,37.583,0
2.302,22.569,0
2.303,12.498,0
2.304,-0.319,0
2.305,-5.263,0
2.306,-12.771,0
2.307,-16.799,0
2.308,-20.278,0
2.309,-19.179,0
2.31,-16.25,0
2.311,-13.503,0
2.312,-12.771,0
2.313,-14.968,0
2.314,-8.742,0
2.315,-4.714,0
2.316,-2.517,0
2.317,-3.066,0
2.318,-1.235,0
2.319,0.413,0
2.32,-5.08,0
2.321,0.23,0
2.322,0.779,0
2.323,2.61,0
2.324,-1.235,0
2.325,-3.615,0
2.326,-3.981,0
2.327,-2.883,0
2.328,-2.517,0
2.329,0.047,0
2.33,-0.686,0
2.331,-1.967,0
2.332,-1.235,0
2.333,2.244,0
2.334,9.751,0
2.335,10.85,0
2.336,7.92,0
2.337,-0.502,0
2.338,0.596,0
2.339,-0.319,0
2.34,-3.066,0
2.341,-3.798,0
2.342,-4.531,0
2.343,-6.362,0
2.344,-5.813,0
2.345,-5.263,0
2.346,-5.446,0
2.347,-5.08,0
2.348,1.878,0
2.349,13.047,0
2.35,17.442,0
2.351,18.724,0
2.352,12.681,0
2.353,15.977,0
2.354,2.793,0
2.355,-6.362,0
2.356,-8.01,0
2.357,-12.404,0
2.358,-13.686,0
2.359,-14.785,0
2.36,-15.883,0
2.361,-12.954,0
2.362,-12.038,0
2.363,-9.658,0
2.364,-11.855,0
2.365,-5.629,0
2.366,-4.897,0
2.367,-4.165,0
2.368,-2.333,0
2.369,-0.502,0
2.37,4.625,0
2.371,9.202,0
2.372,4.808,0
2.373,2.061,0
2.374,-1.235,0
2.375,-3.432,0
2.376,-5.446,0
2.377,-1.967,0
2.378,-1.601,0
2.379,0.413,0
2.38,-0.686,0
2.381,3.343,0
2.382,2.061,0
2.383,1.695,0
2.384,3.709,0
2.385,1.146,0
2.386,1.512,0
2.387,2.244,0
2.388,4.075,0
2.389,1.695,0
2.39,4.991,0
2.391,8.104,0
2.392,5.357,0
2.393,1.146,0
2.394,-1.601,0
2.395,0.779,0
2.396,-1.418,0
2.397,-1.052,0
2.398,0.047,0
2.399,5.723,0
2.4,13.23,0
2.401,28.428,0
2.402,30.625,0
2.403,32.64,0
2.404,16.16,0
2.405,9.568,0
2.406,-4.531,0
2.407,-13.686,0
2.408,-15.334,0
2.409,-13.869,0
2.41,-17.897,0
2.411,-16.799,0
2.412,-17.897,0
2.413,-14.968,0
2.414,-14.052,0
2.415,-10.024,0
2.416,-9.292,0
2.417,-7.46,0
2.418,-4.348,0
2.419,-0.502,0
2.42,-0.136,0
2.421,-1.418,0
2.422,1.329,0
2.423,2.427,0
2.424,2.793,0
2.425,-0.502,0
2.426,1.695,0
2.427,2.793,0
2.428,0.23,0
2.429,1.329,0
2.43,3.343,0
2.431,1.512,0
2.432,1.695,0
2.433,-0.869,0
2.434,-2.7,0
2.435,-2.517,0
2.436,-1.235,0
2.437,1.695,0
2.438,3.526,0
2.439,-0.502,0
2.44,0.779,0
2.441,1.146,0
2.442,2.244,0
2.443,-0.319,0
2.444,3.709,0
2.445,-2.883,0
2.446,-0.136,0
2.447,-0.869,0
2.448,5.54,0
2.449,3.343,0
2.45,7.92,0
2.451,14.878,0
2.452,21.287,0
2.453,26.963,0
2.454,37.034,0
2.455,19.273,0
2.456,12.132,0
2.457,1.146,0
2.458,-8.925,0
2.459,-18.081,0
2.46,-16.433,0
2.461,-14.968,0
2.462,-13.686,0
2.463,-14.785,0
2.464,-15.883,0
2.465,-12.954,0
2.466,-12.038,0
2.467,-8.01,0
2.468,-13.32,0
2.469,-11.489,0
2.47,-9.658,0
2.471,-8.01,0
2.472,-2.517,0
2.473,-1.784,0
2.474,-1.235,0
2.475,-3.066,0
2.476,-0.319,0
2.477,2.061,0
2.478,0.779,0
2.479,2.793,0
2.48,-0.686,0
2.481,0.596,0
2.482,-0.502,0
2.483,1.329,0
2.484,2.427,0
2.485,0.962,0
2.486,3.526,0
2.487,3.16,0
2.488,6.456,0
2.489,8.653,0
2.49,7.554,0
2.491,4.991,0
2.492,-0.502,0
2.493,-4.348,0
2.494,-3.798,0
2.495,0.596,0
2.496,-2.15,0
2.497,-0.869,0
2.498,-2.15,0
2.499,-1.052,0
2.5,-2.15,0
2.501,2.793,0
2.502,13.047,0
2.503,29.527,0
2.504,22.935,0
2.505,20.921,0
2.506,19.09,0
2.507,4.075,0
2.508,-1.967,0
2.509,-11.123,0
2.51,-16.066,0
2.511,-14.602,0
2.512,-15.883,0
2.513,-14.785,0
2.514,-13.686,0
2.515,-10.756,0
2.516,-13.503,0
2.517,-11.123,0
2.518,-8.925,0
2.519,-7.094,0
2.52,-3.981,0
2.521,-5.629,0
2.522,-1.052,0
2.523,3.343,0
2.524,-0.502,0
2.525,-1.784,0
2.526,-3.066,0
2.527,-5.813,0
2.528,-3.249,0
2.529,0.047,0
2.53,-0.319,0
2.531,0.779,0
2.532,1.146,0
2.533,2.61,0
2.534,4.441,0
2.535,4.258,0
2.536,4.808,0
2.537,4.991,0
2.538,5.54,0
2.539,5.723,0
2.54,6.272,0
2.541,4.258,0
2.542,1.695,0
2.543,1.878,0
2.544,2.061,0
2.545,-1.967,0
2.546,-3.615,0
2.547,-2.333,0
2.548,-3.615,0
2.549,-3.981,0
2.55,-3.981,0
2.551,-2.883,0
2.552,2.61,0
2.553,14.146,0
2.554,29.161,0
2.555,35.203,0
2.556,44.358,0
2.557,36.119,0
2.558,13.597,0
2.559,-2.517,0
2.56,-11.306,0
2.561,-19.179,0
2.562,-21.56,0
2.563,-19.362,0
2.564,-17.348,0
2.565,-19.179,0
2.566,-20.827,0
2.567,-13.32,0
2.568,-12.038,0
2.569,-8.559,0
2.57,-7.46,0
2.571,-2.517,0
2.572,-7.094,0
2.573,-4.714,0
2.574,-2.517,0
2.575,-0.686,0
2.576,-0.136,0
2.577,2.61,0
2.578,-0.686,0
2.579,6.272,0
2.58,13.23,0
2.581,14.146,0
2.582,4.991,0
2.583,-1.052,0
2.584,0.047,0
2.585,0.962,0
2.586,1.878,0
2.587,2.61,0
2.588,4.808,0
2.589,-1.418,0
2.59,-5.446,0
2.591,-4.714,0
2.592,-4.165,0
2.593,-5.996,0
2.594,-4.348,0
2.595,-1.052,0
2.596,-0.686,0
2.597,1.329,0
2.598,-1.235,0
2.599,-5.996,0
2.6,-1.601,0
2.601,1.146,0
2.602,4.991,0
2.603,12.498,0
2.604,11.399,0
2.605,22.569,0
2.606,26.963,0
2.607,33.738,0
2.608,20.188,0
2.609,14.695,0
2.61,9.751,0
2.611,-3.798,0
2.612,-12.954,0
2.613,-17.897,0
2.614,-19.362,0
2.615,-18.081,0
2.616,-21.56,0
2.617,-20.461,0
2.618,-19.545,0
2.619,-18.63,0
2.62,-16.25,0
2.621,-9.292,0
2.622,-4.714,0
2.623,-3.981,0
2.624,-1.784,0
2.625,-3.615,0
2.626,-0.502,0
2.627,-2.15,0
2.628,-1.784,0
2.629,0.413,0
2.63,0.779,0
2.631,1.878,0
2.632,0.047,0
2.633,0.23,0
2.634,-3.981,0
2.635,-3.432,0
2.636,0.413,0
2.637,0.779,0
2.638,2.977,0
2.639,6.822,0
2.64,3.526,0
2.641,6.639,0
2.642,5.54,0
2.643,7.371,0
2.644,3.343,0
2.645,2.977,0
2.646,-2.15,0
2.647,-2.7,0
2.648,1.695,0
2.649,0.047,0
2.65,3.343,0
2.651,2.977,0
2.652,5.54,0
2.653,6.639,0
2.654,12.315,0
2.655,16.343,0
2.656,27.879,0
2.657,32.823,0
2.658,34.288,0
2.659,19.273,0
2.66,13.23,0
2.661,0.413,0
2.662,-4.531,0
2.663,-8.925,0
2.664,-15.7,0
2.665,-16.799,0
2.666,-15.7,0
2.667,-14.785,0
2.668,-12.038,0
2.669,-12.771,0
2.67,-14.968,0
2.671,-11.672,0
2.672,-9.841,0
2.673,-7.094,0
2.674,-3.798,0
2.675,-2.517,0
2.676,-6.362,0
2.677,-5.996,0
2.678,-7.277,0
2.679,-6.179,0
2.68,-5.08,0
2.681,-2.517,0
2.682,-2.333,0
2.683,-3.066,0
2.684,-2.333,0
2.685,-0.869,0
2.686,-0.319,0
2.687,2.61,0
2.688,3.709,0
2.689,6.272,0
2.69,5.174,0
2.691,0.596,0
2.692,0.047,0
2.693,3.16,0
2.694,-0.686,0
2.695,0.596,0
2.696,0.962,0
2.697,-0.136,0
2.698,-0.502,0
2.699,2.061,0
2.7,-1.967,0
2.701,0.779,0
2.702,3.16,0
2.703,3.343,0
2.704,4.625,0
2.705,10.85,0
2.706,17.259,0
2.707,26.414,0
2.708,25.315,0
2.709,24.217,0
2.71,13.047,0
2.711,23.484,0
2.712,30.259,0
2.713,16.709,0
2.714,-3.432,0
2.715,-11.306,0
2.716,-23.391,0
2.717,-25.588,0
2.718,-19.545,0
2.719,-25.039,0
2.72,-20.095,0
2.721,-21.56,0
2.722,-20.278,0
2.723,-16.799,0
2.724,-13.503,0
2.725,-12.587,0
2.726,-11.672,0
2.727,-5.996,0
2.728,-8.193,0
2.729,-4.897,0
2.73,-0.502,0
2.731,-1.052,0
2.732,-4.348,0
2.733,-5.629,0
2.734,-2.883,0
2.735,-1.052,0
2.736,2.244,0
2.737,1.146,0
2.738,2.977,0
2.739,6.272,0
2.74,9.019,0
2.741,9.385,0
2.742,6.089,0
2.743,3.343,0
2.744,5.906,0
2.745,5.54,0
2.746,3.526,0
2.747,7.737,0
2.748,9.568,0
2.749,11.216,0
2.75,9.935,0
2.751,16.893,0
2.752,21.836,0
2.753,28.245,0
2.754,27.513,0
2.755,28.245,0
2.756,35.203,0
2.757,37.95,0
2.758,43.626,0
2.759,41.429,0
2.76,31.175,0
2.761,14.695,0
2.762,-14.052,0
2.763,-25.771,0
2.764,-36.391,0
2.765,-45.913,0
2.766,-54.702,0
2.767,-57.265,0
2.768,-50.124,0
2.769,-39.138,0
2.77,-37.124,0
2.771,-31.63,0
2.772,-36.574,0
2.773,-56.167,0
2.774,-69.533,0
2.775,-81.618,0
2.776,-96.999,0
2.777,-119.16,0
2.778,-127.94,0
2.779,-120.07,0
2.78,-132.16,0
2.781,-129.96,0
2.782,-127.94,0
2.783,-111.46,0
2.784,-78.322,0
2.785,-6.728,0
2.786,85.74,0
2.787,123.09,0
2.788,156.78,0
2.789,146.53,0
2.79,118.52,0
2.791,110.09,0
2.792,71.641,0
2.793,64.683,0
2.794,45.823,0
2.795,40.147,0
2.796,55.711,0
2.797,89.036,0
2.798,101.85,0
2.799,113.57,0
2.8,124.19,0
2.801,121.08,0
2.802,118.15,0
2.803,115.59,0
2.804,113.21,0
2.805,105.88,0
2.806,81.529,0
2.807,65.416,0
2.808,50.584,0
2.809,58.458,0
2.81,65.599,0
2.811,59.007,0
2.812,44.908,0
2.813,17.442,0
2.814,-2.15,0
2.815,-12.771,0
2.816,-22.292,0
2.817,-31.081,0
2.818,-28.518,0
2.819,-35.659,0
2.82,-46.645,0
2.821,-48.659,0
2.822,-46.828,0
2.823,-48.476,0
2.824,-47.011,0
2.825,-48.293,0
2.826,-49.392,0
2.827,-52.688,0
2.828,-61.843,0
2.829,-65.322,0
2.83,-70.998,0
2.831,-70.083,0
2.832,-67.336,0
2.833,-71.364,0
2.834,-66.054,0
2.835,-58.547,0
2.836,-59.462,0
2.837,-51.04,0
2.838,-43.166,0
2.839,-40.236,0
2.84,-37.49,0
2.841,-29.982,0
2.842,-30.898,0
2.843,-26.32,0
2.844,-23.94,0
2.845,-18.63,0
2.846,-16.799,0
2.847,-13.686,0
2.848,-10.939,0
2.849,-6.362,0
2.85,-5.813,0
2.851,-4.165,0
2.852,-2.883,0
2.853,1.329,0
2.854,2.977,0
2.855,7.554,0
2.856,8.47,0
2.857,11.583,0
2.858,20.005,0
2.859,23.484,0
2.86,29.161,0
2.861,32.09,0
2.862,38.499,0
2.863,26.048,0
2.864,16.893,0
2.865,1.878,0
2.866,-4.165,0
2.867,-5.996,0
2.868,-14.235,0
2.869,-9.841,0
2.87,-8.559,0
2.871,-7.46,0
2.872,-6.362,0
2.873,-5.446,0
2.874,-2.7,0
2.875,-5.08,0
2.876,-2.883,0
2.877,-1.052,0
2.878,0.779,0
2.879,2.427,0
2.88,3.709,0
2.881,5.906,0
2.882,4.808,0
2.883,6.639,0
2.884,6.272,0
2.885,9.019,0
2.886,9.385,0
2.887,7.554,0
2.888,7.737,0
2.889,6.456,0
2.89,9.385,0
2.891,9.019,0
2.892,4.991,0
2.893,3.709,0
2.894,7.92,0
2.895,7.371,0
2.896,6.089,0
2.897,6.456,0
2.898,4.441,0
2.899,6.272,0
2.9,3.709,0
2.901,4.441,0
2.902,5.723,0
2.903,3.892,0
2.904,2.427,0
2.905,3.892,0
2.906,1.695,0
2.907,1.878,0
2.908,3.709,0
2.909,4.991,0
2.91,8.47,0
2.911,15.977,0
2.912,23.851,0
2.913,28.794,0
2.914,33.372,0
2.915,29.344,0
2.916,17.808,0
2.917,-7.094,0
2.918,-10.573,0
2.919,-7.46,0
2.92,-22.292,0
2.921,-19.729,0
2.922,-12.587,0
2.923,-14.785,0
2.924,-12.771,0
2.925,-18.264,0
2.926,-16.616,0
2.927,-15.151,0
2.928,-13.869,0
2.929,-10.39,0
2.93,-9.292,0
2.931,-8.376,0
2.932,-7.46,0
2.933,-5.08,0
2.934,-2.883,0
2.935,-2.333,0
2.936,2.061,0
2.937,1.512,0
2.938,2.793,0
2.939,7.005,0
2.94,9.751,0
2.941,3.16,0
2.942,0.413,0
2.943,-0.319,0
2.944,-2.517,0
2.945,-0.686,0
2.946,-0.136,0
2.947,1.512,0
2.948,2.793,0
2.949,4.991,0
2.95,2.244,0
2.951,2.61,0
2.952,3.709,0
2.953,3.526,0
2.954,4.808,0
2.955,2.427,0
2.956,0.413,0
2.957,-0.869,0
2.958,-3.249,0
2.959,-0.869,0
2.96,3.709,0
2.961,9.935,0
2.962,17.442,0
2.963,22.386,0
2.964,32.64,0
2.965,25.865,0
2.966,7.371,0
2.967,-5.996,0
2.968,-8.376,0
2.969,-14.968,0
2.97,-12.954,0
2.971,-11.123,0
2.972,-9.475,0
2.973,-10.939,0
2.974,-12.221,0
2.975,-8.742,0
2.976,-7.644,0
2.977,-10.573,0
2.978,-7.827,0
2.979,-7.094,0
2.98,-7.827,0
2.981,-7.277,0
2.982,-7.827,0
2.983,-10.573,0
2.984,-5.08,0
2.985,-1.235,0
2.986,-0.686,0
2.987,-0.136,0
2.988,0.413,0
2.989,0.779,0
2.99,3.892,0
2.991,2.793,0
2.992,0.23,0
2.993,1.329,0
2.994,2.061,0
2.995,1.878,0
2.996,4.258,0
2.997,7.005,0
2.998,2.793,0
2.999,2.244,0
3,-4.348,0
3.001,2.061,0
3.002,2.793,0
3.003,-1.052,0
3.004,0.779,0
3.005,2.61,0
3.006,3.16,0
3.007,0.779,0
3.008,3.892,0
3.009,1.878,0
3.01,0.779,0
3.011,6.456,0
3.012,17.259,0
3.013,24.766,0
3.014,34.288,0
3.015,20.738,0
3.016,7.92,0
3.017,-3.615,0
3.018,-8.01,0
3.019,-9.292,0
3.02,-5.813,0
3.021,-9.108,0
3.022,-8.193,0
3.023,-7.277,0
3.024,-3.249,0
3.025,-5.446,0
3.026,-7.277,0
3.027,-5.446,0
3.028,-2.7,0
3.029,-3.981,0
3.03,-4.348,0
3.031,-4.714,0
3.032,-3.615,0
3.033,-1.784,0
3.034,-1.052,0
3.035,2.061,0
3.036,4.808,0
3.037,8.287,0
3.038,6.089,0
3.039,1.512,0
3.04,0.962,0
3.041,-1.784,0
3.042,-1.418,0
3.043,-1.784,0
3.044,-2.883,0
3.045,2.061,0
3.046,0.23,0
3.047,2.061,0
3.048,-1.784,0
3.049,-5.08,0
3.05,-7.277,0
3.051,-4.531,0
3.052,-2.7,0
3.053,-0.136,0
3.054,-3.432,0
3.055,-2.15,0
3.056,-0.136,0
3.057,2.427,0
3.058,1.329,0
3.059,0.596,0
3.06,0.413,0
3.061,-3.249,0
3.062,4.258,0
3.063,9.935,0
3.064,25.132,0
3.065,31.724,0
3.066,29.71,0
3.067,9.568,0
3.068,1.695,0
3.069,-10.39,0
3.07,-12.587,0
3.071,-6.545,0
3.072,-1.052,0
3.073,-5.996,0
3.074,-4.531,0
3.075,-16.799,0
3.076,-15.151,0
3.077,-19.545,0
3.078,-18.264,0
3.079,-17.165,0
3.08,-18.264,0
3.081,-13.32,0
3.082,-10.573,0
3.083,-9.841,0
3.084,-2.883,0
3.085,-3.798,0
3.086,0.23,0
3.087,-0.502,0
3.088,2.793,0
3.089,-1.601,0
3.09,0.047,0
3.091,1.329,0
3.092,7.371,0
3.093,4.991,0
3.094,1.146,0
3.095,-2.15,0
3.096,-1.601,0
3.097,0.047,0
3.098,3.343,0
3.099,4.625,0
3.1,2.61,0
3.101,0.779,0
3.102,1.878,0
3.103,2.61,0
3.104,2.793,0
3.105,2.61,0
3.106,5.723,0
3.107,6.822,0
3.108,1.878,0
3.109,1.329,0
3.11,-0.502,0
3.111,1.146,0
3.112,1.695,0
3.113,9.202,0
3.114,12.498,0
3.115,27.696,0
3.116,29.893,0
3.117,31.907,0
3.118,11.766,0
3.119,-1.601,0
3.12,-3.981,0
3.121,-10.573,0
3.122,-8.559,0
3.123,-14.052,0
3.124,-12.404,0
3.125,-13.869,0
3.126,-12.587,0
3.127,-13.686,0
3.128,-10.39,0
3.129,-11.306,0
3.13,-10.39,0
3.131,-8.01,0
3.132,-8.742,0
3.133,-8.193,0
3.134,-5.08,0
3.135,-3.432,0
3.136,-1.052,0
3.137,-0.686,0
3.138,-1.052,0
3.139,-2.15,0
3.14,-0.319,0
3.141,-0.136,0
3.142,1.695,0
3.143,2.427,0
3.144,4.991,0
3.145,3.892,0
3.146,4.625,0
3.147,4.808,0
3.148,2.427,0
3.149,1.695,0
3.15,1.878,0
3.151,0.596,0
3.152,2.793,0
3.153,2.61,0
3.154,-1.418,0
3.155,2.427,0
3.156,-0.869,0
3.157,1.329,0
3.158,-1.418,0
3.159,-0.319,0
3.16,-4.348,0
3.161,1.146,0
3.162,1.878,0
3.163,-0.319,0
3.164,9.935,0
3.165,8.47,0
3.166,15.245,0
3.167,21.287,0
3.168,26.963,0
3.169,29.893,0
3.17,27.146,0
3.171,14.695,0
3.172,-1.784,0
3.173,-8.376,0
3.174,-14.418,0
3.175,-19.912,0
3.176,-21.56,0
3.177,-20.095,0
3.178,-18.813,0
3.179,-17.714,0
3.18,-16.616,0
3.181,-15.7,0
3.182,-12.954,0
3.183,-15.334,0
3.184,-11.489,0
3.185,-6.911,0
3.186,-2.517,0
3.187,-1.967,0
3.188,1.329,0
3.189,4.441,0
3.19,0.596,0
3.191,-0.686,0
3.192,-1.052,0
3.193,-3.066,0
3.194,-2.7,0
3.195,1.329,0
3.196,-1.052,0
3.197,0.23,0
3.198,2.977,0
3.199,1.146,0
3.2,5.906,0
3.201,5.357,0
3.202,3.709,0
3.203,2.427,0
3.204,0.23,0
3.205,2.244,0
3.206,1.878,0
3.207,5.174,0
3.208,5.54,0
3.209,6.639,0
3.21,1.146,0
3.211,1.878,0
3.212,1.329,0
3.213,-0.319,0
3.214,0.23,0
3.215,5.357,0
3.216,8.653,0
3.217,18.174,0
3.218,27.696,0
3.219,38.865,0
3.22,31.358,0
3.221,19.09,0
3.222,7.554,0
3.223,-5.996,0
3.224,-11.489,0
3.225,-16.433,0
3.226,-17.897,0
3.227,-21.926,0
3.228,-18.447,0
3.229,-21.743,0
3.23,-18.813,0
3.231,-19.729,0
3.232,-15.7,0
3.233,-13.503,0
3.234,-8.925,0
3.235,-5.813,0
3.236,-0.686,0
3.237,-2.517,0
3.238,0.596,0
3.239,4.441,0
3.24,4.075,0
3.241,4.441,0
3.242,1.695,0
3.243,2.061,0
3.244,6.089,0
3.245,1.512,0
3.246,-0.319,0
3.247,0.23,0
3.248,0.596,0
3.249,-1.601,0
3.25,2.977,0
3.251,-0.136,0
3.252,6.089,0
3.253,0.413,0
3.254,1.146,0
3.255,1.695,0
3.256,3.526,0
3.257,4.075,0
3.258,3.709,0
3.259,2.427,0
3.26,4.441,0
3.261,-1.235,0
3.262,-6.911,0
3.263,-4.714,0
3.264,-1.784,0
3.265,0.047,0
3.266,9.568,0
3.267,10.85,0
3.268,16.893,0
3.269,29.344,0
3.27,37.583,0
3.271,21.104,0
3.272,5.723,0
3.273,-0.319,0
3.274,-13.137,0
3.275,-18.081,0
3.276,-16.616,0
3.277,-15.334,0
3.278,-14.235,0
3.279,-17.531,0
3.28,-14.602,0
3.281,-13.686,0
3.282,-14.418,0
3.283,-13.686,0
3.284,-9.108,0
3.285,-8.559,0
3.286,-2.333,0
3.287,-3.066,0
3.288,-0.869,0
3.289,2.427,0
3.29,1.878,0
3.291,2.427,0
3.292,2.793,0
3.293,-0.319,0
3.294,0.779,0
3.295,-0.319,0
3.296,2.244,0
3.297,2.427,0
3.298,-0.136,0
3.299,0.962,0
3.3,-1.052,0
3.301,0.23,0
3.302,-0.502,0
3.303,-1.052,0
3.304,-1.601,0
3.305,0.596,0
3.306,4.258,0
3.307,5.54,0
3.308,2.427,0
3.309,2.793,0
3.31,3.16,0
3.311,6.456,0
3.312,3.709,0
3.313,2.61,0
3.314,1.512,0
3.315,-0.319,0
3.316,4.258,0
3.317,10.484,0
3.318,12.864,0
3.319,2.793,0
3.32,4.075,0
3.321,2.977,0
3.322,15.428,0
3.323,23.667,0
3.324,22.203,0
3.325,12.681,0
3.326,1.512,0
3.327,-5.996,0
3.328,-10.024,0
3.329,-16.066,0
3.33,-17.165,0
3.331,-20.095,0
3.332,-15.517,0
3.333,-16.25,0
3.334,-15.517,0
3.335,-12.221,0
3.336,-6.545,0
3.337,-5.813,0
3.338,-6.362,0
3.339,-0.686,0
3.34,-4.531,0
3.341,-6.362,0
3.342,-4.531,0
3.343,0.596,0
3.344,1.146,0
3.345,4.258,0
3.346,8.104,0
3.347,7.737,0
3.348,8.104,0
3.349,1.878,0
3.35,2.793,0
3.351,2.061,0
3.352,5.906,0
3.353,4.075,0
3.354,9.751,0
3.355,2.793,0
3.356,5.54,0
3.357,4.808,0
3.358,-0.502,0
3.359,-2.333,0
3.36,-4.165,0
3.361,-2.517,0
3.362,-4.897,0
3.363,-0.686,0
3.364,-4.531,0
3.365,-2.15,0
3.366,0.413,0
3.367,-3.798,0
3.368,4.625,0
3.369,10.667,0
3.37,23.118,0
3.371,34.654,0
3.372,21.104,0
3.373,11.949,0
3.374,3.709,0
3.375,-3.798,0
3.376,-7.827,0
3.377,-13.869,0
3.378,-12.771,0
3.379,-13.686,0
3.38,-12.771,0
3.381,-12.038,0
3.382,-9.841,0
3.383,-9.292,0
3.384,-11.123,0
3.385,-4.897,0
3.386,-2.517,0
3.387,-0.319,0
3.388,-0.869,0
3.389,-3.981,0
3.39,-3.432,0
3.391,-3.066,0
3.392,-0.869,0
3.393,0.23,0
3.394,-0.136,0
3.395,-1.235,0
3.396,-1.052,0
3.397,-1.784,0
3.398,-1.052,0
3.399,1.146,0
3.4,-1.967,0
3.401,0.047,0
3.402,0.413,0
3.403,0.779,0
3.404,4.808,0
3.405,2.061,0
3.406,0.779,0
3.407,2.977,0
3.408,1.878,0
3.409,-1.601,0
3.41,1.512,0
3.411,-3.066,0
3.412,-1.235,0
3.413,-0.686,0
3.414,1.695,0
3.415,2.061,0
3.416,-0.686,0
3.417,-1.052,0
3.418,-0.686,0
3.419,4.808,0
3.42,14.878,0
3.421,27.146,0
3.422,32.09,0
3.423,33.555,0
3.424,13.047,0
3.425,10.118,0
3.426,2.244,0
3.427,-9.841,0
3.428,-16.433,0
3.429,-18.447,0
3.43,-20.278,0
3.431,-18.63,0
3.432,-17.165,0
3.433,-15.883,0
3.434,-12.404,0
3.435,-6.728,0
3.436,-1.784,0
3.437,2.793,0
3.438,3.526,0
3.439,10.484,0
3.44,16.893,0
3.441,17.625,0
3.442,24.583,0
3.443,25.499,0
3.444,24.766,0
3.445,19.456,0
3.446,20.005,0
3.447,14.329,0
3.448,16.526,0
3.449,7.554,0
3.45,-3.615,0
3.451,-14.052,0
3.452,-20.827,0
3.453,-31.997,0
3.454,-39.504,0
3.455,-43.532,0
3.456,-37.49,0
3.457,-25.039,0
3.458,-20.095,0
3.459,-24.489,0
3.46,-23.208,0
3.461,-41.701,0
3.462,-60.378,0
3.463,-82.351,0
3.464,-97.182,0
3.465,-121.35,0
3.466,-137.47,0
3.467,-128.68,0
3.468,-143.14,0
3.469,-140.58,0
3.47,-113.84,0
3.471,-103.22,0
3.472,-73.928,0
3.473,-14.785,0
3.474,95.445,0
3.475,140.49,0
3.476,154.04,0
3.477,166.49,0
3.478,132.8,0
3.479,102.04,0
3.48,92.698,0
3.481,67.43,0
3.482,59.739,0
3.483,52.781,0
3.484,59.007,0
3.485,87.754,0
3.486,103.32,0
3.487,117.6,0
3.488,121.81,0
3.489,125.66,0
3.49,122.18,0
3.491,112.66,0
3.492,109.73,0
3.493,101.85,0
3.494,79.881,0
3.495,53.147,0
3.496,35.386,0
3.497,25.865,0
3.498,22.935,0
3.499,25.499,0
3.5,27.879,0
3.501,16.893,0
3.502,10.85,0
3.503,1.695,0
3.504,-9.841,0
3.505,-8.376,0
3.506,-12.404,0
3.507,-23.574,0
3.508,-34.011,0
3.509,-35.292,0
3.51,-38.771,0
3.511,-39.87,0
3.512,-42.8,0
3.513,-49.208,0
3.514,-49.941,0
3.515,-56.899,0
3.516,-61.477,0
3.517,-65.505,0
3.518,-67.702,0
3.519,-68.435,0
3.52,-74.66,0
3.521,-62.209,0
3.522,-56.716,0
3.523,-41.701,0
3.524,-27.602,0
3.525,-18.447,0
3.526,-26.687,0
3.527,-34.194,0
3.528,-43.715,0
3.529,-47.194,0
3.53,-43.898,0
3.531,-42.983,0
3.532,-42.067,0
3.533,-38.039,0
3.534,-32.729,0
3.535,-22.475,0
3.536,-21.01,0
3.537,-14.235,0
3.538,-8.193,0
3.539,-16.066,0
3.54,-13.137,0
3.541,-8.559,0
3.542,-7.827,0
3.543,0.596,0
3.544,1.695,0
3.545,2.61,0
3.546,1.695,0
3.547,2.427,0
3.548,7.737,0
3.549,8.287,0
3.55,8.836,0
3.551,4.991,0
3.552,8.287,0
3.553,10.484,0
3.554,14.329,0
3.555,13.047,0
3.556,12.681,0
3.557,9.935,0
3.558,10.301,0
3.559,11.399,0
3.56,9.385,0
3.561,6.822,0
3.562,12.315,0
3.563,22.386,0
3.564,18.357,0
3.565,12.315,0
3.566,9.019,0
3.567,6.089,0
3.568,7.005,0
3.569,7.737,0
3.57,4.808,0
3.571,5.54,0
3.572,15.794,0
3.573,17.259,0
3.574,29.527,0
3.575,34.471,0
3.576,11.949,0
3.577,15.062,0
3.578,0.23,0
3.579,-7.644,0
3.58,-10.024,0
3.581,-12.221,0
3.582,-18.264,0
3.583,-16.433,0
3.584,-11.489,0
3.585,-7.094,0
3.586,-3.066,0
3.587,-4.165,0
3.588,-5.263,0
3.589,-2.333,0
3.59,0.413,0
3.591,1.146,0
3.592,-1.052,0
3.593,2.244,0
3.594,-0.869,0
3.595,2.977,0
3.596,2.61,0
3.597,4.808,0
3.598,5.174,0
3.599,2.61,0
3.6,-0.686,0
3.601,-0.319,0
3.602,0.779,0
3.603,-0.319,0
3.604,2.427,0
3.605,4.991,0
3.606,7.554,0
3.607,4.808,0
3.608,2.244,0
3.609,1.146,0
3.61,1.878,0
3.611,0.047,0
3.612,1.329,0
3.613,-1.235,0
3.614,2.793,0
3.615,3.16,0
3.616,0.047,0
3.617,2.061,0
3.618,3.16,0
3.619,1.329,0
3.62,4.075,0
3.621,1.146,0
3.622,3.709,0
3.623,9.202,0
3.624,13.047,0
3.625,19.273,0
3.626,24.949,0
3.627,35.02,0
3.628,30.992,0
3.629,14.878,0
3.63,-0.502,0
3.631,-6.545,0
3.632,-15.7,0
3.633,-20.644,0
3.634,-19.179,0
3.635,-20.461,0
3.636,-19.362,0
3.637,-16.066,0
3.638,-11.123,0
3.639,-10.207,0
3.64,-9.475,0
3.641,-4.165,0
3.642,-8.742,0
3.643,-8.193,0
3.644,-6.545,0
3.645,-4.165,0
3.646,-6.362,0
3.647,-1.784,0
3.648,1.329,0
3.649,0.779,0
3.65,-0.502,0
3.651,0.779,0
3.652,3.526,0
3.653,-2.15,0
3.654,-2.883,0
3.655,-0.686,0
3.656,-0.136,0
3.657,0.413,0
3.658,-1.235,0
3.659,0.047,0
3.66,2.244,0
3.661,-0.502,0
3.662,-0.136,0
3.663,-1.235,0
3.664,0.779,0
3.665,0.596,0
3.666,1.329,0
3.667,-1.235,0
3.668,2.793,0
3.669,7.371,0
3.67,5.54,0
3.671,3.892,0
3.672,4.075,0
3.673,2.793,0
3.674,7.005,0
3.675,12.132,0
3.676,22.386,0
3.677,35.936,0
3.678,26.78,0
3.679,15.245,0
3.68,1.695,0
3.681,-3.798,0
3.682,-15.334,0
3.683,-16.799,0
3.684,-12.771,0
3.685,-13.869,0
3.686,-10.573,0
3.687,-9.658,0
3.688,-8.742,0
3.689,-8.01,0
3.69,-10.207,0
3.691,-9.658,0
3.692,-6.545,0
3.693,-9.292,0
3.694,-8.01,0
3.695,-2.883,0
3.696,-2.333,0
3.697,2.061,0
3.698,1.512,0
3.699,1.878,0
3.7,0.596,0
3.701,0.962,0
3.702,3.526,0
3.703,3.16,0
3.704,1.146,0
3.705,1.878,0
3.706,-0.502,0
3.707,0.962,0
3.708,1.695,0
3.709,2.427,0
3.71,5.906,0
3.711,4.625,0
3.712,6.822,0
3.713,4.075,0
3.714,1.512,0
3.715,-2.517,0
3.716,-2.15,0
3.717,0.047,0
3.718,2.061,0
3.719,7.005,0
3.72,3.709,0
3.721,4.258,0
3.722,3.709,0
3.723,3.343,0
3.724,0.962,0
3.725,7.005,0
3.726,12.681,0
3.727,19.639,0
3.728,22.386,0
3.729,28.062,0
3.73,27.33,0
3.731,33.555,0
3.732,21.104,0
3.733,4.625,0
3.734,-6.362,0
3.735,-16.433,0
3.736,-25.588,0
3.737,-20.644,0
3.738,-22.109,0
3.739,-23.391,0
3.74,-19.912,0
3.741,-18.813,0
3.742,-17.897,0
3.743,-13.32,0
3.744,-12.587,0
3.745,-10.39,0
3.746,-8.559,0
3.747,-8.01,0
3.748,-10.756,0
3.749,-7.46,0
3.75,-8.742,0
3.751,-5.996,0
3.752,-1.052,0
3.753,0.779,0
3.754,0.23,0
3.755,7.554,0
3.756,4.625,0
3.757,5.54,0
3.758,1.512,0
3.759,0.779,0
3.76,1.329,0
3.761,3.16,0
3.762,-0.686,0
3.763,-0.319,0
3.764,0.047,0
3.765,0.413,0
3.766,2.244,0
3.767,4.075,0
3.768,5.54,0
3.769,4.808,0
3.77,6.089,0
3.771,3.892,0
3.772,4.075,0
3.773,1.146,0
3.774,-1.052,0
3.775,-3.615,0
3.776,1.878,0
3.777,13.414,0
3.778,21.653,0
3.779,32.09,0
3.78,36.119,0
3.781,20.005,0
3.782,4.625,0
3.783,-5.446,0
3.784,-10.939,0
3.785,-9.292,0
3.786,-16.799,0
3.787,-15.517,0
3.788,-14.418,0
3.789,-8.742,0
3.79,-7.827,0
3.791,-3.249,0
3.792,-8.925,0
3.793,-9.658,0
3.794,-11.489,0
3.795,-12.038,0
3.796,-8.193,0
3.797,-6.911,0
3.798,-0.869,0
3.799,1.512,0
3.8,-2.333,0
3.801,2.244,0
3.802,-2.15,0
3.803,-2.7,0
3.804,-1.418,0
3.805,-1.052,0
3.806,0.962,0
3.807,2.793,0
3.808,8.287,0
3.809,19.822,0
3.81,14.878,0
3.811,4.441,0
3.812,3.16,0
3.813,2.061,0
3.814,0.962,0
3.815,-1.967,0
3.816,-4.714,0
3.817,-3.981,0
3.818,-1.784,0
3.819,-1.235,0
3.82,-3.066,0
3.821,-4.714,0
3.822,-0.136,0
3.823,-0.686,0
3.824,3.16,0
3.825,1.146,0
3.826,4.441,0
3.827,11.399,0
3.828,10.484,0
3.829,24.4,0
3.83,38.499,0
3.831,22.02,0
3.832,6.639,0
3.833,-3.432,0
3.834,-8.925,0
3.835,-13.869,0
3.836,-12.404,0
3.837,-11.123,0
3.838,-12.221,0
3.839,-11.123,0
3.84,-14.052,0
3.841,-13.137,0
3.842,-9.108,0
3.843,-6.911,0
3.844,-6.362,0
3.845,-1.967,0
3.846,-3.615,0
3.847,-4.897,0
3.848,-8.01,0
3.849,-7.644,0
3.85,-9.475,0
3.851,-5.446,0
3.852,-2.15,0
3.853,-2.517,0
3.854,-1.418,0
3.855,2.793,0
3.856,4.441,0
3.857,7.737,0
3.858,7.371,0
3.859,5.357,0
3.86,5.723,0
3.861,0.23,0
3.862,-3.615,0
3.863,-3.066,0
3.864,1.329,0
3.865,-1.418,0
3.866,-1.052,0
3.867,-0.686,0
3.868,1.329,0
3.869,3.892,0
3.87,5.723,0
3.871,5.54,0
3.872,5.723,0
3.873,1.695,0
3.874,3.343,0
3.875,-1.235,0
3.876,-0.319,0
3.877,0.23,0
3.878,8.653,0
3.879,12.132,0
3.88,17.808,0
3.881,26.963,0
3.882,30.442,0
3.883,24.766,0
3.884,11.583,0
3.885,-1.235,0
3.886,-12.771,0
3.887,-14.235,0
3.888,-18.264,0
3.889,-14.785,0
3.89,-18.081,0
3.891,-17.165,0
3.892,-16.25,0
3.893,-13.869,0
3.894,-8.559,0
3.895,-6.728,0
3.896,-7.277,0
3.897,-8.925,0
3.898,-8.559,0
3.899,-8.193,0
3.9,-12.038,0
3.901,-8.742,0
3.902,-3.615,0
3.903,-0.319,0
3.904,4.075,0
3.905,2.427,0
3.906,3.709,0
3.907,4.991,0
3.908,2.977,0
3.909,4.808,0
3.91,2.244,0
3.911,2.061,0
3.912,5.723,0
3.913,4.441,0
3.914,1.329,0
3.915,1.695,0
3.916,2.061,0
3.917,1.695,0
3.918,4.991,0
3.919,2.793,0
3.92,2.427,0
3.921,3.526,0
3.922,5.357,0
3.923,3.892,0
3.924,3.16,0
3.925,0.23,0
3.926,1.329,0
3.927,1.146,0
3.928,1.512,0
3.929,6.089,0
3.93,12.315,0
3.931,23.118,0
3.932,33.555,0
3.933,26.78,0
3.934,15.611,0
3.935,-0.869,0
3.936,-11.855,0
3.937,-13.869,0
3.938,-12.038,0
3.939,-13.686,0
3.94,-12.221,0
3.941,-13.503,0
3.942,-12.404,0
3.943,-9.108,0
3.944,-12.038,0
3.945,-11.123,0
3.946,-7.094,0
3.947,-6.362,0
3.948,-9.658,0
3.949,-9.108,0
3.95,-10.756,0
3.951,-6.179,0
3.952,-4.348,0
3.953,-2.7,0
3.954,-3.981,0
3.955,1.146,0
3.956,4.441,0
3.957,6.272,0
3.958,2.427,0
3.959,0.047,0
3.96,-1.235,0
3.961,-0.869,0
3.962,0.23,0
3.963,0.596,0
3.964,1.329,0
3.965,1.146,0
3.966,1.329,0
3.967,3.892,0
3.968,2.061,0
3.969,2.793,0
3.97,2.61,0
3.971,3.343,0
3.972,3.526,0
3.973,2.427,0
3.974,0.23,0
3.975,-1.601,0
3.976,1.878,0
3.977,2.244,0
3.978,5.54,0
3.979,0.962,0
3.98,10.484,0
3.981,14.512,0
3.982,22.935,0
3.983,26.231,0
3.984,31.175,0
3.985,17.259,0
3.986,3.16,0
3.987,-5.996,0
3.988,-10.939,0
3.989,-15.334,0
3.99,-11.306,0
3.991,-14.785,0
3.992,-18.081,0
3.993,-17.165,0
3.994,-12.587,0
3.995,-13.32,0
3.996,-11.123,0
3.997,-6.545,0
3.998,-7.094,0
3.999,-6.545,0
4,-6.911,0
4.001,-4.714,0
4.002,-4.348,0
4.003,0.596,0
4.004,-2.7,0
4.005,-0.869,0
4.006,5.357,0
4.007,2.977,0
4.008,2.244,0
4.009,1.695,0
4.01,3.526,0
4.011,1.878,0
4.012,-0.502,0
4.013,0.779,0
4.014,-3.066,0
4.015,0.23,0
4.016,-1.967,0
4.017,-3.066,0
4.018,-2.7,0
4.019,1.329,0
4.02,3.709,0
4.021,4.075,0
4.022,2.977,0
4.023,-2.7,0
4.024,1.329,0
4.025,5.174,0
4.026,0.596,0
4.027,-3.798,0
4.028,-1.052,0
4.029,0.413,0
4.03,0.047,0
4.031,7.005,0
4.032,13.963,0
4.033,24.217,0
4.034,28.245,0
4.035,29.344,0
4.036,16.893,0
4.037,5.357,0
4.038,-5.08,0
4.039,-11.855,0
4.04,-15.334,0
4.041,-18.63,0
4.042,-15.7,0
4.043,-14.785,0
4.044,-14.052,0
4.045,-14.785,0
4.046,-10.207,0
4.047,-7.094,0
4.048,-10.939,0
4.049,-7.644,0
4.05,-7.277,0
4.051,-5.263,0
4.052,-3.432,0
4.053,2.061,0
4.054,4.258,0
4.055,7.554,0
4.056,13.23,0
4.057,9.385,0
4.058,4.808,0
4.059,-0.869,0
4.06,1.329,0
4.061,-0.502,0
4.062,-1.052,0
4.063,-0.502,0
4.064,0.779,0
4.065,-1.418,0
4.066,0.596,0
4.067,-1.235,0
4.068,1.329,0
4.069,-0.136,0
4.07,-0.319,0
4.071,2.061,0
4.072,3.526,0
4.073,7.188,0
4.074,8.47,0
4.075,6.272,0
4.076,1.695,0
4.077,-0.136,0
4.078,-5.263,0
4.079,-3.432,0
4.08,-4.714,0
4.081,-5.263,0
4.082,3.16,0
4.083,9.202,0
4.084,26.231,0
4.085,28.611,0
4.086,17.625,0
4.087,-0.502,0
4.088,-7.644,0
4.089,-5.446,0
4.09,-3.432,0
4.091,-8.925,0
4.092,-10.573,0
4.093,-12.038,0
4.094,-10.756,0
4.095,-9.658,0
4.096,-12.954,0
4.097,-5.996,0
4.098,-5.08,0
4.099,-7.46,0
4.1,-9.658,0
4.101,-6.362,0
4.102,-5.813,0
4.103,-1.967,0
4.104,-2.333,0
4.105,-0.136,0
4.106,1.878,0
4.107,2.977,0
4.108,2.61,0
4.109,0.596,0
4.11,-0.136,0
4.111,3.892,0
4.112,4.441,0
4.113,1.146,0
4.114,-1.052,0
4.115,3.526,0
4.116,0.413,0
4.117,0.962,0
4.118,-1.418,0
4.119,2.793,0
4.12,-1.052,0
4.121,-0.686,0
4.122,3.526,0
4.123,1.878,0
4.124,-1.418,0
4.125,1.695,0
4.126,0.596,0
4.127,0.962,0
4.128,1.329,0
4.129,0.596,0
4.13,-1.235,0
4.131,-1.052,0
4.132,-1.784,0
4.133,1.695,0
4.134,9.202,0
4.135,8.104,0
4.136,23.301,0
4.137,34.288,0
4.138,24.217,0
4.139,11.399,0
4.14,-0.136,0
4.141,-10.573,0
4.142,-11.855,0
4.143,-15.334,0
4.144,-14.235,0
4.145,-15.151,0
4.146,-16.066,0
4.147,-16.799,0
4.148,-14.602,0
4.149,-14.052,0
4.15,-8.376,0
4.151,-7.644,0
4.152,-1.418,0
4.153,2.61,0
4.154,4.808,0
4.155,13.78,0
4.156,12.681,0
4.157,18.357,0
4.158,21.287,0
4.159,24.034,0
4.16,23.301,0
4.161,25.499,0
4.162,17.991,0
4.163,18.907,0
4.164,14.329,0
4.165,15.062,0
4.166,9.751,0
4.167,0.779,0
4.168,-12.771,0
4.169,-21.926,0
4.17,-26.87,0
4.171,-31.264,0
4.172,-35.292,0
4.173,-31.813,0
4.174,-16.982,0
4.175,-10.939,0
4.176,-12.771,0
4.177,-34.377,0
4.178,-61.11,0
4.179,-78.872,0
4.18,-101.39,0
4.181,-110.18,0
4.182,-122.63,0
4.183,-130.51,0
4.184,-142.59,0
4.185,-149.18,0
4.186,-123,0
4.187,-105.24,0
4.188,-102.13,0
4.189,-87.294,0
4.19,-47.011,0
4.191,39.598,0
4.192,101.85,0
4.193,135.54,0
4.194,145.8,0
4.195,117.78,0
4.196,109.36,0
4.197,86.29,0
4.198,79.332,0
4.199,85.557,0
4.2,91.233,0
4.201,106.8,0
4.202,130.6,0
4.203,152.21,0
4.204,148.36,0
4.205,158.98,0
4.206,142.87,0
4.207,134.08,0
4.208,126.21,0
4.209,104.23,0
4.21,77.5,0
4.211,52.598,0
4.212,36.485,0
4.213,33.555,0
4.214,30.992,0
4.215,28.611,0
4.216,17.625,0
4.217,15.611,0
4.218,2.793,0
4.219,-8.742,0
4.22,-16.25,0
4.221,-17.531,0
4.222,-14.052,0
4.223,-24.306,0
4.224,-33.828,0
4.225,-39.87,0
4.226,-43.166,0
4.227,-42.25,0
4.228,-48.659,0
4.229,-51.04,0
4.23,-56.35,0
4.231,-59.646,0
4.232,-64.04,0
4.233,-72.097,0
4.234,-75.942,0
4.235,-68.435,0
4.236,-60.561,0
4.237,-53.603,0
4.238,-39.687,0
4.239,-25.588,0
4.24,-45.729,0
4.241,-48.293,0
4.242,-55.434,0
4.243,-57.631,0
4.244,-55.617,0
4.245,-53.786,0
4.246,-48.842,0
4.247,-41.335,0
4.248,-40.053,0
4.249,-31.63,0
4.25,-28.334,0
4.251,-25.405,0
4.252,-16.982,0
4.253,-15.883,0
4.254,-10.939,0
4.255,-8.193,0
4.256,-0.686,0
4.257,-1.601,0
4.258,1.146,0
4.259,1.878,0
4.26,4.075,0
4.261,2.244,0
4.262,6.639,0
4.263,8.287,0
4.264,7.005,0
4.265,3.892,0
4.266,4.991,0
4.267,7.554,0
4.268,4.991,0
4.269,9.568,0
4.27,9.019,0
4.271,10.85,0
4.272,10.301,0
4.273,13.597,0
4.274,12.315,0
4.275,13.414,0
4.276,12.315,0
4.277,14.878,0
4.278,11.583,0
4.279,7.371,0
4.28,9.019,0
4.281,9.385,0
4.282,8.104,0
4.283,6.089,0
4.284,5.54,0
4.285,8.104,0
4.286,13.597,0
4.287,25.132,0
4.288,33.372,0
4.289,37.767,0
4.29,25.499,0
4.291,13.963,0
4.292,3.526,0
4.293,-5.996,0
4.294,-7.094,0
4.295,-10.39,0
4.296,-7.46,0
4.297,-8.376,0
4.298,-7.644,0
4.299,-2.333,0
4.3,3.892,0
4.301,9.568,0
4.302,5.723,0
4.303,-1.784,0
4.304,-4.714,0
4.305,-3.798,0
4.306,-4.531,0
4.307,-2.333,0
4.308,-4.165,0
4.309,-3.615,0
4.31,1.512,0
4.311,2.061,0
4.312,0.23,0
4.313,0.779,0
4.314,-0.502,0
4.315,-3.615,0
4.316,-7.46,0
4.317,-7.094,0
4.318,-1.967,0
4.319,5.54,0
4.32,-1.418,0
4.321,3.16,0
4.322,3.892,0
4.323,6.089,0
4.324,6.639,0
4.325,3.526,0
4.326,0.779,0
4.327,-1.601,0
4.328,-2.883,0
4.329,0.962,0
4.33,2.244,0
4.331,1.878,0
4.332,4.625,0
4.333,3.526,0
4.334,-0.502,0
4.335,-3.981,0
4.336,-2.7,0
4.337,4.258,0
4.338,15.428,0
4.339,37.95,0
4.34,34.837,0
4.341,31.907,0
4.342,13.23,0
4.343,1.146,0
4.344,-9.841,0
4.345,-11.855,0
4.346,-13.686,0
4.347,-12.038,0
4.348,-10.573,0
4.349,-9.292,0
4.35,-12.771,0
4.351,-11.672,0
4.352,-10.756,0
4.353,-6.179,0
4.354,-5.446,0
4.355,-3.249,0
4.356,-7.827,0
4.357,-2.15,0
4.358,-1.418,0
4.359,-1.967,0
4.36,-6.362,0
4.361,-5.813,0
4.362,1.695,0
4.363,-3.981,0
4.364,-1.052,0
4.365,-1.967,0
4.366,-5.996,0
4.367,-0.686,0
4.368,-2.517,0
4.369,3.16,0
4.37,5.357,0
4.371,5.906,0
4.372,5.357,0
4.373,5.906,0
4.374,1.329,0
4.375,0.779,0
4.376,1.329,0
4.377,-1.967,0
4.378,-1.601,0
4.379,2.977,0
4.38,1.146,0
4.381,1.695,0
4.382,2.977,0
4.383,0.779,0
4.384,1.878,0
4.385,-1.601,0
4.386,-6.911,0
4.387,-2.7,0
4.388,5.723,0
4.389,11.766,0
4.39,28.794,0
4.391,35.936,0
4.392,33.738,0
4.393,15.611,0
4.394,8.47,0
4.395,-6.911,0
4.396,-8.925,0
4.397,-14.418,0
4.398,-12.771,0
4.399,-17.165,0
4.4,-15.883,0
4.401,-16.982,0
4.402,-18.081,0
4.403,-15.151,0
4.404,-8.742,0
4.405,-3.066,0
4.406,-2.333,0
4.407,-2.883,0
4.408,-1.052,0
4.409,-0.502,0
4.41,-0.136,0
4.411,-4.348,0
4.412,-1.601,0
4.413,-1.967,0
4.414,-0.686,0
4.415,-3.432,0
4.416,-1.601,0
4.417,-6.362,0
4.418,-4.531,0
4.419,1.695,0
4.42,2.427,0
4.421,4.625,0
4.422,6.456,0
4.423,7.005,0
4.424,7.554,0
4.425,7.92,0
4.426,4.808,0
4.427,3.709,0
4.428,4.808,0
4.429,2.977,0
4.43,0.23,0
4.431,0.596,0
4.432,-3.432,0
4.433,-0.136,0
4.434,2.977,0
4.435,0.962,0
4.436,4.441,0
4.437,7.737,0
4.438,6.456,0
4.439,12.681,0
4.44,17.259,0
4.441,29.71,0
4.442,20.555,0
4.443,18.907,0
4.444,8.47,0
4.445,-6.545,0
4.446,-8.559,0
4.447,-14.052,0
4.448,-15.7,0
4.449,-17.165,0
4.45,-15.883,0
4.451,-14.785,0
4.452,-13.686,0
4.453,-12.771,0
4.454,-11.855,0
4.455,-7.827,0
4.456,-0.869,0
4.457,-7.277,0
4.458,-8.01,0
4.459,-4.165,0
4.46,-3.615,0
4.461,-3.066,0
4.462,-2.517,0
4.463,0.779,0
4.464,-0.502,0
4.465,-5.08,0
4.466,-3.249,0
4.467,-0.502,0
4.468,-2.883,0
4.469,-5.08,0
4.47,-3.066,0
4.471,-1.967,0
4.472,-0.869,0
4.473,3.709,0
4.474,1.878,0
4.475,0.047,0
4.476,-1.601,0
4.477,0.779,0
4.478,1.146,0
4.479,-0.869,0
4.48,-1.235,0
4.481,2.793,0
4.482,-2.7,0
4.483,-1.967,0
4.484,-0.136,0
4.485,-0.686,0
4.486,4.441,0
4.487,3.892,0
4.488,1.878,0
4.489,4.991,0
4.49,13.414,0
4.491,16.893,0
4.492,31.724,0
4.493,33.738,0
4.494,13.597,0
4.495,0.23,0
4.496,-6.911,0
4.497,-13.503,0
4.498,-11.489,0
4.499,-13.32,0
4.5,-11.672,0
4.501,-10.207,0
4.502,-3.432,0
4.503,-4.531,0
4.504,-5.629,0
4.505,-6.545,0
4.506,-7.46,0
4.507,-6.728,0
4.508,-1.418,0
4.509,-3.249,0
4.51,2.427,0
4.511,-1.418,0
4.512,-3.249,0
4.513,-5.08,0
4.514,0.047,0
4.515,0.596,0
4.516,-3.798,0
4.517,-2.15,0
4.518,1.146,0
4.519,2.427,0
4.52,6.272,0
4.521,7.554,0
4.522,6.272,0
4.523,6.639,0
4.524,4.075,0
4.525,5.906,0
4.526,1.329,0
4.527,-0.502,0
4.528,-2.333,0
4.529,-5.08,0
4.53,-8.376,0
4.531,-7.094,0
4.532,-4.348,0
4.533,-0.869,0
4.534,-2.15,0
4.535,-1.052,0
4.536,-2.15,0
4.537,2.61,0
4.538,8.287,0
4.539,8.47,0
4.54,4.625,0
4.541,5.174,0
4.542,4.625,0
4.543,-2.7,0
4.544,-1.784,0
4.545,8.47,0
4.546,12.498,0
4.547,11.399,0
4.548,3.526,0
4.549,12.681,0
4.55,9.202,0
4.551,14.878,0
4.552,19.822,0
4.553,20.738,0
4.554,24.766,0
4.555,28.611,0
4.556,25.315,0
4.557,15.794,0
4.558,-4.714,0
4.559,-19.545,0
4.56,-27.419,0
4.561,-25.039,0
4.562,-27.236,0
4.563,-25.222,0
4.564,-23.391,0
4.565,-18.447,0
4.566,-16.982,0
4.567,-15.7,0
4.568,-14.602,0
4.569,-6.728,0
4.57,-3.798,0
4.571,-2.883,0
4.572,-3.615,0
4.573,0.23,0
4.574,0.779,0
4.575,-4.897,0
4.576,-4.165,0
4.577,-2.333,0
4.578,0.779,0
4.579,0.23,0
4.58,-1.052,0
4.581,4.991,0
4.582,2.61,0
4.583,4.808,0
4.584,1.512,0
4.585,4.625,0
4.586,7.371,0
4.587,6.089,0
4.588,4.808,0
4.589,3.709,0
4.59,5.54,0
4.591,2.977,0
4.592,8.47,0
4.593,20.005,0
4.594,28.245,0
4.595,35.752,0
4.596,17.991,0
4.597,5.906,0
4.598,-5.08,0
4.599,-7.094,0
4.6,-12.587,0
4.601,-10.939,0
4.602,-12.404,0
4.603,-8.376,0
4.604,-7.277,0
4.605,-8.376,0
4.606,-5.446,0
4.607,-4.531,0
4.608,-2.15,0
4.609,-2.883,0
4.61,-1.052,0
4.611,-5.446,0
4.612,-2.7,0
4.613,-3.066,0
4.614,-4.348,0
4.615,-7.094,0
4.616,-1.418,0
4.617,-0.686,0
4.618,-5.996,0
4.619,-1.418,0
4.62,-3.249,0
4.621,-0.502,0
4.622,1.878,0
4.623,2.244,0
4.624,4.991,0
4.625,3.16,0
4.626,2.061,0
4.627,0.047,0
4.628,0.23,0
4.629,-1.052,0
4.63,1.146,0
4.631,0.413,0
4.632,-2.517,0
4.633,-2.15,0
4.634,-0.319,0
4.635,1.695,0
4.636,1.878,0
4.637,3.16,0
4.638,4.258,0
4.639,5.723,0
4.64,5.54,0
4.641,4.808,0
4.642,4.991,0
4.643,7.005,0
4.644,3.709,0
4.645,5.723,0
4.646,11.399,0
4.647,23.851,0
4.648,22.02,0
4.649,7.005,0
4.65,-7.094,0
4.651,-12.587,0
4.652,-14.235,0
4.653,-18.63,0
4.654,-14.602,0
4.655,-13.503,0
4.656,-10.207,0
4.657,-9.292,0
4.658,-8.376,0
4.659,-14.052,0
4.66,-16.25,0
4.661,-11.672,0
4.662,-5.996,0
4.663,-3.798,0
4.664,-5.629,0
4.665,-7.46,0
4.666,-3.615,0
4.667,-0.319,0
4.668,0.962,0
4.669,-0.136,0
4.67,3.343,0
4.671,3.709,0
4.672,1.695,0
4.673,5.906,0
4.674,7.554,0
4.675,2.977,0
4.676,1.146,0
4.677,1.695,0
4.678,0.413,0
4.679,3.526,0
4.68,0.779,0
4.681,-1.784,0
4.682,-4.348,0
4.683,-0.319,0
4.684,2.427,0
4.685,2.793,0
4.686,1.512,0
4.687,4.258,0
4.688,5.357,0
4.689,5.723,0
4.69,1.695,0
4.691,2.244,0
4.692,-3.249,0
4.693,1.329,0
4.694,3.16,0
4.695,9.385,0
4.696,21.836,0
4.697,20.005,0
4.698,18.357,0
4.699,10.85,0
4.7,1.329,0
4.701,-7.094,0
4.702,-12.771,0
4.703,-13.686,0
4.704,-14.602,0
4.705,-10.573,0
4.706,-11.306,0
4.707,-8.01,0
4.708,-12.404,0
4.709,-7.277,0
4.71,-11.855,0
4.711,-10.024,0
4.712,-9.475,0
4.713,-8.193,0
4.714,-8.559,0
4.715,-8.193,0
4.716,-3.981,0
4.717,-6.728,0
4.718,-4.348,0
4.719,-1.235,0
4.72,0.779,0
4.721,1.878,0
4.722,7.371,0
4.723,5.174,0
4.724,1.878,0
4.725,1.329,0
4.726,1.878,0
4.727,2.244,0
4.728,4.441,0
4.729,1.695,0
4.73,0.596,0
4.731,-0.502,0
4.732,0.962,0
4.733,-0.869,0
4.734,3.16,0
4.735,2.61,0
4.736,-0.686,0
4.737,0.596,0
4.738,0.962,0
4.739,5.174,0
4.74,3.526,0
4.741,-1.052,0
4.742,-0.502,0
4.743,0.413,0
4.744,-1.235,0
4.745,6.272,0
4.746,9.568,0
4.747,18.724,0
4.748,24.766,0
4.749,32.64,0
4.75,27.696,0
4.751,13.78,0
4.752,-0.319,0
4.753,-9.475,0
4.754,-11.123,0
4.755,-12.587,0
4.756,-13.869,0
4.757,-17.348,0
4.758,-16.25,0
4.759,-13.32,0
4.76,-14.235,0
4.761,-13.503,0
4.762,-11.306,0
4.763,-14.602,0
4.764,-11.489,0
4.765,-9.841,0
4.766,-9.475,0
4.767,-6.362,0
4.768,-3.615,0
4.769,-3.981,0
4.77,1.512,0
4.771,2.244,0
4.772,6.822,0
4.773,4.991,0
4.774,4.441,0
4.775,4.808,0
4.776,4.441,0
4.777,-1.784,0
4.778,-4.531,0
4.779,-0.502,0
4.78,0.23,0
4.781,2.061,0
4.782,3.892,0
4.783,4.441,0
4.784,4.808,0
4.785,-1.235,0
4.786,6.272,0
4.787,3.343,0
4.788,6.089,0
4.789,3.709,0
4.79,2.977,0
4.791,10.484,0
4.792,15.428,0
4.793,12.681,0
4.794,4.808,0
4.795,0.779,0
4.796,0.047,0
4.797,-1.784,0
4.798,5.174,0
4.799,13.597,0
4.8,21.47,0
4.801,28.428,0
4.802,31.175,0
4.803,18.724,0
4.804,2.244,0
4.805,0.047,0
4.806,-10.024,0
4.807,-11.855,0
4.808,-16.799,0
4.809,-18.264,0
4.81,-16.982,0
4.811,-15.883,0
4.812,-14.785,0
4.813,-13.869,0
4.814,-14.785,0
4.815,-10.756,0
4.816,-14.602,0
4.817,-14.052,0
4.818,-9.658,0
4.819,-5.813,0
4.82,0.779,0
4.821,-3.798,0
4.822,1.878,0
4.823,-0.319,0
4.824,2.977,0
4.825,-0.136,0
4.826,-0.686,0
4.827,-3.066,0
4.828,-2.7,0
4.829,1.878,0
4.83,4.991,0
4.831,-0.136,0
4.832,1.695,0
4.833,2.244,0
4.834,3.892,0
4.835,1.512,0
4.836,2.793,0
4.837,0.047,0
4.838,5.723,0
4.839,4.991,0
4.84,2.793,0
4.841,2.244,0
4.842,0.413,0
4.843,0.962,0
4.844,2.244,0
4.845,5.54,0
4.846,2.427,0
4.847,8.653,0
4.848,11.399,0
4.849,22.203,0
4.85,20.738,0
4.851,16.709,0
4.852,13.23,0
4.853,2.977,0
4.854,-3.798,0
4.855,-7.277,0
4.856,-10.573,0
4.857,-11.489,0
4.858,-14.235,0
4.859,-11.855,0
4.86,-12.587,0
4.861,-13.137,0
4.862,-10.024,0
4.863,-4.897,0
4.864,-6.728,0
4.865,-6.179,0
4.866,-12.404,0
4.867,-8.376,0
4.868,-6.179,0
4.869,0.047,0
4.87,0.779,0
4.871,0.047,0
4.872,1.878,0
4.873,0.047,0
4.874,2.793,0
4.875,1.512,0
4.876,3.709,0
4.877,2.61,0
4.878,2.977,0
4.879,-1.052,0
4.88,-2.333,0
4.881,0.779,0
4.882,1.146,0
4.883,2.977,0
4.884,1.878,0
4.885,2.61,0
4.886,4.441,0
4.887,2.61,0
4.888,3.16,0
4.889,6.456,0
4.89,6.089,0
4.891,5.723,0
4.892,4.625,0
4.893,6.456,0
4.894,8.47,0
4.895,9.202,0
4.896,15.062,0
4.897,16.343,0
4.898,19.822,0
4.899,27.33,0
4.9,44.358,0
4.901,51.5,0
4.902,53.697,0
4.903,39.598,0
4.904,19.456,0
4.905,6.089,0
4.906,-10.756,0
4.907,-26.137,0
4.908,-32.18,0
4.909,-41.335,0
4.91,-49.575,0
4.911,-53.969,0
4.912,-49.941,0
4.913,-36.391,0
4.914,-23.574,0
4.915,-28.518,0
4.916,-48.11,0
4.917,-61.477,0
4.918,-83.449,0
4.919,-104.14,0
4.92,-112.01,0
4.921,-119.16,0
4.922,-125.75,0
4.923,-135.82,0
4.924,-141.31,0
4.925,-142.96,0
4.926,-132.52,0
4.927,-117.51,0
4.928,-91.323,0
4.929,-37.673,0
4.93,62.486,0
4.931,130.78,0
4.932,143.24,0
4.933,154.41,0
4.934,123.64,0
4.935,114.31,0
4.936,89.036,0
4.937,81.346,0
4.938,74.388,0
4.939,93.248,0
4.94,110.46,0
4.941,126.02,0
4.942,140.31,0
4.943,136.09,0
4.944,139.94,0
4.945,129.32,0
4.946,126.21,0
4.947,121.26,0
4.948,112.47,0
4.949,93.797,0
4.95,67.063,0
4.951,63.584,0
4.952,54.063,0
4.953,68.895,0
4.954,71.458,0
4.955,49.485,0
4.956,22.752,0
4.957,4.991,0
4.958,-17.531,0
4.959,-32.363,0
4.96,-40.236,0
4.961,-33.095,0
4.962,-39.687,0
4.963,-49.758,0
4.964,-51.589,0
4.965,-53.237,0
4.966,-51.772,0
4.967,-55.8,0
4.968,-59.279,0
4.969,-58.181,0
4.97,-63.125,0
4.971,-67.702,0
4.972,-71.73,0
4.973,-72.463,0
4.974,-67.885,0
4.975,-73.562,0
4.976,-69.716,0
4.977,-66.42,0
4.978,-62.026,0
4.979,-58.181,0
4.98,-51.589,0
4.981,-50.673,0
4.982,-43.166,0
4.983,-42.25,0
4.984,-31.997,0
4.985,-30.715,0
4.986,-22.292,0
4.987,-21.193,0
4.988,-14.235,0
4.989,-9.658,0
4.99,-7.277,0
4.991,-6.545,0
4.992,-7.094,0
4.993,-2.7,0
4.994,-6.545,0
4.995,-3.249,0
4.996,-1.967,0
4.997,0.779,0
4.998,2.61,0
4.999,3.709,0
5,9.202,0
5.001,20.738,0
5.002,35.752,0
5.003,37.767,0
5.004,28.611,0
5.005,17.076,0
5.006,9.568,0
5.007,5.54,0
5.008,2.061,0
5.009,-1.235,0
5.01,-4.165,0
5.011,-5.08,0
5.012,-5.813,0
5.013,-3.615,0
5.014,-3.066,0
5.015,-3.615,0
5.016,0.23,0
5.017,-0.136,0
5.018,0.23,0
5.019,2.244,0
5.02,3.343,0
5.021,6.639,0
5.022,12.132,0
5.023,9.935,0
5.024,8.104,0
5.025,6.272,0
5.026,6.822,0
5.027,6.456,0
5.028,5.174,0
5.029,4.075,0
5.03,-1.601,0
5.031,4.075,0
5.032,6.272,0
5.033,2.977,0
5.034,3.526,0
5.035,4.075,0
5.036,6.456,0
5.037,13.414,0
5.038,10.484,0
5.039,20.738,0
5.04,13.963,0
5.041,5.54,0
5.042,-0.136,0
5.043,-1.052,0
5.044,-0.136,0
5.045,-0.869,0
5.046,-3.066,0
5.047,-4.897,0
5.048,-5.446,0
5.049,-5.446,0
5.05,-2.7,0
5.051,4.808,0
5.052,8.104,0
5.053,23.301,0
5.054,29.893,0
5.055,35.936,0
5.056,23.118,0
5.057,11.583,0
5.058,1.146,0
5.059,-5.629,0
5.06,-9.108,0
5.061,-12.404,0
5.062,-15.334,0
5.063,-12.587,0
5.064,-14.968,0
5.065,-14.235,0
5.066,-13.686,0
5.067,-8.01,0
5.068,-10.207,0
5.069,-2.7,0
5.07,-5.629,0
5.071,-2.883,0
5.072,-2.15,0
5.073,-2.883,0
5.074,0.413,0
5.075,0.962,0
5.076,1.512,0
5.077,1.146,0
5.078,-1.967,0
5.079,0.779,0
5.08,-4.897,0
5.081,-4.165,0
5.082,-0.319,0
5.083,1.512,0
5.084,3.343,0
5.085,2.793,0
5.086,4.075,0
5.087,5.357,0
5.088,7.371,0
5.089,7.005,0
5.09,7.371,0
5.091,2.793,0
5.092,0.962,0
5.093,2.793,0
5.094,3.343,0
5.095,0.047,0
5.096,-2.15,0
5.097,-4.165,0
5.098,-0.686,0
5.099,-2.883,0
5.1,-3.249,0
5.101,-1.235,0
5.102,2.244,0
5.103,9.202,0
5.104,20.372,0
5.105,27.879,0
5.106,29.161,0
5.107,35.203,0
5.108,36.302,0
5.109,21.104,0
5.11,-3.249,0
5.111,-6.362,0
5.112,-21.193,0
5.113,-23.757,0
5.114,-26.137,0
5.115,-28.334,0
5.116,-26.32,0
5.117,-24.489,0
5.118,-22.841,0
5.119,-12.404,0
5.12,-11.123,0
5.121,-10.024,0
5.122,-6.728,0
5.123,-7.644,0
5.124,-3.066,0
5.125,-3.798,0
5.126,-1.601,0
5.127,-6.179,0
5.128,-3.066,0
5.129,-0.319,0
5.13,-0.686,0
5.131,-1.967,0
5.132,0.047,0
5.133,4.991,0
5.134,-1.235,0
5.135,1.146,0
5.136,3.343,0
5.137,5.174,0
5.138,3.343,0
5.139,7.188,0
5.14,8.47,0
5.141,9.751,0
5.142,4.258,0
5.143,4.991,0
5.144,4.441,0
5.145,0.047,0
5.146,0.596,0
5.147,1.878,0
5.148,1.512,0
5.149,-0.502,0
5.15,0.596,0
5.151,7.005,0
5.152,8.104,0
5.153,12.681,0
5.154,15.977,0
5.155,25.499,0
5.156,32.273,0
5.157,33.372,0
5.158,20.921,0
5.159,5.906,0
5.16,-8.193,0
5.161,-10.024,0
5.162,-18.264,0
5.163,-19.729,0
5.164,-21.01,0
5.165,-17.531,0
5.166,-18.63,0
5.167,-13.686,0
5.168,-9.108,0
5.169,-6.728,0
5.17,-4.531,0
5.171,-5.08,0
5.172,-1.967,0
5.173,-3.615,0
5.174,-2.333,0
5.175,0.779,0
5.176,-1.967,0
5.177,-2.333,0
5.178,0.23,0
5.179,3.526,0
5.18,-1.601,0
5.181,2.977,0
5.182,3.526,0
5.183,2.977,0
5.184,-0.319,0
5.185,-2.517,0
5.186,3.709,0
5.187,4.625,0
5.188,3.892,0
5.189,6.089,0
5.19,2.793,0
5.191,2.244,0
5.192,-0.502,0
5.193,0.779,0
5.194,-0.502,0
5.195,-0.136,0
5.196,0.962,0
5.197,0.596,0
5.198,-0.869,0
5.199,-0.136,0
5.2,-2.517,0
5.201,-3.249,0
5.202,0.413,0
5.203,2.244,0
5.204,6.272,0
5.205,12.498,0
5.206,21.653,0
5.207,27.696,0
5.208,30.992,0
5.209,15.794,0
5.21,9.202,0
5.211,-4.897,0
5.212,-14.052,0
5.213,-18.996,0
5.214,-23.391,0
5.215,-24.672,0
5.216,-23.574,0
5.217,-20.278,0
5.218,-17.348,0
5.219,-12.771,0
5.22,-8.742,0
5.221,-9.475,0
5.222,-4.897,0
5.223,-5.446,0
5.224,-3.798,0
5.225,-2.517,0
5.226,-0.319,0
5.227,-3.066,0
5.228,-3.432,0
5.229,-2.333,0
5.23,-3.066,0
5.231,-3.798,0
5.232,-3.066,0
5.233,-1.601,0
5.234,-1.784,0
5.235,0.413,0
5.236,1.695,0
5.237,3.526,0
5.238,3.343,0
5.239,6.639,0
5.24,3.526,0
5.241,4.625,0
5.242,5.723,0
5.243,4.625,0
5.244,1.878,0
5.245,0.779,0
5.246,1.878,0
5.247,-0.869,0
5.248,0.962,0
5.249,0.596,0
5.25,1.329,0
5.251,0.596,0
5.252,2.427,0
5.253,5.54,0
5.254,2.427,0
5.255,8.653,0
5.256,15.062,0
5.257,25.865,0
5.258,18.357,0
5.259,14.329,0
5.26,8.287,0
5.261,-1.967,0
5.262,-8.742,0
5.263,-9.841,0
5.264,-15.517,0
5.265,-12.587,0
5.266,-13.503,0
5.267,-15.883,0
5.268,-13.686,0
5.269,-13.137,0
5.27,-10.024,0
5.271,-9.475,0
5.272,-6.179,0
5.273,-1.967,0
5.274,-4.714,0
5.275,-1.418,0
5.276,-1.052,0
5.277,-2.15,0
5.278,-0.319,0
5.279,2.977,0
5.28,-1.601,0
5.281,-2.15,0
5.282,-1.601,0
5.283,5.906,0
5.284,11.583,0
5.285,4.625,0
5.286,5.54,0
5.287,6.272,0
5.288,-2.15,0
5.289,-3.249,0
5.29,-2.333,0
5.291,-1.418,0
5.292,-2.15,0
5.293,-2.883,0
5.294,-2.333,0
5.295,-4.165,0
5.296,-2.517,0
5.297,-2.15,0
5.298,-1.784,0
5.299,-2.883,0
5.3,-3.249,0
5.301,-4.348,0
5.302,-1.601,0
5.303,0.962,0
5.304,1.146,0
5.305,6.639,0
5.306,13.597,0
5.307,14.512,0
5.308,26.963,0
5.309,32.457,0
5.31,20.921,0
5.311,7.371,0
5.312,-1.784,0
5.313,-6.728,0
5.314,-8.193,0
5.315,-14.968,0
5.316,-13.869,0
5.317,-14.968,0
5.318,-14.052,0
5.319,-9.475,0
5.32,-11.855,0
5.321,-9.658,0
5.322,-3.432,0
5.323,-1.052,0
5.324,-3.249,0
5.325,-7.827,0
5.326,-8.376,0
5.327,-2.15,0
5.328,-2.883,0
5.329,-3.615,0
5.33,-4.165,0
5.331,-2.333,0
5.332,-2.883,0
5.333,-6.179,0
5.334,-1.967,0
5.335,0.779,0
5.336,3.16,0
5.337,4.441,0
5.338,5.54,0
5.339,7.371,0
5.34,2.61,0
5.341,5.723,0
5.342,4.075,0
5.343,2.793,0
5.344,-0.319,0
5.345,0.047,0
5.346,1.146,0
5.347,0.047,0
5.348,-0.686,0
5.349,-4.897,0
5.35,-1.784,0
5.351,-2.333,0
5.352,2.244,0
5.353,1.695,0
5.354,4.441,0
5.355,4.075,0
5.356,5.357,0
5.357,12.315,0
5.358,13.23,0
5.359,21.653,0
5.36,27.33,0
5.361,20.372,0
5.362,10.118,0
5.363,3.343,0
5.364,-7.827,0
5.365,-12.221,0
5.366,-16.25,0
5.367,-19.729,0
5.368,-23.024,0
5.369,-18.081,0
5.37,-15.334,0
5.371,-12.954,0
5.372,-7.644,0
5.373,-8.193,0
5.374,-6.362,0
5.375,-9.108,0
5.376,-8.742,0
5.377,-4.531,0
5.378,-5.08,0
5.379,-4.714,0
5.38,-4.348,0
5.381,-3.981,0
5.382,-7.46,0
5.383,-1.418,0
5.384,-2.15,0
5.385,1.695,0
5.386,3.526,0
5.387,5.357,0
5.388,3.709,0
5.389,10.301,0
5.39,9.385,0
5.391,8.653,0
5.392,6.456,0
5.393,1.878,0
5.394,0.047,0
5.395,-5.08,0
5.396,-4.531,0
5.397,-6.362,0
5.398,-3.615,0
5.399,0.962,0
5.4,1.512,0
5.401,-3.615,0
5.402,2.61,0
5.403,4.991,0
5.404,5.723,0
5.405,7.554,0
5.406,7.005,0
5.407,1.329,0
5.408,9.751,0
5.409,8.653,0
5.41,17.808,0
5.411,26.231,0
5.412,36.485,0
5.413,18.724,0
5.414,11.583,0
5.415,0.596,0
5.416,-9.475,0
5.417,-14.968,0
5.418,-16.616,0
5.419,-18.081,0
5.42,-14.052,0
5.421,-15.151,0
5.422,-9.475,0
5.423,-12.404,0
5.424,-9.658,0
5.425,-7.277,0
5.426,-11.123,0
5.427,-9.292,0
5.428,-11.123,0
5.429,-10.573,0
5.43,-5.996,0
5.431,-2.883,0
5.432,-1.235,0
5.433,0.047,0
5.434,-5.996,0
5.435,-1.967,0
5.436,-2.7,0
5.437,1.878,0
5.438,2.427,0
5.439,-0.319,0
5.44,2.977,0
5.441,6.089,0
5.442,5.723,0
5.443,8.287,0
5.444,7.92,0
5.445,5.906,0
5.446,2.793,0
5.447,-1.052,0
5.448,0.23,0
5.449,2.427,0
5.45,5.174,0
5.451,1.695,0
5.452,-1.418,0
5.453,2.427,0
5.454,1.146,0
5.455,1.512,0
5.456,1.878,0
5.457,-1.052,0
5.458,1.512,0
5.459,7.005,0
5.46,18.541,0
5.461,26.78,0
5.462,31.175,0
5.463,18.907,0
5.464,3.892,0
5.465,-6.179,0
5.466,-11.672,0
5.467,-13.32,0
5.468,-14.785,0
5.469,-13.503,0
5.47,-12.404,0
5.471,-6.728,0
5.472,-5.813,0
5.473,-3.066,0
5.474,-5.446,0
5.475,-3.249,0
5.476,-5.08,0
5.477,-5.629,0
5.478,-7.277,0
5.479,-8.559,0
5.48,-7.277,0
5.481,-4.531,0
5.482,-7.094,0
5.483,-2.333,0
5.484,0.779,0
5.485,3.526,0
5.486,0.23,0
5.487,4.441,0
5.488,6.089,0
5.489,3.709,0
5.49,3.343,0
5.491,2.244,0
5.492,0.413,0
5.493,4.441,0
5.494,3.16,0
5.495,4.441,0
5.496,2.427,0
5.497,2.061,0
5.498,-1.235,0
5.499,-2.333,0
5.5,-2.7,0
5.501,-2.333,0
5.502,-3.066,0
5.503,-6.179,0
5.504,-3.432,0
5.505,1.512,0
5.506,0.962,0
5.507,1.512,0
5.508,-0.319,0
5.509,0.23,0
5.51,7.737,0
5.511,11.033,0
5.512,26.231,0
5.513,32.823,0
5.514,34.837,0
5.515,18.357,0
5.516,2.977,0
5.517,-7.094,0
5.518,-8.925,0
5.519,-10.573,0
5.52,-6.179,0
5.521,-12.954,0
5.522,-9.475,0
5.523,-10.573,0
5.524,-9.658,0
5.525,-10.573,0
5.526,-9.841,0
5.527,-4.531,0
5.528,5.723,0
5.529,10.118,0
5.53,8.836,0
5.531,2.793,0
5.532,-2.883,0
5.533,-3.798,0
5.534,-4.714,0
5.535,-3.981,0
5.536,-3.249,0
5.537,-1.418,0
5.538,-3.249,0
5.539,-2.7,0
5.54,-3.066,0
5.541,0.047,0
5.542,-0.319,0
5.543,1.512,0
5.544,-1.784,0
5.545,-0.686,0
5.546,-1.052,0
5.547,0.047,0
5.548,-3.249,0
5.549,-7.46,0
5.55,-8.01,0
5.551,-6.728,0
5.552,-4.531,0
5.553,0.047,0
5.554,-1.784,0
5.555,2.061,0
5.556,-0.319,0
5.557,1.878,0
5.558,3.892,0
5.559,4.808,0
5.56,5.174,0
5.561,10.667,0
5.562,17.625,0
5.563,24.034,0
5.564,29.71,0
5.565,36.668,0
5.566,22.752,0
5.567,4.625,0
5.568,-2.517,0
5.569,-9.108,0
5.57,-15.151,0
5.571,-13.32,0
5.572,-11.672,0
5.573,-13.137,0
5.574,-11.855,0
5.575,-10.756,0
5.576,-9.658,0
5.577,-12.587,0
5.578,-11.672,0
5.579,-9.292,0
5.58,-8.559,0
5.581,-9.108,0
5.582,-4.714,0
5.583,-5.263,0
5.584,-2.883,0
5.585,-2.517,0
5.586,2.061,0
5.587,3.892,0
5.588,3.343,0
5.589,2.061,0
5.59,0.779,0
5.591,1.146,0
5.592,-3.066,0
5.593,2.061,0
5.594,-2.517,0
5.595,-0.686,0
5.596,0.962,0
5.597,2.244,0
5.598,2.61,0
5.599,3.709,0
5.6,1.146,0
5.601,3.709,0
5.602,5.723,0
5.603,3.16,0
5.604,2.061,0
5.605,4.075,0
5.606,3.343,0
5.607,4.075,0
5.608,4.258,0
5.609,0.962,0
5.61,1.146,0
5.611,1.512,0
5.612,7.737,0
5.613,12.315,0
5.614,24.766,0
5.615,33.921,0
5.616,22.386,0
5.617,20.921,0
5.618,8.653,0
5.619,7.005,0
5.62,8.47,0
5.621,4.441,0
5.622,7.92,0
5.623,11.216,0
5.624,16.16,0
5.625,13.414,0
5.626,5.906,0
5.627,4.991,0
5.628,2.244,0
5.629,2.977,0
5.63,-5.446,0
5.631,-15.7,0
5.632,-22.475,0
5.633,-28.518,0
5.634,-34.194,0
5.635,-39.138,0
5.636,-38.222,0
5.637,-37.49,0
5.638,-29.067,0
5.639,-23.391,0
5.64,-26.32,0
5.641,-21.743,0
5.642,-34.194,0
5.643,-57.998,0
5.644,-74.111,0
5.645,-88.942,0
5.646,-113.11,0
5.647,-122.63,0
5.648,-119.7,0
5.649,-127.58,0
5.65,-129.96,0
5.651,-127.76,0
5.652,-117.69,0
5.653,-90.224,0
5.654,-38.955,0
5.655,66.148,0
5.656,111.19,0
5.657,152.02,0
5.658,164.48,0
5.659,130.78,0
5.66,120.53,0
5.661,88.304,0
5.662,78.965,0
5.663,70.542,0
5.664,62.852,0
5.665,55.894,0
5.666,100.21,0
5.667,128.95,0
5.668,134.08,0
5.669,119.8,0
5.67,115.59,0
5.671,111.74,0
5.672,101.12,0
5.673,98.008,0
5.674,95.079,0
5.675,81.712,0
5.676,50.035,0
5.677,19.822,0
5.678,15.977,0
5.679,19.456,0
5.68,22.569,0
5.681,25.499,0
5.682,17.625,0
5.683,5.54,0
5.684,-5.446,0
5.685,-15.517,0
5.686,-17.348,0
5.687,-12.404,0
5.688,-16.799,0
5.689,-29.067,0
5.69,-37.307,0
5.691,-38.771,0
5.692,-37.49,0
5.693,-36.391,0
5.694,-48.842,0
5.695,-47.194,0
5.696,-48.659,0
5.697,-52.688,0
5.698,-56.167,0
5.699,-64.04,0
5.7,-68.984,0
5.701,-68.068,0
5.702,-65.688,0
5.703,-63.491,0
5.704,-58.913,0
5.705,-53.237,0
5.706,-46.279,0
5.707,-43.532,0
5.708,-39.504,0
5.709,-40.236,0
5.71,-34.011,0
5.711,-29.982,0
5.712,-23.024,0
5.713,-23.757,0
5.714,-13.503,0
5.715,-5.996,0
5.716,14.512,0
5.717,17.442,0
5.718,20.005,0
5.719,12.864,0
5.72,1.878,0
5.721,-8.193,0
5.722,-6.362,0
5.723,-11.306,0
5.724,-9.841,0
5.725,-13.869,0
5.726,-10.39,0
5.727,-7.094,0
5.728,-10.024,0
5.729,-9.108,0
5.73,-9.841,0
5.731,-5.996,0
5.732,-2.7,0
5.733,-2.15,0
5.734,1.695,0
5.735,1.329,0
5.736,8.287,0
5.737,5.357,0
5.738,9.935,0
5.739,10.667,0
5.74,12.864,0
5.741,9.568,0
5.742,9.019,0
5.743,9.568,0
5.744,9.935,0
5.745,10.301,0
5.746,10.667,0
5.747,8.836,0
5.748,5.54,0
5.749,6.639,0
5.75,2.427,0
5.751,7.554,0
5.752,5.723,0
5.753,8.836,0
5.754,8.287,0
5.755,13.78,0
5.756,8.47,0
5.757,11.766,0
5.758,8.653,0
5.759,5.906,0
5.76,3.526,0
5.761,2.244,0
5.762,3.343,0
5.763,5.54,0
5.764,5.906,0
5.765,11.399,0
5.766,1.329,0
5.767,2.61,0
5.768,3.709,0
5.769,2.61,0
5.77,1.695,0
5.771,0.779,0
5.772,6.456,0
5.773,4.258,0
5.774,8.836,0
5.775,17.076,0
5.776,11.399,0
5.777,4.441,0
5.778,9.019,0
5.779,13.047,0
5.78,21.47,0
5.781,31.724,0
5.782,30.442,0
5.783,11.949,0
5.784,-1.418,0
5.785,-13.503,0
5.786,-15.7,0
5.787,-17.714,0
5.788,-19.545,0
5.789,-17.897,0
5.79,-19.362,0
5.791,-15.334,0
5.792,-14.235,0
5.793,-8.559,0
5.794,-11.489,0
5.795,-12.404,0
5.796,-11.672,0
5.797,-6.362,0
5.798,-5.813,0
5.799,-7.644,0
5.8,-4.897,0
5.801,0.596,0
5.802,2.793,0
5.803,3.343,0
5.804,5.174,0
5.805,9.019,0
5.806,6.639,0
5.807,5.357,0
5.808,1.512,0
5.809,2.793,0
5.81,1.512,0
5.811,1.146,0
5.812,3.709,0
5.813,-0.319,0
5.814,-2.517,0
5.815,-2.15,0
5.816,4.808,0
5.817,15.977,0
5.818,29.527,0
5.819,35.02,0
5.82,26.78,0
5.821,10.301,0
5.822,-0.686,0
5.823,-2.7,0
5.824,-4.531,0
5.825,-6.179,0
5.826,-13.686,0
5.827,-14.968,0
5.828,-16.066,0
5.829,-10.39,0
5.83,-13.32,0
5.831,-16.066,0
5.832,-8.559,0
5.833,-7.644,0
5.834,-6.728,0
5.835,-1.052,0
5.836,-3.249,0
5.837,-1.418,0
5.838,-0.869,0
5.839,2.977,0
5.84,2.61,0
5.841,3.892,0
5.842,1.878,0
5.843,2.244,0
5.844,1.878,0
5.845,-1.418,0
5.846,-3.615,0
5.847,0.23,0
5.848,-2.15,0
5.849,-4.348,0
5.85,-4.714,0
5.851,-0.502,0
5.852,1.146,0
5.853,2.427,0
5.854,3.709,0
5.855,5.723,0
5.856,3.892,0
5.857,4.991,0
5.858,4.258,0
5.859,2.427,0
5.86,-1.601,0
5.861,-2.15,0
5.862,-1.784,0
5.863,-2.15,0
5.864,0.596,0
5.865,1.146,0
5.866,-0.686,0
5.867,4.808,0
5.868,14.878,0
5.869,32.64,0
5.87,30.259,0
5.871,36.851,0
5.872,22.752,0
5.873,6.272,0
5.874,-4.714,0
5.875,-14.785,0
5.876,-16.616,0
5.877,-18.264,0
5.878,-16.799,0
5.879,-15.517,0
5.88,-14.418,0
5.881,-15.517,0
5.882,-14.602,0
5.883,-10.024,0
5.884,-4.348,0
5.885,-5.08,0
5.886,-3.249,0
5.887,-1.418,0
5.888,-3.066,0
5.889,1.512,0
5.89,0.962,0
5.891,1.512,0
5.892,-1.784,0
5.893,-1.418,0
5.894,2.427,0
5.895,2.793,0
5.896,1.512,0
5.897,4.258,0
5.898,6.822,0
5.899,4.258,0
5.9,2.244,0
5.901,4.075,0
5.902,7.554,0
5.903,7.188,0
5.904,7.554,0
5.905,7.92,0
5.906,6.822,0
5.907,6.089,0
5.908,4.258,0
5.909,2.427,0
5.91,0.23,0
5.911,-3.981,0
5.912,-3.432,0
5.913,-1.784,0
5.914,-3.066,0
5.915,-3.432,0
5.916,-1.784,0
5.917,-4.531,0
5.918,1.146,0
5.919,10.301,0
5.92,9.202,0
5.921,26.231,0
5.922,38.316,0
5.923,27.33,0
5.924,9.202,0
5.925,-2.883,0
5.926,-13.869,0
5.927,-19.912,0
5.928,-18.081,0
5.929,-19.729,0
5.93,-21.193,0
5.931,-22.475,0
5.932,-14.052,0
5.933,-15.151,0
5.934,-10.207,0
5.935,-11.123,0
5.936,-10.39,0
5.937,-6.545,0
5.938,-5.996,0
5.939,-2.883,0
5.94,-2.333,0
5.941,-5.629,0
5.942,-4.348,0
5.943,-2.333,0
5.944,-2.7,0
5.945,-0.869,0
5.946,1.146,0
5.947,1.878,0
5.948,0.596,0
5.949,-1.967,0
5.95,0.596,0
5.951,2.061,0
5.952,3.343,0
5.953,6.272,0
5.954,3.709,0
5.955,6.272,0
5.956,6.456,0
5.957,5.723,0
5.958,3.892,0
5.959,1.695,0
5.96,0.413,0
5.961,1.146,0
5.962,-1.052,0
5.963,-0.319,0
5.964,0.962,0
5.965,4.075,0
5.966,-2.15,0
5.967,-4.714,0
5.968,-1.967,0
5.969,10.484,0
5.97,15.977,0
5.971,27.513,0
5.972,31.907,0
5.973,22.386,0
5.974,6.272,0
5.975,4.075,0
5.976,-1.967,0
5.977,-7.46,0
5.978,-5.813,0
5.979,-7.277,0
5.98,-14.052,0
5.981,-17.531,0
5.982,-18.63,0
5.983,-15.7,0
5.984,-14.785,0
5.985,-14.052,0
5.986,-2.517,0
5.987,-4.165,0
5.988,0.23,0
5.989,-3.798,0
5.99,-2.7,0
5.991,-1.601,0
5.992,1.329,0
5.993,2.244,0
5.994,-0.136,0
5.995,0.596,0
5.996,0.047,0
5.997,-1.784,0
5.998,-1.235,0
5.999,0.047,0
6,0.413,0
6.001,-5.813,0
6.002,0.596,0
6.003,1.329,0
6.004,5.174,0
6.005,0.596,0
6.006,3.709,0
6.007,6.456,0
6.008,6.089,0
6.009,1.878,0
6.01,2.427,0
6.011,5.723,0
6.012,2.61,0
6.013,-1.967,0
6.014,-6.362,0
6.015,-5.813,0
6.016,-5.446,0
6.017,-5.08,0
6.018,-0.319,0
6.019,2.427,0
6.02,8.104,0
6.021,-1.052,0
6.022,15.062,0
6.023,4.075,0
6.024,10.118,0
6.025,15.611,0
6.026,20.555,0
6.027,13.047,0
6.028,9.019,0
6.029,0.596,0
6.03,-9.658,0
6.031,-13.686,0
6.032,-17.165,0
6.033,-22.841,0
6.034,-21.926,0
6.035,-22.841,0
6.036,-17.165,0
6.037,-14.968,0
6.038,-11.672,0
6.039,-5.996,0
6.04,-6.728,0
6.041,-2.15,0
6.042,-6.545,0
6.043,-4.897,0
6.044,-3.615,0
6.045,-1.418,0
6.046,1.329,0
6.047,-4.348,0
6.048,-3.615,0
6.049,-2.883,0
6.05,-1.052,0
6.051,0.779,0
6.052,2.427,0
6.053,5.723,0
6.054,2.61,0
6.055,3.709,0
6.056,4.808,0
6.057,6.639,0
6.058,6.456,0
6.059,2.793,0
6.06,3.16,0
6.061,-2.883,0
6.062,-2.15,0
6.063,-1.418,0
6.064,-0.869,0
6.065,-1.418,0
6.066,0.23,0
6.067,3.526,0
6.068,3.16,0
6.069,4.808,0
6.07,5.906,0
6.071,11.583,0
6.072,22.386,0
6.073,35.936,0
6.074,34.104,0
6.075,22.569,0
6.076,2.977,0
6.077,-4.897,0
6.078,-7.277,0
6.079,-9.475,0
6.08,-15.517,0
6.081,-17.348,0
6.082,-15.7,0
6.083,-20.095,0
6.084,-13.32,0
6.085,-7.277,0
6.086,-3.981,0
6.087,-3.066,0
6.088,-7.644,0
6.089,-3.615,0
6.09,-4.348,0
6.091,-3.798,0
6.092,-5.629,0
6.093,-5.08,0
6.094,-3.798,0
6.095,-3.432,0
6.096,-0.686,0
6.097,-0.319,0
6.098,0.047,0
6.099,-2.7,0
6.1,1.512,0
6.101,2.061,0
6.102,-0.319,0
6.103,0.047,0
6.104,-1.967,0
6.105,3.709,0
6.106,6.089,0
6.107,2.244,0
6.108,5.54,0
6.109,2.427,0
6.11,-0.319,0
6.111,2.977,0
6.112,3.343,0
6.113,2.244,0
6.114,-1.967,0
6.115,3.16,0
6.116,-0.136,0
6.117,1.695,0
6.118,1.146,0
6.119,-2.15,0
6.12,-1.052,0
6.121,-0.686,0
6.122,5.54,0
6.123,17.625,0
6.124,25.865,0
6.125,36.302,0
6.126,15.794,0
6.127,12.864,0
6.128,-0.502,0
6.129,-2.883,0
6.13,-13.869,0
6.131,-15.883,0
6.132,-14.052,0
6.133,-12.404,0
6.134,-10.939,0
6.135,-12.221,0
6.136,-11.123,0
6.137,-10.024,0
6.138,-7.094,0
6.139,-6.179,0
6.14,-5.446,0
6.141,-6.179,0
6.142,-2.883,0
6.143,-3.432,0
6.144,-6.179,0
6.145,-3.798,0
6.146,-0.686,0
6.147,-4.531,0
6.148,-2.15,0
6.149,-2.517,0
6.15,-1.418,0
6.151,-0.319,0
6.152,0.047,0
6.153,0.779,0
6.154,3.892,0
6.155,5.906,0
6.156,9.385,0
6.157,7.188,0
6.158,6.089,0
6.159,2.61,0
6.16,2.977,0
6.161,-2.517,0
6.162,1.329,0
6.163,0.779,0
6.164,1.329,0
6.165,1.878,0
6.166,-2.7,0
6.167,-2.15,0
6.168,-1.601,0
6.169,0.779,0
6.17,2.061,0
6.171,1.146,0
6.172,4.991,0
6.173,12.498,0
6.174,2.244,0
6.175,22.752,0
6.176,31.541,0
6.177,23.667,0
6.178,6.822,0
6.179,0.23,0
6.18,-9.841,0
6.181,-15.334,0
6.182,-13.686,0
6.183,-15.151,0
6.184,-13.869,0
6.185,-14.968,0
6.186,-18.264,0
6.187,-11.306,0
6.188,-10.39,0
6.189,-4.714,0
6.19,-3.981,0
6.191,-3.432,0
6.192,-5.263,0
6.193,-3.615,0
6.194,-3.249,0
6.195,-6.362,0
6.196,-5.263,0
6.197,-6.362,0
6.198,-3.066,0
6.199,-0.319,0
6.2,-2.15,0
6.201,-2.517,0
6.202,-1.784,0
6.203,2.427,0
6.204,5.54,0
6.205,6.089,0
6.206,7.371,0
6.207,5.174,0
6.208,6.272,0
6.209,3.709,0
6.21,1.146,0
6.211,-1.601,0
6.212,-6.545,0
6.213,-1.967,0
6.214,-2.517,0
6.215,-3.066,0
6.216,-3.432,0
6.217,-2.15,0
6.218,-0.136,0
6.219,4.808,0
6.22,2.977,0
6.221,1.146,0
6.222,1.878,0
6.223,7.005,0
6.224,17.259,0
6.225,15.794,0
6.226,22.569,0
6.227,28.611,0
6.228,29.71,0
6.229,20.555,0
6.23,9.385,0
6.231,-4.165,0
6.232,-9.658,0
6.233,-11.306,0
6.234,-15.7,0
6.235,-14.418,0
6.236,-15.517,0
6.237,-12.221,0
6.238,-13.137,0
6.239,-6.728,0
6.24,-9.108,0
6.241,-3.798,0
6.242,-8.376,0
6.243,-8.925,0
6.244,-7.277,0
6.245,-7.644,0
6.246,-4.531,0
6.247,-4.897,0
6.248,-4.531,0
6.249,-3.432,0
6.25,-3.249,0
6.251,-3.066,0
6.252,-1.784,0
6.253,1.695,0
6.254,2.977,0
6.255,-1.235,0
6.256,2.61,0
6.257,-1.967,0
6.258,4.991,0
6.259,2.244,0
6.26,6.272,0
6.261,4.075,0
6.262,2.244,0
6.263,-2.15,0
6.264,-2.7,0
6.265,-5.08,0
6.266,1.878,0
6.267,8.836,0
6.268,7.92,0
6.269,2.244,0
6.27,2.977,0
6.271,-1.601,0
6.272,-2.15,0
6.273,-1.052,0
6.274,-1.601,0
6.275,5.906,0
6.276,20.738,0
6.277,26.78,0
6.278,24.949,0
6.279,13.414,0
6.28,2.977,0
6.281,-3.798,0
6.282,-9.841,0
6.283,-13.137,0
6.284,-14.052,0
6.285,-13.137,0
6.286,-12.404,0
6.287,-13.137,0
6.288,-12.587,0
6.289,-10.756,0
6.29,-10.207,0
6.291,-5.629,0
6.292,-3.798,0
6.293,-4.348,0
6.294,-5.629,0
6.295,-1.418,0
6.296,-4.165,0
6.297,-0.869,0
6.298,-0.502,0
6.299,-2.517,0
6.3,-2.15,0
6.301,-2.517,0
6.302,-0.502,0
6.303,3.709,0
6.304,4.258,0
6.305,3.709,0
6.306,7.005,0
6.307,2.793,0
6.308,2.244,0
6.309,-1.052,0
6.31,1.146,0
6.311,1.512,0
6.312,1.878,0
6.313,0.047,0
6.314,2.793,0
6.315,1.695,0
6.316,2.061,0
6.317,-2.517,0
6.318,-4.348,0
6.319,-1.235,0
6.32,0.413,0
6.321,0.047,0
6.322,1.329,0
6.323,0.962,0
6.324,3.343,0
6.325,5.174,0
6.326,10.667,0
6.327,20.738,0
6.328,24.766,0
6.329,38.316,0
6.33,29.161,0
6.331,34.104,0
6.332,32.64,0
6.333,23.118,0
6.334,17.076,0
6.335,11.399,0
6.336,4.441,0
6.337,3.526,0
6.338,1.146,0
6.339,0.413,0
6.34,-5.813,0
6.341,-16.616,0
6.342,-30.166,0
6.343,-35.659,0
6.344,-40.603,0
6.345,-48.11,0
6.346,-52.138,0
6.347,-48.659,0
6.348,-36.208,0
6.349,-24.672,0
6.35,-29.067,0
6.351,-38.588,0
6.352,-52.138,0
6.353,-72.28,0
6.354,-90.957,0
6.355,-107.8,0
6.356,-118.79,0
6.357,-124.83,0
6.358,-130.32,0
6.359,-141.86,0
6.36,-134.35,0
6.361,-138.38,0
6.362,-124.83,0
6.363,-97.365,0
6.364,-38.222,0
6.365,72.007,0
6.366,117.05,0
6.367,157.88,0
6.368,145.43,0
6.369,134.26,0
6.37,124.01,0
6.371,95.994,0
6.372,104.42,0
6.373,81.346,0
6.374,88.304,0
6.375,102.95,0
6.376,121.81,0
6.377,150.56,0
6.378,155.69,0
6.379,169.97,0
6.38,165.76,0
6.381,138.29,0
6.382,120.53,0
6.383,104.42,0
6.384,77.684,0
6.385,52.781,0
6.386,30.259,0
6.387,21.47,0
6.388,24.034,0
6.389,21.653,0
6.39,23.851,0
6.391,13.78,0
6.392,0.962,0
6.393,-7.277,0
6.394,-17.714,0
6.395,-21.743,0
6.396,-25.222,0
6.397,-28.518,0
6.398,-39.687,0
6.399,-47.194,0
6.4,-45.913,0
6.401,-44.814,0
6.402,-41.518,0
6.403,-50.673,0
6.404,-54.152,0
6.405,-57.448,0
6.406,-60.378,0
6.407,-66.787,0
6.408,-70.815,0
6.409,-73.012,0
6.41,-69.716,0
6.411,-70.266,0
6.412,-64.04,0
6.413,-64.772,0
6.414,-57.814,0
6.415,-53.237,0
6.416,-47.561,0
6.417,-46.828,0
6.418,-40.603,0
6.419,-38.222,0
6.42,-32.912,0
6.421,-22.658,0
6.422,-21.193,0
6.423,-19.912,0
6.424,-13.869,0
6.425,-12.771,0
6.426,-9.108,0
6.427,-8.193,0
6.428,-1.784,0
6.429,5.723,0
6.43,16.893,0
6.431,30.442,0
6.432,28.611,0
6.433,13.597,0
6.434,3.526,0
6.435,-1.967,0
6.436,-3.615,0
6.437,-5.08,0
6.438,-3.798,0
6.439,-2.7,0
6.44,-5.996,0
6.441,-1.052,0
6.442,-5.629,0
6.443,-1.601,0
6.444,-0.869,0
6.445,-0.319,0
6.446,0.23,0
6.447,-1.418,0
6.448,-0.136,0
6.449,-1.418,0
6.45,-0.319,0
6.451,5.357,0
6.452,7.737,0
6.453,11.583,0
6.454,9.751,0
6.455,10.301,0
6.456,11.949,0
6.457,10.667,0
6.458,11.033,0
6.459,7.188,0
6.46,7.554,0
6.461,6.272,0
6.462,7.371,0
6.463,5.54,0
6.464,4.441,0
6.465,5.174,0
6.466,7.737,0
6.467,3.709,0
6.468,7.005,0
6.469,3.892,0
6.47,4.991,0
6.471,4.625,0
6.472,10.118,0
6.473,6.272,0
6.474,6.822,0
6.475,11.216,0
6.476,4.991,0
6.477,1.878,0
6.478,1.146,0
6.479,11.216,0
6.48,1.695,0
6.481,20.188,0
6.482,33.555,0
6.483,26.414,0
6.484,11.033,0
6.485,-3.066,0
6.486,-4.897,0
6.487,-9.841,0
6.488,-11.306,0
6.489,-15.334,0
6.49,-14.235,0
6.491,-8.559,0
6.492,-9.475,0
6.493,-10.39,0
6.494,-6.362,0
6.495,-8.559,0
6.496,-5.263,0
6.497,-4.714,0
6.498,-1.967,0
6.499,1.329,0
6.5,0.047,0
6.501,0.413,0
6.502,-3.066,0
6.503,0.047,0
6.504,-1.967,0
6.505,2.977,0
6.506,2.427,0
6.507,6.822,0
6.508,7.371,0
6.509,6.089,0
6.51,2.977,0
6.511,9.202,0
6.512,13.78,0
6.513,14.512,0
6.514,6.089,0
6.515,2.793,0
6.516,-2.15,0
6.517,-6.728,0
6.518,-7.46,0
6.519,-3.615,0
6.52,-1.784,0
6.521,-3.615,0
6.522,0.23,0
6.523,0.596,0
6.524,-0.686,0
6.525,0.413,0
6.526,-1.418,0
6.527,-0.319,0
6.528,-1.052,0
6.529,0.413,0
6.53,4.625,0
6.531,9.019,0
6.532,17.442,0
6.533,30.992,0
6.534,29.161,0
6.535,14.146,0
6.536,0.047,0
6.537,-5.446,0
6.538,-13.686,0
6.539,-12.221,0
6.54,-16.25,0
6.541,-17.348,0
6.542,-14.052,0
6.543,-9.108,0
6.544,-15.517,0
6.545,-14.785,0
6.546,-12.587,0
6.547,-10.756,0
6.548,-10.207,0
6.549,-5.08,0
6.55,-4.531,0
6.551,-5.08,0
6.552,-3.432,0
6.553,-1.052,0
6.554,0.23,0
6.555,2.244,0
6.556,1.878,0
6.557,5.906,0
6.558,5.54,0
6.559,2.427,0
6.56,2.793,0
6.561,1.695,0
6.562,1.329,0
6.563,0.596,0
6.564,0.413,0
6.565,1.695,0
6.566,0.23,0
6.567,1.695,0
6.568,1.146,0
6.569,-1.235,0
6.57,-1.052,0
6.571,0.23,0
6.572,-1.052,0
6.573,-0.869,0
6.574,1.146,0
6.575,1.878,0
6.576,1.329,0
6.577,1.878,0
6.578,2.061,0
6.579,-0.319,0
6.58,1.329,0
6.581,4.625,0
6.582,10.667,0
6.583,23.118,0
6.584,32.273,0
6.585,27.33,0
6.586,13.78,0
6.587,4.625,0
6.588,-3.615,0
6.589,-14.052,0
6.59,-15.334,0
6.591,-14.235,0
6.592,-17.531,0
6.593,-16.616,0
6.594,-12.038,0
6.595,-9.658,0
6.596,-13.503,0
6.597,-7.277,0
6.598,-6.545,0
6.599,-4.348,0
6.6,-3.798,0
6.601,0.596,0
6.602,0.047,0
6.603,3.343,0
6.604,3.709,0
6.605,1.695,0
6.606,0.596,0
6.607,3.16,0
6.608,5.174,0
6.609,2.61,0
6.61,1.512,0
6.611,4.258,0
6.612,2.427,0
6.613,5.723,0
6.614,1.878,0
6.615,2.244,0
6.616,0.962,0
6.617,0.596,0
6.618,4.808,0
6.619,4.258,0
6.62,2.977,0
6.621,1.695,0
6.622,0.596,0
6.623,-5.08,0
6.624,-4.348,0
6.625,-2.15,0
6.626,-0.319,0
6.627,0.23,0
6.628,1.878,0
6.629,1.512,0
6.63,3.343,0
6.631,-0.869,0
6.632,6.456,0
6.633,1.512,0
6.634,15.428,0
6.635,29.527,0
6.636,27.696,0
6.637,9.385,0
6.638,-7.46,0
6.639,-9.658,0
6.64,-11.672,0
6.641,-13.503,0
6.642,-15.151,0
6.643,-16.616,0
6.644,-20.644,0
6.645,-17.165,0
6.646,-13.869,0
6.647,-12.954,0
6.648,-13.869,0
6.649,-8.193,0
6.65,-8.925,0
6.651,-4.348,0
6.652,-1.235,0
6.653,1.512,0
6.654,-0.869,0
6.655,-0.502,0
6.656,-2.517,0
6.657,0.962,0
6.658,6.089,0
6.659,4.258,0
6.66,2.427,0
6.661,-1.418,0
6.662,0.962,0
6.663,0.596,0
6.664,-2.15,0
6.665,-1.052,0
6.666,-2.883,0
6.667,-3.066,0
6.668,0.596,0
6.669,5.174,0
6.67,4.625,0
6.671,6.272,0
6.672,5.906,0
6.673,6.272,0
6.674,5.174,0
6.675,4.808,0
6.676,0.047,0
6.677,3.16,0
6.678,-3.066,0
6.679,-2.333,0
6.68,-1.601,0
6.681,-0.319,0
6.682,0.23,0
6.683,9.751,0
6.684,8.47,0
6.685,24.583,0
6.686,31.175,0
6.687,37.217,0
6.688,20.738,0
6.689,9.751,0
6.69,-0.319,0
6.691,-9.475,0
6.692,-17.714,0
6.693,-19.179,0
6.694,-20.461,0
6.695,-16.982,0
6.696,-15.883,0
6.697,-14.968,0
6.698,-15.883,0
6.699,-15.151,0
6.7,-11.306,0
6.701,-8.01,0
6.702,-4.897,0
6.703,-4.348,0
6.704,-6.728,0
6.705,-2.517,0
6.706,4.808,0
6.707,1.878,0
6.708,2.793,0
6.709,2.061,0
6.71,-0.136,0
6.711,-0.686,0
6.712,-0.136,0
6.713,1.512,0
6.714,0.23,0
6.715,0.596,0
6.716,-1.418,0
6.717,-1.052,0
6.718,-0.686,0
6.719,3.892,0
6.72,0.596,0
6.721,0.047,0
6.722,1.695,0
6.723,4.075,0
6.724,1.878,0
6.725,2.244,0
6.726,1.878,0
6.727,-1.418,0
6.728,-1.052,0
6.729,3.16,0
6.73,-3.066,0
6.731,-2.333,0
6.732,-1.784,0
6.733,0.413,0
6.734,10.667,0
6.735,3.16,0
6.736,23.667,0
6.737,38.499,0
6.738,25.132,0
6.739,13.047,0
6.74,2.061,0
6.741,-3.981,0
6.742,-9.475,0
6.743,-14.418,0
6.744,-18.813,0
6.745,-17.531,0
6.746,-16.433,0
6.747,-13.137,0
6.748,-14.052,0
6.749,-11.306,0
6.75,-13.686,0
6.751,-11.489,0
6.752,-8.193,0
6.753,-3.798,0
6.754,-2.15,0
6.755,-1.784,0
6.756,-1.418,0
6.757,4.808,0
6.758,15.062,0
6.759,16.343,0
6.76,7.92,0
6.761,2.244,0
6.762,-0.686,0
6.763,-1.601,0
6.764,-2.333,0
6.765,-3.066,0
6.766,-4.897,0
6.767,-1.784,0
6.768,-3.432,0
6.769,2.061,0
6.77,2.793,0
6.771,2.244,0
6.772,-3.432,0
6.773,0.413,0
6.774,-1.418,0
6.775,1.695,0
6.776,0.047,0
6.777,-1.235,0
6.778,3.892,0
6.779,-0.686,0
6.78,-0.136,0
6.781,1.512,0
6.782,4.808,0
6.783,4.075,0
6.784,3.709,0
6.785,9.935,0
6.786,5.357,0
6.787,17.808,0
6.788,34.288,0
6.789,23.301,0
6.79,5.174,0
6.791,-1.967,0
6.792,-8.559,0
6.793,-10.573,0
6.794,-16.066,0
6.795,-14.418,0
6.796,-12.954,0
6.797,-11.672,0
6.798,-10.573,0
6.799,-9.475,0
6.8,-8.559,0
6.801,-7.644,0
6.802,-6.911,0
6.803,-4.714,0
6.804,-1.418,0
6.805,-1.967,0
6.806,-1.418,0
6.807,-1.052,0
6.808,-1.418,0
6.809,-3.432,0
6.81,-2.333,0
6.811,-2.7,0
6.812,1.878,0
6.813,2.427,0
6.814,1.878,0
6.815,2.427,0
6.816,2.061,0
6.817,0.779,0
6.818,2.793,0
6.819,1.695,0
6.82,3.526,0
6.821,4.991,0
6.822,5.723,0
6.823,6.456,0
6.824,5.357,0
6.825,6.456,0
6.826,3.526,0
6.827,-2.7,0
6.828,-5.446,0
6.829,-4.714,0
6.83,-5.446,0
6.831,-2.15,0
6.832,-1.601,0
6.833,-2.15,0
6.834,3.343,0
6.835,0.047,0
6.836,7.005,0
6.837,11.949,0
6.838,25.865,0
6.839,27.879,0
6.84,33.372,0
6.841,35.02,0
6.842,27.513,0
6.843,12.498,0
6.844,-1.601,0
6.845,-10.756,0
6.846,-15.7,0
6.847,-20.095,0
6.848,-21.376,0
6.849,-20.278,0
6.85,-19.179,0
6.851,-22.109,0
6.852,-19.362,0
6.853,-13.686,0
6.854,-14.418,0
6.855,-11.123,0
6.856,-8.01,0
6.857,-4.165,0
6.858,-4.531,0
6.859,-3.249,0
6.86,-2.883,0
6.861,-1.784,0
6.862,2.977,0
6.863,6.089,0
6.864,9.935,0
6.865,4.441,0
6.866,-2.517,0
6.867,-5.263,0
6.868,-5.996,0
6.869,-2.15,0
6.87,2.427,0
6.871,4.258,0
6.872,5.906,0
6.873,4.625,0
6.874,2.427,0
6.875,3.526,0
6.876,4.625,0
6.877,5.723,0
6.878,3.709,0
6.879,3.526,0
6.88,3.343,0
6.881,-0.136,0
6.882,0.23,0
6.883,-2.883,0
6.884,-3.249,0
6.885,-3.249,0
6.886,2.427,0
6.887,8.104,0
6.888,16.526,0
6.889,28.978,0
6.89,30.625,0
6.891,23.118,0
6.892,21.836,0
6.893,10.667,0
6.894,-2.883,0
6.895,-15.7,0
6.896,-14.052,0
6.897,-21.56,0
6.898,-17.531,0
6.899,-16.433,0
6.9,-15.334,0
6.901,-12.404,0
6.902,-11.489,0
6.903,-15.517,0
6.904,-13.32,0
6.905,-8.742,0
6.906,-6.911,0
6.907,-3.066,0
6.908,-2.7,0
6.909,0.413,0
6.91,-4.165,0
6.911,-2.333,0
6.912,-0.686,0
6.913,2.61,0
6.914,-1.601,0
6.915,0.047,0
6.916,1.329,0
6.917,0.047,0
6.918,-1.052,0
6.919,0.047,0
6.92,2.61,0
6.921,1.878,0
6.922,5.54,0
6.923,7.92,0
6.924,4.808,0
6.925,3.709,0
6.926,5.54,0
6.927,3.709,0
6.928,-0.869,0
6.929,0.962,0
6.93,-3.432,0
6.931,-1.784,0
6.932,-1.418,0
6.933,0.779,0
6.934,-4.714,0
6.935,-0.869,0
6.936,0.413,0
6.937,-0.136,0
6.938,9.385,0
6.939,13.414,0
6.94,26.963,0
6.941,36.119,0
6.942,34.471,0
6.943,17.991,0
6.944,2.61,0
6.945,-7.46,0
6.946,-12.954,0
6.947,-21.193,0
6.948,-16.799,0
6.949,-15.517,0
6.95,-14.418,0
6.951,-13.32,0
6.952,-10.39,0
6.953,-9.475,0
6.954,-8.742,0
6.955,-9.475,0
6.956,-10.024,0
6.957,-9.475,0
6.958,-6.728,0
6.959,-4.348,0
6.96,0.779,0
6.961,5.357,0
6.962,2.244,0
6.963,2.793,0
6.964,-1.784,0
6.965,-1.235,0
6.966,-2.883,0
6.967,0.413,0
6.968,0.047,0
6.969,2.061,0
6.97,1.695,0
6.971,5.723,0
6.972,4.441,0
6.973,4.808,0
6.974,5.906,0
6.975,4.075,0
6.976,7.371,0
6.977,7.737,0
6.978,5.174,0
6.979,5.54,0
6.98,8.836,0
6.981,6.639,0
6.982,7.737,0
6.983,2.793,0
6.984,0.962,0
6.985,-0.869,0
6.986,0.779,0
6.987,-1.052,0
6.988,2.244,0
6.989,9.202,0
6.99,18.357,0
6.991,31.907,0
6.992,22.752,0
6.993,4.441,0
6.994,2.061,0
6.995,-8.925,0
6.996,-6.911,0
6.997,-16.066,0
6.998,-14.418,0
6.999,-12.954,0
7,-14.235,0
7.001,-13.137,0
7.002,-14.235,0
7.003,-7.277,0
7.004,4.808,0
7.005,6.456,0
7.006,2.061,0
7.007,-1.967,0
7.008,-5.446,0
7.009,-6.545,0
7.01,-7.46,0
7.011,-10.207,0
7.012,-6.179,0
7.013,-5.446,0
7.014,-8.742,0
7.015,-6.911,0
7.016,-5.263,0
7.017,-3.981,0
7.018,-4.348,0
7.019,-0.502,0
7.02,0.779,0
7.021,5.906,0
7.022,-0.319,0
7.023,5.357,0
7.024,1.512,0
7.025,3.343,0
7.026,1.512,0
7.027,5.357,0
7.028,0.779,0
7.029,-2.333,0
7.03,-1.784,0
7.031,2.793,0
7.032,5.906,0
7.033,-0.319,0
7.034,-1.052,0
7.035,-0.319,0
7.036,-2.15,0
7.037,0.962,0
7.038,1.878,0
7.039,3.526,0
7.04,11.033,0
7.041,16.709,0
7.042,17.625,0
7.043,31.541,0
7.044,37.583,0
7.045,17.442,0
7.046,4.075,0
7.047,-8.01,0
7.048,-10.207,0
7.049,-16.25,0
7.05,-18.081,0
7.051,-16.433,0
7.052,-17.897,0
7.053,-13.869,0
7.054,-10.39,0
7.055,-13.686,0
7.056,-8.742,0
7.057,-7.827,0
7.058,-5.446,0
7.059,-9.292,0
7.06,-5.996,0
7.061,-10.39,0
7.062,-3.066,0
7.063,-0.136,0
7.064,-2.883,0
7.065,-2.15,0
7.066,-4.348,0
7.067,0.23,0
7.068,2.061,0
7.069,5.906,0
7.07,8.287,0
7.071,12.498,0
7.072,17.625,0
7.073,19.456,0
7.074,22.569,0
7.075,24.217,0
7.076,29.71,0
7.077,27.513,0
7.078,22.935,0
7.079,22.386,0
7.08,20.738,0
7.081,15.245,0
7.082,17.442,0
7.083,8.47,0
7.084,-5.08,0
7.085,-14.235,0
7.086,-22.475,0
7.087,-26.87,0
7.088,-39.138,0
7.089,-40.603,0
7.09,-29.067,0
7.091,-9.475,0
7.092,-1.601,0
7.093,-3.981,0
7.094,-14.968,0
7.095,-33.095,0
7.096,-69.533,0
7.097,-106.15,0
7.098,-120.44,0
7.099,-133.25,0
7.1,-144.97,0
7.101,-162.73,0
7.102,-159.62,0
7.103,-156.69,0
7.104,-143.32,0
7.105,-116.59,0
7.106,-77.224,0
7.107,1.512,0
7.108,80.43,0
7.109,111.19,0
7.11,139.21,0
7.111,130.78,0
7.112,123.09,0
7.113,88.121,0
7.114,81.895,0
7.115,76.219,0
7.116,81.346,0
7.117,95.628,0
7.118,117.23,0
7.119,136.83,0
7.12,140.31,0
7.121,149.83,0
7.122,146.9,0
7.123,133.53,0
7.124,131.15,0
7.125,124.56,0
7.126,98.375,0
7.127,73.472,0
7.128,44.175,0
7.129,40.33,0
7.13,36.851,0
7.131,39.964,0
7.132,31.175,0
7.133,17.808,0
7.134,5.723,0
7.135,-0.869,0
7.136,-10.939,0
7.137,-12.771,0
7.138,-11.123,0
7.139,-18.63,0
7.14,-31.081,0
7.141,-32.363,0
7.142,-33.461,0
7.143,-32.363,0
7.144,-17.165,0
7.145,-14.968,0
7.146,-21.01,0
7.147,-41.152,0
7.148,-59.829,0
7.149,-76.674,0
7.15,-83.266,0
7.151,-89.309,0
7.152,-91.14,0
7.153,-82.9,0
7.154,-78.505,0
7.155,-77.224,0
7.156,-66.054,0
7.157,-58.547,0
7.158,-51.772,0
7.159,-50.673,0
7.16,-49.575,0
7.161,-46.645,0
7.162,-42.067,0
7.163,-34.56,0
7.164,-31.63,0
7.165,-30.715,0
7.166,-25.039,0
7.167,-21.193,0
7.168,-13.686,0
7.169,-8.742,0
7.17,-5.996,0
7.171,-0.319,0
7.172,6.639,0
7.173,9.385,0
7.174,5.357,0
7.175,4.625,0
7.176,-1.601,0
7.177,2.427,0
7.178,4.625,0
7.179,5.174,0
7.18,5.723,0
7.181,5.174,0
7.182,1.878,0
7.183,6.089,0
7.184,8.836,0
7.185,11.216,0
7.186,10.85,0
7.187,11.949,0
7.188,13.78,0
7.189,12.681,0
7.19,12.864,0
7.191,13.597,0
7.192,9.935,0
7.193,17.442,0
7.194,11.766,0
7.195,26.963,0
7.196,37.95,0
7.197,23.851,0
7.198,11.033,0
7.199,-0.502,0
7.2,-4.897,0
7.201,-6.179,0
7.202,-7.277,0
7.203,-6.179,0
7.204,-5.263,0
7.205,-0.686,0
7.206,1.695,0
7.207,-3.615,0
7.208,-0.319,0
7.209,-0.869,0
7.21,-1.418,0
7.211,-2.7,0
7.212,-1.418,0
7.213,-3.432,0
7.214,-2.333,0
7.215,3.16,0
7.216,0.962,0
7.217,-3.615,0
7.218,-0.502,0
7.219,0.047,0
7.22,6.639,0
7.221,5.723,0
7.222,6.456,0
7.223,7.188,0
7.224,5.357,0
7.225,3.526,0
7.226,-1.601,0
7.227,0.23,0
7.228,2.061,0
7.229,0.413,0
7.23,2.793,0
7.231,7.005,0
7.232,0.779,0
7.233,3.16,0
7.234,-2.15,0
7.235,-2.7,0
7.236,-0.869,0
7.237,1.878,0
7.238,5.174,0
7.239,5.54,0
7.24,6.639,0
7.241,4.075,0
7.242,1.146,0
7.243,0.047,0
7.244,0.23,0
7.245,-0.502,0
7.246,1.329,0
7.247,0.23,0
7.248,1.329,0
7.249,4.258,0
7.25,8.104,0
7.251,6.822,0
7.252,11.033,0
7.253,12.681,0
7.254,20.188,0
7.255,25.865,0
7.256,30.809,0
7.257,16.893,0
7.258,6.822,0
7.259,-5.996,0
7.26,-14.235,0
7.261,-18.63,0
7.262,-19.912,0
7.263,-21.01,0
7.264,-15.334,0
7.265,-16.25,0
7.266,-17.165,0
7.267,-16.433,0
7.268,-14.235,0
7.269,-12.404,0
7.27,-8.01,0
7.271,-10.756,0
7.272,-5.263,0
7.273,0.047,0
7.274,3.343,0
7.275,0.23,0
7.276,-1.418,0
7.277,-0.136,0
7.278,-2.333,0
7.279,1.512,0
7.28,-0.869,0
7.281,3.343,0
7.282,0.596,0
7.283,-2.7,0
7.284,-3.981,0
7.285,1.512,0
7.286,-0.686,0
7.287,2.61,0
7.288,2.061,0
7.289,5.906,0
7.29,5.54,0
7.291,5.906,0
7.292,4.808,0
7.293,8.47,0
7.294,4.991,0
7.295,11.033,0
7.296,11.766,0
7.297,17.076,0
7.298,20.372,0
7.299,19.822,0
7.3,24.949,0
7.301,29.527,0
7.302,20.005,0
7.303,4.991,0
7.304,-5.08,0
7.305,-14.235,0
7.306,-22.475,0
7.307,-18.081,0
7.308,-16.799,0
7.309,-20.278,0
7.31,-16.982,0
7.311,-14.052,0
7.312,-16.799,0
7.313,-19.179,0
7.314,-13.869,0
7.315,-9.292,0
7.316,-7.46,0
7.317,-6.911,0
7.318,-4.531,0
7.319,-3.249,0
7.32,2.977,0
7.321,2.061,0
7.322,-0.319,0
7.323,3.526,0
7.324,5.357,0
7.325,3.526,0
7.326,5.174,0
7.327,3.892,0
7.328,-0.319,0
7.329,1.329,0
7.33,0.962,0
7.331,4.075,0
7.332,2.977,0
7.333,1.878,0
7.334,-1.418,0
7.335,-0.319,0
7.336,0.779,0
7.337,2.61,0
7.338,2.793,0
7.339,7.005,0
7.34,5.174,0
7.341,5.723,0
7.342,5.357,0
7.343,4.991,0
7.344,7.005,0
7.345,2.427,0
7.346,11.949,0
7.347,13.23,0
7.348,31.724,0
7.349,34.288,0
7.35,31.907,0
7.351,20.921,0
7.352,6.822,0
7.353,-2.333,0
7.354,-10.573,0
7.355,-9.108,0
7.356,-7.827,0
7.357,-13.869,0
7.358,-8.193,0
7.359,-11.123,0
7.36,-10.207,0
7.361,-9.475,0
7.362,-8.742,0
7.363,-8.193,0
7.364,-10.024,0
7.365,-7.277,0
7.366,-7.644,0
7.367,-9.841,0
7.368,-7.827,0
7.369,-2.15,0
7.37,-1.418,0
7.371,-0.686,0
7.372,-0.136,0
7.373,2.977,0
7.374,4.625,0
7.375,2.244,0
7.376,0.962,0
7.377,-1.052,0
7.378,-3.615,0
7.379,-1.784,0
7.38,-1.601,0
7.381,-1.784,0
7.382,-2.517,0
7.383,-1.967,0
7.384,-2.517,0
7.385,-3.432,0
7.386,-0.686,0
7.387,3.526,0
7.388,0.779,0
7.389,5.357,0
7.39,-0.319,0
7.391,1.878,0
7.392,2.427,0
7.393,0.596,0
7.394,-1.052,0
7.395,1.146,0
7.396,-0.136,0
7.397,6.822,0
7.398,11.766,0
7.399,23.851,0
7.4,25.499,0
7.401,26.963,0
7.402,14.695,0
7.403,3.16,0
7.404,-7.277,0
7.405,-8.559,0
7.406,-9.658,0
7.407,-12.954,0
7.408,-12.038,0
7.409,-12.954,0
7.41,-12.221,0
7.411,-14.418,0
7.412,-12.587,0
7.413,-12.038,0
7.414,-13.686,0
7.415,-12.404,0
7.416,-10.207,0
7.417,-7.46,0
7.418,-3.981,0
7.419,-0.869,0
7.42,3.709,0
7.421,1.878,0
7.422,0.23,0
7.423,3.526,0
7.424,4.808,0
7.425,3.709,0
7.426,4.075,0
7.427,0.779,0
7.428,-1.967,0
7.429,1.512,0
7.43,2.793,0
7.431,0.047,0
7.432,1.878,0
7.433,2.244,0
7.434,1.512,0
7.435,-1.601,0
7.436,0.413,0
7.437,2.977,0
7.438,1.146,0
7.439,3.892,0
7.44,5.723,0
7.441,3.16,0
7.442,1.146,0
7.443,-1.967,0
7.444,0.779,0
7.445,4.258,0
7.446,4.808,0
7.447,0.596,0
7.448,6.822,0
7.449,9.202,0
7.45,20.738,0
7.451,32.273,0
7.452,30.809,0
7.453,18.541,0
7.454,3.526,0
7.455,-2.517,0
7.456,-8.01,0
7.457,-12.954,0
7.458,-8.559,0
7.459,-12.587,0
7.46,-13.686,0
7.461,-14.785,0
7.462,-11.855,0
7.463,-12.771,0
7.464,-10.39,0
7.465,-11.123,0
7.466,-10.573,0
7.467,-7.46,0
7.468,-6.911,0
7.469,-5.629,0
7.47,-3.432,0
7.471,0.413,0
7.472,3.709,0
7.473,0.596,0
7.474,4.441,0
7.475,2.061,0
7.476,2.427,0
7.477,0.413,0
7.478,1.512,0
7.479,-2.517,0
7.48,-1.235,0
7.481,-1.601,0
7.482,-1.967,0
7.483,-4.531,0
7.484,-1.967,0
7.485,-1.235,0
7.486,2.427,0
7.487,1.146,0
7.488,1.512,0
7.489,4.258,0
7.49,5.357,0
7.491,4.991,0
7.492,2.977,0
7.493,1.146,0
7.494,4.075,0
7.495,9.751,0
7.496,12.132,0
7.497,8.47,0
7.498,0.047,0
7.499,-1.052,0
7.5,-1.967,0
7.501,2.61,0
7.502,15.062,0
7.503,27.879,0
7.504,29.527,0
7.505,15.977,0
7.506,6.822,0
7.507,-8.193,0
7.508,-10.207,0
7.509,-8.376,0
7.51,-16.616,0
7.511,-18.081,0
7.512,-16.799,0
7.513,-15.7,0
7.514,-14.602,0
7.515,-11.672,0
7.516,-12.587,0
7.517,-11.855,0
7.518,-9.658,0
7.519,-10.207,0
7.52,-4.531,0
7.521,-2.333,0
7.522,2.244,0
7.523,1.695,0
7.524,1.146,0
7.525,-1.235,0
7.526,-1.601,0
7.527,-1.967,0
7.528,-0.869,0
7.529,-0.502,0
7.53,1.512,0
7.531,3.343,0
7.532,0.413,0
7.533,1.512,0
7.534,4.075,0
7.535,-0.502,0
7.536,5.723,0
7.537,9.751,0
7.538,7.554,0
7.539,9.385,0
7.54,7.554,0
7.541,5.906,0
7.542,4.625,0
7.543,0.413,0
7.544,0.962,0
7.545,-1.418,0
7.546,-0.136,0
7.547,0.962,0
7.548,0.413,0
7.549,-0.686,0
7.55,4.808,0
7.551,7.005,0
7.552,15.977,0
7.553,27.146,0
7.554,22.752,0
7.555,13.23,0
7.556,12.132,0
7.557,-0.319,0
7.558,-8.559,0
7.559,-12.954,0
7.56,-16.982,0
7.561,-15.883,0
7.562,-12.587,0
7.563,-13.503,0
7.564,-12.587,0
7.565,-11.855,0
7.566,-11.123,0
7.567,-11.672,0
7.568,-8.559,0
7.569,-8.01,0
7.57,-7.644,0
7.571,-5.446,0
7.572,-1.601,0
7.573,0.779,0
7.574,-0.502,0
7.575,2.244,0
7.576,1.878,0
7.577,-3.615,0
7.578,3.343,0
7.579,-1.235,0
7.58,1.146,0
7.581,-2.7,0
7.582,0.596,0
7.583,1.146,0
7.584,0.596,0
7.585,-0.686,0
7.586,4.441,0
7.587,2.61,0
7.588,3.16,0
7.589,0.413,0
7.59,5.906,0
7.591,14.329,0
7.592,17.625,0
7.593,24.583,0
7.594,30.992,0
7.595,26.963,0
7.596,15.428,0
7.597,0.413,0
7.598,-9.658,0
7.599,-9.108,0
7.6,-14.602,0
7.601,-6.362,0
7.602,-10.756,0
7.603,9.751,0
7.604,24.583,0
7.605,11.216,0
7.606,-0.869,0
7.607,-11.855,0
7.608,-13.869,0
7.609,-15.7,0
7.61,-17.348,0
7.611,-15.883,0
7.612,-14.602,0
7.613,-15.7,0
7.614,-12.404,0
7.615,-9.475,0
7.616,-15.883,0
7.617,-10.207,0
7.618,-6.362,0
7.619,-3.066,0
7.62,-4.897,0
7.621,1.329,0
7.622,7.005,0
7.623,7.737,0
7.624,7.188,0
7.625,4.075,0
7.626,0.23,0
7.627,1.512,0
7.628,7.554,0
7.629,1.878,0
7.63,1.146,0
7.631,-6.362,0
7.632,-1.418,0
7.633,-2.333,0
7.634,0.047,0
7.635,2.244,0
7.636,1.695,0
7.637,1.146,0
7.638,4.991,0
7.639,3.709,0
7.64,9.751,0
7.641,10.484,0
7.642,9.751,0
7.643,3.526,0
7.644,-0.502,0
7.645,-2.7,0
7.646,-0.869,0
7.647,-1.418,0
7.648,-3.066,0
7.649,0.23,0
7.65,-0.319,0
7.651,-3.432,0
7.652,2.793,0
7.653,13.047,0
7.654,19.822,0
7.655,25.865,0
7.656,33.738,0
7.657,28.794,0
7.658,14.878,0
7.659,0.779,0
7.66,-12.038,0
7.661,-16.982,0
7.662,-18.447,0
7.663,-17.165,0
7.664,-16.066,0
7.665,-14.968,0
7.666,-12.038,0
7.667,-11.123,0
7.668,-10.39,0
7.669,-5.08,0
7.67,-8.376,0
7.671,-5.263,0
7.672,-5.813,0
7.673,-4.531,0
7.674,-4.897,0
7.675,-1.052,0
7.676,-4.348,0
7.677,-6.545,0
7.678,-7.644,0
7.679,-1.967,0
7.68,-1.235,0
7.681,-5.08,0
7.682,-0.502,0
7.683,1.329,0
7.684,0.779,0
7.685,-0.502,0
7.686,2.61,0
7.687,1.512,0
7.688,6.456,0
7.689,8.287,0
7.69,6.456,0
7.691,10.301,0
7.692,9.019,0
7.693,3.892,0
7.694,3.343,0
7.695,5.174,0
7.696,6.822,0
7.697,8.104,0
7.698,3.892,0
7.699,2.244,0
7.7,-4.348,0
7.701,-7.644,0
7.702,-6.728,0
7.703,4.075,0
7.704,5.54,0
7.705,17.808,0
7.706,26.048,0
7.707,15.611,0
7.708,14.329,0
7.709,0.779,0
7.71,-4.714,0
7.711,-9.658,0
7.712,-14.052,0
7.713,-12.771,0
7.714,-18.813,0
7.715,-17.714,0
7.716,-16.799,0
7.717,-12.221,0
7.718,-12.954,0
7.719,-12.221,0
7.72,-5.996,0
7.721,-3.615,0
7.722,1.695,0
7.723,3.526,0
7.724,4.075,0
7.725,6.822,0
7.726,4.441,0
7.727,2.244,0
7.728,1.878,0
7.729,2.977,0
7.73,5.54,0
7.731,3.526,0
7.732,0.413,0
7.733,-0.686,0
7.734,-2.517,0
7.735,1.512,0
7.736,1.878,0
7.737,0.596,0
7.738,3.343,0
7.739,4.441,0
7.74,9.202,0
7.741,14.878,0
7.742,11.033,0
7.743,4.808,0
7.744,-2.7,0
7.745,-1.784,0
7.746,-4.531,0
7.747,-8.559,0
7.748,-6.362,0
7.749,-6.911,0
7.75,-6.362,0
7.751,-4.714,0
7.752,-6.911,0
7.753,-1.418,0
7.754,10.118,0
7.755,15.062,0
7.756,28.611,0
7.757,34.104,0
7.758,19.09,0
7.759,4.991,0
7.76,-7.827,0
7.761,-12.771,0
7.762,-11.306,0
7.763,-12.587,0
7.764,-13.686,0
7.765,-14.785,0
7.766,-13.869,0
7.767,-9.292,0
7.768,-11.672,0
7.769,-6.362,0
7.77,-4.531,0
7.771,-2.7,0
7.772,3.526,0
7.773,-0.502,0
7.774,0.23,0
7.775,2.061,0
7.776,2.61,0
7.777,-2.517,0
7.778,-1.967,0
7.779,-1.418,0
7.78,-3.066,0
7.781,0.23,0
7.782,3.343,0
7.783,-0.502,0
7.784,0.779,0
7.785,3.892,0
7.786,-0.686,0
7.787,-7.644,0
7.788,-3.066,0
7.789,2.61,0
7.79,0.413,0
7.791,0.962,0
7.792,7.92,0
7.793,5.174,0
7.794,4.441,0
7.795,6.639,0
7.796,4.808,0
7.797,0.413,0
7.798,0.962,0
7.799,1.329,0
7.8,-3.798,0
7.801,-1.967,0
7.802,-0.136,0
7.803,0.413,0
7.804,-2.333,0
7.805,5.174,0
7.806,13.047,0
7.807,26.231,0
7.808,39.048,0
7.809,30.809,0
7.81,17.259,0
7.811,0.779,0
7.812,-5.813,0
7.813,-3.798,0
7.814,-9.292,0
7.815,-7.644,0
7.816,-9.108,0
7.817,-5.08,0
7.818,-6.179,0
7.819,-0.502,0
7.82,2.427,0
7.821,10.85,0
7.822,16.526,0
7.823,21.47,0
7.824,15.062,0
7.825,12.681,0
7.826,11.949,0
7.827,13.78,0
7.828,13.23,0
7.829,4.808,0
7.83,-11.306,0
7.831,-17.897,0
7.832,-27.968,0
7.833,-29.799,0
7.834,-38.039,0
7.835,-42.434,0
7.836,-35.659,0
7.837,-27.236,0
7.838,-21.56,0
7.839,-26.503,0
7.84,-38.588,0
7.841,-56.899,0
7.842,-73.745,0
7.843,-84.731,0
7.844,-98.83,0
7.845,-111.65,0
7.846,-119.89,0
7.847,-127.39,0
7.848,-134.17,0
7.849,-128.13,0
7.85,-131.42,0
7.851,-116.22,0
7.852,-83.083,0
7.853,-11.489,0
7.854,97.825,0
7.855,128.59,0
7.856,156.6,0
7.857,148.18,0
7.858,140.49,0
7.859,133.53,0
7.86,101.85,0
7.861,84.642,0
7.862,58.458,0
7.863,63.218,0
7.864,67.43,0
7.865,94.896,0
7.866,98.375,0
7.867,107.9,0
7.868,104.97,0
7.869,102.4,0
7.87,100.02,0
7.871,106.61,0
7.872,100.57,0
7.873,84.092,0
7.874,59.739,0
7.875,37.217,0
7.876,34.288,0
7.877,36.851,0
7.878,39.231,0
7.879,32.64,0
7.88,18.541,0
7.881,13.047,0
7.882,-1.967,0
7.883,-12.038,0
7.884,-13.869,0
7.885,-15.517,0
7.886,-23.024,0
7.887,-29.799,0
7.888,-33.278,0
7.889,-34.377,0
7.89,-33.461,0
7.891,-36.208,0
7.892,-41.884,0
7.893,-50.307,0
7.894,-47.011,0
7.895,-56.167,0
7.896,-55.068,0
7.897,-62.941,0
7.898,-67.885,0
7.899,-72.463,0
7.9,-70.083,0
7.901,-69.35,0
7.902,-64.772,0
7.903,-55.251,0
7.904,-42.983,0
7.905,-41.335,0
7.906,-42.983,0
7.907,-32.546,0
7.908,-25.771,0
7.909,-14.602,0
7.91,-4.165,0
7.911,10.85,0
7.912,12.864,0
7.913,-3.615,0
7.914,-14.602,0
7.915,-20.644,0
7.916,-22.475,0
7.917,-27.419,0
7.918,-25.954,0
7.919,-21.926,0
7.92,-18.447,0
7.921,-15.151,0
7.922,-10.207,0
7.923,-7.46,0
7.924,-5.08,0
7.925,-1.235,0
7.926,-0.686,0
7.927,-2.517,0
7.928,-0.869,0
7.929,1.512,0
7.93,3.709,0
7.931,7.554,0
7.932,7.92,0
7.933,7.554,0
7.934,10.301,0
7.935,6.089,0
7.936,12.315,0
7.937,9.935,0
7.938,12.132,0
7.939,13.963,0
7.94,12.132,0
7.941,11.583,0
7.942,11.949,0
7.943,13.23,0
7.944,9.385,0
7.945,8.104,0
7.946,3.892,0
7.947,5.54,0
7.948,7.92,0
7.949,5.723,0
7.95,5.357,0
7.951,3.526,0
7.952,3.16,0
7.953,6.456,0
7.954,6.822,0
7.955,8.836,0
7.956,7.005,0
7.957,7.371,0
7.958,12.864,0
7.959,19.822,0
7.96,15.245,0
7.961,27.696,0
7.962,36.851,0
7.963,25.315,0
7.964,11.766,0
7.965,2.61,0
7.966,-8.925,0
7.967,-13.32,0
7.968,-17.348,0
7.969,-18.447,0
7.97,-17.348,0
7.971,-14.418,0
7.972,-9.841,0
7.973,-7.46,0
7.974,-9.658,0
7.975,-7.827,0
7.976,-10.939,0
7.977,-5.813,0
7.978,-5.263,0
7.979,-4.714,0
7.98,-5.263,0
7.981,-0.686,0
7.982,-2.517,0
7.983,0.23,0
7.984,3.526,0
7.985,2.244,0
7.986,8.47,0
7.987,22.386,0
7.988,12.315,0
7.989,10.484,0
7.99,2.244,0
7.991,0.779,0
7.992,2.061,0
7.993,-1.418,0
7.994,-2.517,0
7.995,-3.432,0
7.996,-6.179,0
7.997,-5.446,0
7.998,-1.601,0
7.999,0.23,0
8,-1.601,0
8.001,0.047,0
8.002,2.427,0
8.003,4.625,0
8.004,6.639,0
8.005,2.427,0
8.006,0.779,0
8.007,-2.517,0
8.008,-5.813,0
8.009,1.146,0
8.01,16.343,0
8.011,27.33,0
8.012,37.4,0
8.013,20.921,0
8.014,5.54,0
8.015,-0.502,0
8.016,-5.996,0
8.017,-10.939,0
8.018,-9.475,0
8.019,-8.193,0
8.02,-11.672,0
8.021,-14.968,0
8.022,-12.038,0
8.023,-7.46,0
8.024,-11.489,0
8.025,-7.644,0
8.026,-10.939,0
8.027,-3.981,0
8.028,-8.559,0
8.029,-6.179,0
8.03,-8.376,0
8.031,-7.827,0
8.032,-4.714,0
8.033,-4.165,0
8.034,-2.883,0
8.035,0.23,0
8.036,2.244,0
8.037,-1.967,0
8.038,-2.517,0
8.039,4.075,0
8.04,4.991,0
8.041,4.258,0
8.042,4.991,0
8.043,3.16,0
8.044,0.047,0
8.045,-0.502,0
8.046,-1.784,0
8.047,-0.502,0
8.048,2.244,0
8.049,2.61,0
8.05,-2.883,0
8.051,-2.15,0
8.052,-1.601,0
8.053,-1.052,0
8.054,-2.7,0
8.055,-1.418,0
8.056,0.779,0
8.057,1.878,0
8.058,3.343,0
8.059,5.174,0
8.06,9.935,0
8.061,10.484,0
8.062,18.907,0
8.063,24.949,0
8.064,32.823,0
8.065,29.893,0
8.066,15.977,0
8.067,-2.15,0
8.068,-9.292,0
8.069,-15.883,0
8.07,-17.897,0
8.071,-19.729,0
8.072,-18.081,0
8.073,-16.616,0
8.074,-15.334,0
8.075,-16.433,0
8.076,-15.334,0
8.077,-12.404,0
8.078,-7.827,0
8.079,-7.094,0
8.08,-6.362,0
8.081,-5.813,0
8.082,-5.263,0
8.083,-1.418,0
8.084,-0.136,0
8.085,1.146,0
8.086,-1.601,0
8.087,-2.7,0
8.088,2.061,0
8.089,0.23,0
8.09,4.075,0
8.091,4.441,0
8.092,8.653,0
8.093,7.005,0
8.094,7.371,0
8.095,9.568,0
8.096,6.822,0
8.097,5.723,0
8.098,6.822,0
8.099,4.075,0
8.1,6.639,0
8.101,4.075,0
8.102,4.258,0
8.103,1.146,0
8.104,4.991,0
8.105,2.61,0
8.106,1.329,0
8.107,2.427,0
8.108,5.906,0
8.109,4.808,0
8.11,4.441,0
8.111,10.667,0
8.112,7.92,0
8.113,15.428,0
8.114,22.386,0
8.115,12.132,0
8.116,10.85,0
8.117,4.808,0
8.118,-7.644,0
8.119,-15.883,0
8.12,-17.348,0
8.121,-16.066,0
8.122,-19.545,0
8.123,-18.447,0
8.124,-17.531,0
8.125,-14.785,0
8.126,-10.756,0
8.127,-10.024,0
8.128,-13.32,0
8.129,-10.207,0
8.13,-8.559,0
8.131,-10.939,0
8.132,-8.742,0
8.133,-5.996,0
8.134,-4.165,0
8.135,-0.136,0
8.136,-1.418,0
8.137,1.695,0
8.138,-0.319,0
8.139,0.779,0
8.14,-1.052,0
8.141,1.695,0
8.142,6.639,0
8.143,4.808,0
8.144,5.357,0
8.145,3.709,0
8.146,4.991,0
8.147,2.793,0
8.148,2.427,0
8.149,3.526,0
8.15,2.427,0
8.151,-0.319,0
8.152,-3.798,0
8.153,-4.165,0
8.154,-3.066,0
8.155,1.878,0
8.156,2.427,0
8.157,2.977,0
8.158,4.625,0
8.159,0.047,0
8.16,1.878,0
8.161,0.047,0
8.162,8.47,0
8.163,14.512,0
8.164,29.344,0
8.165,27.33,0
8.166,32.823,0
8.167,17.808,0
8.168,3.709,0
8.169,-5.446,0
8.17,-10.39,0
8.171,-14.785,0
8.172,-13.503,0
8.173,-14.602,0
8.174,-13.503,0
8.175,-10.573,0
8.176,-15.151,0
8.177,-14.418,0
8.178,-13.686,0
8.179,-13.137,0
8.18,-10.024,0
8.181,-7.277,0
8.182,-8.559,0
8.183,-3.432,0
8.184,-1.601,0
8.185,-2.15,0
8.186,-2.7,0
8.187,-1.418,0
8.188,-3.615,0
8.189,-0.869,0
8.19,3.343,0
8.191,4.991,0
8.192,3.709,0
8.193,-2.333,0
8.194,0.047,0
8.195,2.244,0
8.196,0.413,0
8.197,0.962,0
8.198,2.61,0
8.199,3.892,0
8.2,3.526,0
8.201,1.512,0
