0,-5.714,0
0.001,-3.334,0
0.002,3.624,0
0.003,12.779,0
0.004,31.273,0
0.005,71.556,0
0.006,54.344,0
0.007,17.723,0
0.008,-6.081,0
0.009,-27.687,0
0.01,-31.532,0
0.011,-42.152,0
0.012,-39.04,0
0.013,-36.11,0
0.014,-38.673,0
0.015,-31.532,0
0.016,-29.335,0
0.017,-19.264,0
0.018,-21.095,0
0.019,-16.151,0
0.02,-17.616,0
0.021,-13.588,0
0.022,-17.067,0
0.023,-11.391,0
0.024,-8.461,0
0.025,-5.714,0
0.026,-4.982,0
0.027,-4.25,0
0.028,-4.799,0
0.029,-0.404,0
0.03,-0.954,0
0.031,1.427,0
0.032,2.708,0
0.033,3.075,0
0.034,4.173,0
0.035,3.807,0
0.036,-0.771,0
0.037,-1.32,0
0.038,0.511,0
0.039,2.159,0
0.04,-2.418,0
0.041,1.976,0
0.042,-0.771,0
0.043,-1.137,0
0.044,-2.418,0
0.045,-6.264,0
0.046,-5.897,0
0.047,-3.7,0
0.048,-1.686,0
0.049,-2.785,0
0.05,1.976,0
0.051,4.54,0
0.052,3.99,0
0.053,12.413,0
0.054,25.963,0
0.055,46.104,0
0.056,59.471,0
0.057,81.444,0
0.058,54.71,0
0.059,22.484,0
0.06,-7.729,0
0.061,-27.321,0
0.062,-37.941,0
0.063,-47.462,0
0.064,-44.533,0
0.065,-47.096,0
0.066,-44.716,0
0.067,-38.124,0
0.068,-36.11,0
0.069,-30.617,0
0.07,-32.265,0
0.071,-30.8,0
0.072,-26.771,0
0.073,-23.292,0
0.074,-15.419,0
0.075,-0.221,0
0.076,19.737,0
0.077,-4.433,0
0.078,-13.954,0
0.079,-16.884,0
0.08,-19.447,0
0.081,-12.306,0
0.082,-14.503,0
0.083,-12.489,0
0.084,-10.658,0
0.085,-9.01,0
0.086,-10.475,0
0.087,-9.193,0
0.088,-8.095,0
0.089,-6.996,0
0.09,-4.066,0
0.091,-1.32,0
0.092,-0.587,0
0.093,1.61,0
0.094,2.159,0
0.095,-0.954,0
0.096,-0.404,0
0.097,1.976,0
0.098,-1.137,0
0.099,0.877,0
0.1,-1.686,0
0.101,3.075,0
0.102,3.807,0
0.103,1.976,0
0.104,10.399,0
0.105,28.893,0
0.106,69.176,0
0.107,74.852,0
0.108,38.231,0
0.109,4.906,0
0.11,-7.912,0
0.111,-27.504,0
0.112,-30.983,0
0.113,-34.096,0
0.114,-31.166,0
0.115,-33.729,0
0.116,-36.11,0
0.117,-29.518,0
0.118,-23.476,0
0.119,-21.645,0
0.12,-23.292,0
0.121,-21.828,0
0.122,-15.053,0
0.123,-16.151,0
0.124,-12.855,0
0.125,-9.926,0
0.126,-7.179,0
0.127,-7.912,0
0.128,-8.644,0
0.129,-2.418,0
0.13,1.61,0
0.131,2.342,0
0.132,-0.954,0
0.133,3.441,0
0.134,7.286,0
0.135,3.99,0
0.136,-0.221,0
0.137,1.427,0
0.138,-3.151,0
0.139,-1.32,0
0.14,-1.869,0
0.141,2.708,0
0.142,0.877,0
0.143,2.525,0
0.144,-2.968,0
0.145,-3.7,0
0.146,-5.531,0
0.147,-3.7,0
0.148,-3.151,0
0.149,-3.517,0
0.15,-0.404,0
0.151,-3.151,0
0.152,-4.982,0
0.153,-4.25,0
0.154,-1.686,0
0.155,1.61,0
0.156,8.568,0
0.157,23.766,0
0.158,48.119,0
0.159,64.232,0
0.16,67.162,0
0.161,42.992,0
0.162,-5.714,0
0.163,-26.588,0
0.164,-45.448,0
0.165,-51.125,0
0.166,-56.251,0
0.167,-51.491,0
0.168,-47.279,0
0.169,-51.125,0
0.17,-40.504,0
0.171,-43.617,0
0.172,-34.828,0
0.173,-32.265,0
0.174,-29.884,0
0.175,-23.292,0
0.176,-21.278,0
0.177,-12.123,0
0.178,-13.771,0
0.179,-9.376,0
0.18,-8.095,0
0.181,-4.616,0
0.182,1.061,0
0.183,0.145,0
0.184,6.554,0
0.185,5.821,0
0.186,0.511,0
0.187,5.089,0
0.188,1.976,0
0.189,1.427,0
0.19,0.145,0
0.191,7.103,0
0.192,6.188,0
0.193,3.441,0
0.194,1.061,0
0.195,0.328,0
0.196,0.877,0
0.197,2.708,0
0.198,4.356,0
0.199,1.976,0
0.2,5.089,0
0.201,4.723,0
0.202,3.624,0
0.203,1.793,0
0.204,-2.785,0
0.205,-3.517,0
0.206,0.694,0
0.207,10.216,0
0.208,30.724,0
0.209,57.457,0
0.21,82.359,0
0.211,53.063,0
0.212,17.54,0
0.213,-15.785,0
0.214,-28.603,0
0.215,-48.195,0
0.216,-44.716,0
0.217,-47.829,0
0.218,-44.899,0
0.219,-47.462,0
0.22,-40.321,0
0.221,-38.124,0
0.222,-32.082,0
0.223,-26.588,0
0.224,-21.645,0
0.225,-26.039,0
0.226,-19.264,0
0.227,-13.222,0
0.228,-9.926,0
0.229,-10.841,0
0.23,-6.264,0
0.231,-3.883,0
0.232,-0.038,0
0.233,0.511,0
0.234,1.061,0
0.235,0.511,0
0.236,1.793,0
0.237,3.075,0
0.238,-0.771,0
0.239,-3.151,0
0.24,-0.038,0
0.241,1.061,0
0.242,2.892,0
0.243,5.455,0
0.244,0.877,0
0.245,0.328,0
0.246,2.159,0
0.247,3.807,0
0.248,4.173,0
0.249,5.455,0
0.25,5.821,0
0.251,6.188,0
0.252,2.892,0
0.253,-0.954,0
0.254,-2.235,0
0.255,-2.785,0
0.256,-0.587,0
0.257,3.99,0
0.258,13.512,0
0.259,34.02,0
0.26,72.655,0
0.261,57.091,0
0.262,33.287,0
0.263,-5.714,0
0.264,-21.278,0
0.265,-45.082,0
0.266,-40.871,0
0.267,-44.716,0
0.268,-41.237,0
0.269,-38.124,0
0.27,-41.054,0
0.271,-33.18,0
0.272,-30.8,0
0.273,-28.603,0
0.274,-26.588,0
0.275,-17.433,0
0.276,-19.081,0
0.277,-14.687,0
0.278,-15.968,0
0.279,-9.926,0
0.28,-6.63,0
0.281,-3.7,0
0.282,-0.954,0
0.283,-4.982,0
0.284,-5.714,0
0.285,-1.137,0
0.286,0.694,0
0.287,1.244,0
0.288,-2.052,0
0.289,-0.771,0
0.29,-2.785,0
0.291,2.159,0
0.292,0.328,0
0.293,-0.221,0
0.294,-0.771,0
0.295,-3.151,0
0.296,1.061,0
0.297,2.708,0
0.298,3.99,0
0.299,4.356,0
0.3,-0.221,0
0.301,2.892,0
0.302,2.342,0
0.303,-2.235,0
0.304,-2.785,0
0.305,-3.334,0
0.306,-2.785,0
0.307,-6.081,0
0.308,0.877,0
0.309,16.075,0
0.31,49.217,0
0.311,73.021,0
0.312,68.81,0
0.313,33.287,0
0.314,-0.038,0
0.315,-21.645,0
0.316,-33.363,0
0.317,-36.842,0
0.318,-39.955,0
0.319,-42.885,0
0.32,-29.518,0
0.321,-17.433,0
0.322,-6.447,0
0.323,-24.574,0
0.324,-26.955,0
0.325,-33.546,0
0.326,-31.532,0
0.327,-33.363,0
0.328,-31.715,0
0.329,-30.25,0
0.33,-23.476,0
0.331,-19.997,0
0.332,-16.701,0
0.333,-15.785,0
0.334,-11.208,0
0.335,-7.179,0
0.336,-3.334,0
0.337,-3.883,0
0.338,-4.433,0
0.339,0.694,0
0.34,-1.137,0
0.341,1.976,0
0.342,-0.771,0
0.343,0.511,0
0.344,0.145,0
0.345,4.723,0
0.346,2.892,0
0.347,3.441,0
0.348,2.159,0
0.349,2.525,0
0.35,2.159,0
0.351,7.103,0
0.352,-0.404,0
0.353,0.511,0
0.354,5.089,0
0.355,-0.587,0
0.356,0.145,0
0.357,-0.587,0
0.358,-0.038,0
0.359,9.483,0
0.36,29.991,0
0.361,62.584,0
0.362,75.401,0
0.363,39.879,0
0.364,6.554,0
0.365,-15.053,0
0.366,-26.771,0
0.367,-30.25,0
0.368,-33.363,0
0.369,-36.293,0
0.37,-38.856,0
0.371,-36.476,0
0.372,-34.279,0
0.373,-32.265,0
0.374,-23.109,0
0.375,-21.461,0
0.376,-17.067,0
0.377,-15.785,0
0.378,-12.306,0
0.379,-11.208,0
0.38,-10.292,0
0.381,-7.545,0
0.382,-5.165,0
0.383,-4.433,0
0.384,-2.602,0
0.385,0.511,0
0.386,-1.137,0
0.387,-2.418,0
0.388,-0.221,0
0.389,-0.587,0
0.39,-1.686,0
0.391,-1.32,0
0.392,0.145,0
0.393,-0.587,0
0.394,-1.32,0
0.395,-1.137,0
0.396,-2.602,0
0.397,0.328,0
0.398,-0.038,0
0.399,0.328,0
0.4,-4.433,0
0.401,-0.038,0
0.402,-3.883,0
0.403,-4.25,0
0.404,-3.883,0
0.405,-4.982,0
0.406,-2.418,0
0.407,-4.25,0
0.408,-3.517,0
0.409,-2.785,0
0.41,1.427,0
0.411,10.948,0
0.412,31.456,0
0.413,64.049,0
0.414,51.231,0
0.415,23.766,0
0.416,-8.461,0
0.417,-30.067,0
0.418,-33.913,0
0.419,-44.533,0
0.42,-41.42,0
0.421,-44.35,0
0.422,-41.786,0
0.423,-39.406,0
0.424,-32.814,0
0.425,-26.771,0
0.426,-24.94,0
0.427,-23.292,0
0.428,-24.757,0
0.429,-20.729,0
0.43,-14.687,0
0.431,-11.391,0
0.432,-8.461,0
0.433,-5.714,0
0.434,-4.982,0
0.435,-2.785,0
0.436,-0.954,0
0.437,-1.503,0
0.438,1.244,0
0.439,2.525,0
0.44,1.244,0
0.441,0.877,0
0.442,-1.686,0
0.443,3.807,0
0.444,-1.503,0
0.445,-2.052,0
0.446,-1.503,0
0.447,1.244,0
0.448,1.61,0
0.449,0.328,0
0.45,3.075,0
0.451,4.906,0
0.452,4.54,0
0.453,1.793,0
0.454,-1.686,0
0.455,-6.813,0
0.456,-6.264,0
0.457,-1.869,0
0.458,-0.221,0
0.459,1.61,0
0.46,-1.686,0
0.461,5.272,0
0.462,20.47,0
0.463,49.217,0
0.464,68.81,0
0.465,58.189,0
0.466,22.484,0
0.467,-10.841,0
0.468,-23.659,0
0.469,-35.377,0
0.47,-38.856,0
0.471,-35.744,0
0.472,-38.673,0
0.473,-41.237,0
0.474,-38.856,0
0.475,-36.659,0
0.476,-34.645,0
0.477,-25.49,0
0.478,-23.842,0
0.479,-22.377,0
0.48,-18.349,0
0.481,-12.306,0
0.482,-11.208,0
0.483,-6.264,0
0.484,-3.517,0
0.485,-1.137,0
0.486,-1.869,0
0.487,1.427,0
0.488,0.877,0
0.489,2.525,0
0.49,0.145,0
0.491,3.258,0
0.492,0.511,0
0.493,1.61,0
0.494,3.441,0
0.495,-0.587,0
0.496,-1.137,0
0.497,-4.433,0
0.498,-4.799,0
0.499,-0.954,0
0.5,-3.334,0
0.501,-1.137,0
0.502,-1.503,0
0.503,0.328,0
0.504,-0.038,0
0.505,1.427,0
0.506,3.258,0
0.507,4.54,0
0.508,1.061,0
0.509,-0.221,0
0.51,3.075,0
0.511,1.793,0
0.512,8.019,0
0.513,21.935,0
0.514,52.147,0
0.515,82.359,0
0.516,78.514,0
0.517,39.146,0
0.518,54.71,0
0.519,49.95,0
0.52,19.737,0
0.521,-31.532,0
0.522,-52.406,0
0.523,-71.266,0
0.524,-65.59,0
0.525,-70.717,0
0.526,-65.956,0
0.527,-61.745,0
0.528,-65.59,0
0.529,-54.97,0
0.53,-51.857,0
0.531,-43.068,0
0.532,-35.194,0
0.533,-28.053,0
0.534,-25.856,0
0.535,-15.785,0
0.536,-13.954,0
0.537,-12.306,0
0.538,-7.912,0
0.539,-3.883,0
0.54,2.159,0
0.541,5.455,0
0.542,10.399,0
0.543,7.652,0
0.544,5.272,0
0.545,7.469,0
0.546,9.3,0
0.547,9.85,0
0.548,10.399,0
0.549,11.681,0
0.55,7.469,0
0.551,12.596,0
0.552,8.019,0
0.553,4.906,0
0.554,3.258,0
0.555,2.892,0
0.556,-0.221,0
0.557,2.525,0
0.558,0.694,0
0.559,0.328,0
0.56,-0.404,0
0.561,1.61,0
0.562,0.877,0
0.563,0.145,0
0.564,-1.32,0
0.565,-1.137,0
0.566,1.793,0
0.567,8.019,0
0.568,21.935,0
0.569,19.92,0
0.57,21.751,0
0.571,40.062,0
0.572,47.203,0
0.573,62.584,0
0.574,36.4,0
0.575,11.498,0
0.576,-30.8,0
0.577,-48.012,0
0.578,-63.576,0
0.579,-68.336,0
0.58,-55.519,0
0.581,-59.364,0
0.582,-48.744,0
0.583,-45.631,0
0.584,-36.842,0
0.585,-39.406,0
0.586,-32.265,0
0.587,-30.067,0
0.588,-24.025,0
0.589,-18.532,0
0.59,-13.588,0
0.591,-12.123,0
0.592,-8.095,0
0.593,-6.996,0
0.594,-5.897,0
0.595,-4.982,0
0.596,1.427,0
0.597,7.103,0
0.598,1.793,0
0.599,6.371,0
0.6,5.821,0
0.601,7.469,0
0.602,7.835,0
0.603,2.708,0
0.604,4.54,0
0.605,2.708,0
0.606,3.258,0
0.607,2.892,0
0.608,1.61,0
0.609,4.356,0
0.61,3.99,0
0.611,2.159,0
0.612,1.61,0
0.613,3.624,0
0.614,7.835,0
0.615,17.357,0
0.616,37.865,0
0.617,82.359,0
0.618,63.5,0
0.619,23.216,0
0.62,-13.405,0
0.621,-27.687,0
0.622,-40.504,0
0.623,-44.35,0
0.624,-40.871,0
0.625,-43.983,0
0.626,-41.054,0
0.627,-38.49,0
0.628,-40.871,0
0.629,-29.884,0
0.63,-27.87,0
0.631,-22.377,0
0.632,-10.841,0
0.633,-3.334,0
0.634,3.441,0
0.635,9.483,0
0.636,12.779,0
0.637,13.695,0
0.638,20.104,0
0.639,22.484,0
0.64,24.681,0
0.641,20.104,0
0.642,16.991,0
0.643,14.244,0
0.644,10.948,0
0.645,3.99,0
0.646,-11.208,0
0.647,-26.588,0
0.648,-32.631,0
0.649,-38.124,0
0.65,-43.068,0
0.651,-38.673,0
0.652,-34.645,0
0.653,-26.222,0
0.654,-22.926,0
0.655,-38.124,0
0.656,-58.083,0
0.657,-71.449,0
0.658,-103.13,0
0.659,-133.34,0
0.66,-137.18,0
0.661,-140.66,0
0.662,-163.19,0
0.663,-166.85,0
0.664,-158.06,0
0.665,-128.58,0
0.666,-85.182,0
0.667,-44.899,0
0.668,12.779,0
0.669,66.612,0
0.67,101.58,0
0.671,120.44,0
0.672,126.12,0
0.673,121,0
0.674,106.71,0
0.675,93.895,0
0.676,90.05,0
0.677,93.529,0
0.678,109.64,0
0.679,124.47,0
0.68,137.84,0
0.681,154.69,0
0.682,161.28,0
0.683,167.32,0
0.684,161.83,0
0.685,140.22,0
0.686,125.39,0
0.687,112.02,0
0.688,85.289,0
0.689,60.387,0
0.69,44.273,0
0.691,29.442,0
0.692,26.878,0
0.693,19.737,0
0.694,8.751,0
0.695,-9.376,0
0.696,-16.518,0
0.697,-27.504,0
0.698,-37.575,0
0.699,-39.406,0
0.7,-37.758,0
0.701,-48.195,0
0.702,-57.716,0
0.703,-66.139,0
0.704,-65.041,0
0.705,-67.97,0
0.706,-68.886,0
0.707,-71.266,0
0.708,-70.534,0
0.709,-71.083,0
0.71,-76.759,0
0.711,-78.957,0
0.712,-80.788,0
0.713,-76.393,0
0.714,-74.562,0
0.715,-70.717,0
0.716,-63.209,0
0.717,-46.181,0
0.718,-9.743,0
0.719,5.821,0
0.72,10.582,0
0.721,-11.024,0
0.722,-38.49,0
0.723,-63.393,0
0.724,-66.505,0
0.725,-63.576,0
0.726,-61.012,0
0.727,-63.393,0
0.728,-61.195,0
0.729,-55.153,0
0.73,-49.66,0
0.731,-38.124,0
0.732,-30.617,0
0.733,-23.842,0
0.734,-20.363,0
0.735,-19.264,0
0.736,-12.306,0
0.737,-13.222,0
0.738,-4.066,0
0.739,-2.968,0
0.74,2.708,0
0.741,7.652,0
0.742,10.399,0
0.743,11.131,0
0.744,11.864,0
0.745,10.033,0
0.746,10.582,0
0.747,8.934,0
0.748,12.23,0
0.749,13.512,0
0.75,10.765,0
0.751,11.864,0
0.752,12.23,0
0.753,8.934,0
0.754,8.568,0
0.755,5.821,0
0.756,4.723,0
0.757,1.427,0
0.758,1.061,0
0.759,0.694,0
0.76,3.99,0
0.761,3.624,0
0.762,-0.587,0
0.763,2.159,0
0.764,2.525,0
0.765,6.004,0
0.766,6.371,0
0.767,12.596,0
0.768,26.512,0
0.769,56.725,0
0.77,95.726,0
0.771,69.542,0
0.772,36.217,0
0.773,-2.785,0
0.774,-18.349,0
0.775,-23.109,0
0.776,-35.927,0
0.777,-39.772,0
0.778,-36.293,0
0.779,-39.406,0
0.78,-36.476,0
0.781,-39.04,0
0.782,-31.898,0
0.783,-29.701,0
0.784,-15.602,0
0.785,-13.771,0
0.786,-8.827,0
0.787,-7.362,0
0.788,-11.391,0
0.789,-10.292,0
0.79,-4.616,0
0.791,-5.531,0
0.792,0.877,0
0.793,-3.151,0
0.794,0.694,0
0.795,-2.602,0
0.796,-2.052,0
0.797,-1.503,0
0.798,0.877,0
0.799,1.244,0
0.8,1.61,0
0.801,-0.221,0
0.802,4.54,0
0.803,0.145,0
0.804,-1.503,0
0.805,0.877,0
0.806,1.244,0
0.807,3.99,0
0.808,2.892,0
0.809,5.455,0
0.81,5.272,0
0.811,9.483,0
0.812,19.005,0
0.813,39.513,0
0.814,18.822,0
0.815,5.455,0
0.816,-3.517,0
0.817,-5.897,0
0.818,-3.7,0
0.819,10.399,0
0.82,34.203,0
0.821,63.5,0
0.822,59.654,0
0.823,49.034,0
0.824,32.921,0
0.825,35.851,0
0.826,33.287,0
0.827,35.667,0
0.828,2.525,0
0.829,-11.757,0
0.83,-15.968,0
0.831,-27.687,0
0.832,-24.208,0
0.833,-21.095,0
0.834,-24.025,0
0.835,-26.588,0
0.836,-24.208,0
0.837,-8.827,0
0.838,-35.011,0
0.839,-59.914,0
0.84,-89.21,0
0.841,-100.93,0
0.842,-104.41,0
0.843,-101.3,0
0.844,-92.506,0
0.845,-84.633,0
0.846,-72.548,0
0.847,-61.562,0
0.848,-43.434,0
0.849,-36.293,0
0.85,-29.701,0
0.851,-23.659,0
0.852,-10.841,0
0.853,-5.897,0
0.854,-1.503,0
0.855,8.019,0
0.856,16.441,0
0.857,22.118,0
0.858,23.033,0
0.859,23.949,0
0.86,26.329,0
0.861,27.062,0
0.862,26.512,0
0.863,24.681,0
0.864,26.329,0
0.865,23.033,0
0.866,21.751,0
0.867,19.92,0
0.868,18.822,0
0.869,24.498,0
0.87,36.949,0
0.871,64.415,0
0.872,84.007,0
0.873,80.528,0
0.874,38.231,0
0.875,-2.052,0
0.876,-17.616,0
0.877,-31.898,0
0.878,-36.11,0
0.879,-32.265,0
0.88,-42.885,0
0.881,-33.363,0
0.882,-30.434,0
0.883,-27.87,0
0.884,-20.729,0
0.885,-18.532,0
0.886,-12.489,0
0.887,-10.658,0
0.888,-9.01,0
0.889,-7.545,0
0.89,-8.827,0
0.891,-5.348,0
0.892,-4.25,0
0.893,-3.334,0
0.894,-2.418,0
0.895,-1.686,0
0.896,-0.954,0
0.897,-0.404,0
0.898,0.145,0
0.899,0.694,0
0.9,-1.686,0
0.901,-2.968,0
0.902,-2.602,0
0.903,-4.433,0
0.904,-1.869,0
0.905,0.145,0
0.906,-2.968,0
0.907,-3.334,0
0.908,0.145,0
0.909,-0.221,0
0.91,1.793,0
0.911,-0.771,0
0.912,0.328,0
0.913,0.145,0
0.914,-1.137,0
0.915,2.892,0
0.916,3.441,0
0.917,1.061,0
0.918,-3.517,0
0.919,-2.235,0
0.92,3.99,0
0.921,17.906,0
0.922,48.119,0
0.923,78.331,0
0.924,42.809,0
0.925,9.483,0
0.926,-20.729,0
0.927,-32.448,0
0.928,-50.209,0
0.929,-40.688,0
0.93,-43.617,0
0.931,-41.054,0
0.932,-43.434,0
0.933,-36.842,0
0.934,-34.828,0
0.935,-25.673,0
0.936,-24.025,0
0.937,-22.56,0
0.938,-21.278,0
0.939,-12.855,0
0.94,-13.954,0
0.941,-11.024,0
0.942,-10.109,0
0.943,-4.433,0
0.944,-5.165,0
0.945,-3.334,0
0.946,1.061,0
0.947,6.188,0
0.948,4.356,0
0.949,6.188,0
0.95,5.638,0
0.951,3.258,0
0.952,1.976,0
0.953,2.342,0
0.954,-1.869,0
0.955,-4.616,0
0.956,-4.25,0
0.957,-6.447,0
0.958,-0.954,0
0.959,-7.912,0
0.96,-6.996,0
0.961,-4.616,0
0.962,-8.461,0
0.963,-6.63,0
0.964,-2.235,0
0.965,0.511,0
0.966,-0.771,0
0.967,-2.968,0
0.968,-2.602,0
0.969,-4.25,0
0.97,-3.883,0
0.971,1.61,0
0.972,13.146,0
0.973,38.048,0
0.974,70.274,0
0.975,57.457,0
0.976,37.865,0
0.977,5.638,0
0.978,-15.968,0
0.979,-35.561,0
0.98,-46.181,0
0.981,-43.068,0
0.982,-45.998,0
0.983,-43.434,0
0.984,-41.054,0
0.985,-38.856,0
0.986,-32.814,0
0.987,-30.983,0
0.988,-29.335,0
0.989,-24.94,0
0.99,-20.912,0
0.991,-14.87,0
0.992,-13.771,0
0.993,-10.841,0
0.994,-6.264,0
0.995,-5.531,0
0.996,-4.799,0
0.997,-5.348,0
0.998,-5.897,0
0.999,-4.25,0
1,-2.968,0
1.001,-1.686,0
1.002,0.328,0
1.003,-2.235,0
1.004,-1.137,0
1.005,0.877,0
1.006,2.159,0
1.007,1.427,0
1.008,0.877,0
1.009,0.328,0
1.01,-0.587,0
1.011,-1.503,0
1.012,0.511,0
1.013,1.61,0
1.014,-1.137,0
1.015,-3.7,0
1.016,-3.334,0
1.017,-4.799,0
1.018,-4.982,0
1.019,-4.25,0
1.02,-6.447,0
1.021,-5.897,0
1.022,-2.602,0
1.023,4.356,0
1.024,19.554,0
1.025,52.696,0
1.026,76.5,0
1.027,54.894,0
1.028,3.624,0
1.029,-17.25,0
1.03,-36.11,0
1.031,-41.786,0
1.032,-46.913,0
1.033,-42.152,0
1.034,-46.364,0
1.035,-42.519,0
1.036,-39.04,0
1.037,-35.927,0
1.038,-32.997,0
1.039,-25.124,0
1.04,-22.743,0
1.041,-20.546,0
1.042,-18.532,0
1.043,-13.039,0
1.044,-11.391,0
1.045,-9.926,0
1.046,-5.897,0
1.047,-2.418,0
1.048,0.877,0
1.049,-4.066,0
1.05,-4.982,0
1.051,-2.602,0
1.052,1.244,0
1.053,1.793,0
1.054,1.244,0
1.055,3.99,0
1.056,8.568,0
1.057,14.244,0
1.058,25.78,0
1.059,40.794,0
1.06,18.639,0
1.061,3.807,0
1.062,-4.066,0
1.063,-1.686,0
1.064,-3.883,0
1.065,-9.926,0
1.066,-11.757,0
1.067,-16.701,0
1.068,-15.236,0
1.069,-16.518,0
1.07,-15.419,0
1.071,-11.574,0
1.072,-8.278,0
1.073,4.906,0
1.074,17.723,0
1.075,42.625,0
1.076,53.246,0
1.077,69.359,0
1.078,42.625,0
1.079,24.864,0
1.08,-17.433,0
1.081,-34.645,0
1.082,-50.209,0
1.083,-45.448,0
1.084,-49.66,0
1.085,-45.814,0
1.086,-49.293,0
1.087,-46.181,0
1.088,-43.251,0
1.089,-40.688,0
1.09,-33.546,0
1.091,-26.955,0
1.092,-24.94,0
1.093,-19.447,0
1.094,-14.503,0
1.095,-10.109,0
1.096,-3.334,0
1.097,2.708,0
1.098,-2.968,0
1.099,3.99,0
1.1,6.737,0
1.101,9.117,0
1.102,6.92,0
1.103,17.174,0
1.104,15.709,0
1.105,6.188,0
1.106,-2.235,0
1.107,-3.334,0
1.108,-4.25,0
1.109,-8.827,0
1.11,-8.095,0
1.111,-7.362,0
1.112,-10.658,0
1.113,-11.208,0
1.114,-3.883,0
1.115,-13.039,0
1.116,-11.94,0
1.117,-4.066,0
1.118,2.892,0
1.119,3.807,0
1.12,3.075,0
1.121,5.272,0
1.122,1.61,0
1.123,7.835,0
1.124,20.287,0
1.125,36.766,0
1.126,56.725,0
1.127,64.598,0
1.128,62.218,0
1.129,29.076,0
1.13,-4.25,0
1.131,-17.067,0
1.132,-28.786,0
1.133,-32.265,0
1.134,-35.377,0
1.135,-38.307,0
1.136,-40.871,0
1.137,-38.49,0
1.138,-45.082,0
1.139,-35.011,0
1.14,-33.18,0
1.141,-28.236,0
1.142,-23.842,0
1.143,-22.56,0
1.144,-19.081,0
1.145,-13.405,0
1.146,-6.447,0
1.147,-5.531,0
1.148,-1.503,0
1.149,-0.771,0
1.15,-4.066,0
1.151,-5.897,0
1.152,-7.545,0
1.153,-6.264,0
1.154,-6.63,0
1.155,-2.052,0
1.156,-1.503,0
1.157,-3.151,0
1.158,0.145,0
1.159,4.356,0
1.16,2.708,0
1.161,1.427,0
1.162,-1.686,0
1.163,2.159,0
1.164,3.441,0
1.165,2.159,0
1.166,2.525,0
1.167,2.892,0
1.168,0.328,0
1.169,-0.404,0
1.17,0.328,0
1.171,-2.052,0
1.172,1.244,0
1.173,-0.587,0
1.174,-0.954,0
1.175,5.272,0
1.176,19.188,0
1.177,41.344,0
1.178,62.035,0
1.179,75.401,0
1.18,53.429,0
1.181,14.793,0
1.182,-21.828,0
1.183,-36.11,0
1.184,-48.927,0
1.185,-52.772,0
1.186,-56.251,0
1.187,-53.139,0
1.188,-50.209,0
1.189,-47.646,0
1.19,-40.504,0
1.191,-29.518,0
1.192,-27.504,0
1.193,-18.349,0
1.194,-13.405,0
1.195,-14.87,0
1.196,-13.588,0
1.197,-17.067,0
1.198,-13.771,0
1.199,-6.813,0
1.2,-2.235,0
1.201,-6.264,0
1.202,-6.996,0
1.203,-8.827,0
1.204,-10.658,0
1.205,-7.912,0
1.206,-8.278,0
1.207,-1.32,0
1.208,1.61,0
1.209,2.525,0
1.21,8.202,0
1.211,8.934,0
1.212,7.103,0
1.213,10.216,0
1.214,3.99,0
1.215,-0.038,0
1.216,3.807,0
1.217,5.638,0
1.218,5.089,0
1.219,5.638,0
1.22,-0.954,0
1.221,-3.7,0
1.222,-1.32,0
1.223,0.877,0
1.224,-2.052,0
1.225,-0.221,0
1.226,9.3,0
1.227,16.075,0
1.228,34.569,0
1.229,53.246,0
1.23,60.387,0
1.231,45.006,0
1.232,26.878,0
1.233,-9.56,0
1.234,-25.124,0
1.235,-39.406,0
1.236,-43.617,0
1.237,-47.462,0
1.238,-50.941,0
1.239,-47.829,0
1.24,-44.899,0
1.241,-42.335,0
1.242,-39.955,0
1.243,-33.363,0
1.244,-27.321,0
1.245,-21.828,0
1.246,-16.884,0
1.247,-15.419,0
1.248,-11.391,0
1.249,-10.292,0
1.25,-4.616,0
1.251,-5.531,0
1.252,-2.785,0
1.253,-0.404,0
1.254,3.441,0
1.255,2.892,0
1.256,1.061,0
1.257,2.708,0
1.258,0.328,0
1.259,4.54,0
1.26,-0.587,0
1.261,3.99,0
1.262,-0.404,0
1.263,0.145,0
1.264,0.511,0
1.265,1.793,0
1.266,-2.785,0
1.267,0.328,0
1.268,-3.517,0
1.269,-3.151,0
1.27,-6.264,0
1.271,-5.897,0
1.272,-0.221,0
1.273,-4.25,0
1.274,-3.517,0
1.275,-1.32,0
1.276,0.511,0
1.277,10.033,0
1.278,27.794,0
1.279,64.232,0
1.28,79.796,0
1.281,46.471,0
1.282,16.258,0
1.283,-3.334,0
1.284,-21.095,0
1.285,-37.208,0
1.286,-34.279,0
1.287,-42.152,0
1.288,-44.533,0
1.289,-37.941,0
1.29,-35.927,0
1.291,-30.434,0
1.292,-28.786,0
1.293,-24.391,0
1.294,-23.109,0
1.295,-17.067,0
1.296,-18.166,0
1.297,-13.222,0
1.298,-12.306,0
1.299,-9.926,0
1.3,-1.503,0
1.301,-2.602,0
1.302,-3.517,0
1.303,6.737,0
1.304,27.245,0
1.305,30.174,0
1.306,11.498,0
1.307,-0.587,0
1.308,-7.179,0
1.309,-13.222,0
1.31,-11.391,0
1.311,-16.334,0
1.312,-11.94,0
1.313,-10.658,0
1.314,-9.56,0
1.315,-8.461,0
1.316,-9.376,0
1.317,-4.799,0
1.318,-2.418,0
1.319,-7.729,0
1.32,-3.151,0
1.321,-6.264,0
1.322,-5.714,0
1.323,-8.095,0
1.324,-3.883,0
1.325,-7.729,0
1.326,-3.517,0
1.327,-6.813,0
1.328,0.145,0
1.329,9.3,0
1.33,27.794,0
1.331,51.964,0
1.332,61.485,0
1.333,76.317,0
1.334,52.147,0
1.335,22.85,0
1.336,-12.672,0
1.337,-36.476,0
1.338,-40.688,0
1.339,-52.406,0
1.34,-55.885,0
1.341,-52.772,0
1.342,-55.702,0
1.343,-47.829,0
1.344,-45.448,0
1.345,-43.251,0
1.346,-37.208,0
1.347,-31.715,0
1.348,-23.476,0
1.349,-19.081,0
1.35,-15.053,0
1.351,-11.574,0
1.352,-8.278,0
1.353,-5.348,0
1.354,-2.602,0
1.355,-0.221,0
1.356,8.202,0
1.357,7.103,0
1.358,8.019,0
1.359,8.934,0
1.36,6.554,0
1.361,5.821,0
1.362,5.272,0
1.363,4.723,0
1.364,6.371,0
1.365,5.089,0
1.366,8.202,0
1.367,10.216,0
1.368,5.272,0
1.369,5.821,0
1.37,2.708,0
1.371,-1.137,0
1.372,-4.433,0
1.373,-9.56,0
1.374,-4.982,0
1.375,-6.813,0
1.376,-5.165,0
1.377,-4.25,0
1.378,-1.869,0
1.379,5.089,0
1.38,20.287,0
1.381,35.667,0
1.382,53.795,0
1.383,56.175,0
1.384,53.978,0
1.385,51.964,0
1.386,64.781,0
1.387,49.767,0
1.388,19.554,0
1.389,-36.842,0
1.39,-59.914,0
1.391,-66.872,0
1.392,-73.097,0
1.393,-78.773,0
1.394,-73.646,0
1.395,-68.886,0
1.396,-64.674,0
1.397,-52.956,0
1.398,-42.335,0
1.399,-39.223,0
1.4,-36.293,0
1.401,-28.419,0
1.402,-21.278,0
1.403,-14.687,0
1.404,-8.644,0
1.405,-3.151,0
1.406,1.793,0
1.407,3.258,0
1.408,1.976,0
1.409,0.877,0
1.41,4.173,0
1.411,11.131,0
1.412,12.047,0
1.413,11.314,0
1.414,10.582,0
1.415,7.286,0
1.416,7.835,0
1.417,6.188,0
1.418,3.807,0
1.419,6.92,0
1.42,2.342,0
1.421,9.3,0
1.422,6.554,0
1.423,7.286,0
1.424,3.441,0
1.425,1.61,0
1.426,-1.503,0
1.427,-4.25,0
1.428,-4.982,0
1.429,-1.686,0
1.43,5.272,0
1.431,20.47,0
1.432,53.612,0
1.433,86.937,0
1.434,65.331,0
1.435,29.808,0
1.436,-3.517,0
1.437,-25.124,0
1.438,-36.842,0
1.439,-40.321,0
1.44,-43.434,0
1.441,-46.364,0
1.442,-43.8,0
1.443,-36.659,0
1.444,-38.856,0
1.445,-32.814,0
1.446,-30.983,0
1.447,-26.039,0
1.448,-24.574,0
1.449,-17.799,0
1.45,-14.32,0
1.451,-8.644,0
1.452,-5.714,0
1.453,-2.968,0
1.454,-2.235,0
1.455,1.61,0
1.456,3.441,0
1.457,6.554,0
1.458,6.004,0
1.459,13.512,0
1.46,21.385,0
1.461,24.315,0
1.462,25.23,0
1.463,29.259,0
1.464,25.414,0
1.465,17.906,0
1.466,16.991,0
1.467,16.075,0
1.468,15.343,0
1.469,6.92,0
1.47,-5.531,0
1.471,-13.771,0
1.472,-18.166,0
1.473,-30.434,0
1.474,-45.448,0
1.475,-47.462,0
1.476,-49.293,0
1.477,-44.35,0
1.478,-39.955,0
1.479,-34.279,0
1.48,-24.757,0
1.481,-23.659,0
1.482,-31.532,0
1.483,-18.349,0
1.484,-23.842,0
1.485,-22.194,0
1.486,-44.716,0
1.487,-93.422,0
1.488,-142.31,0
1.489,-161.17,0
1.49,-166.85,0
1.491,-161.72,0
1.492,-137.92,0
1.493,-116.31,0
1.494,-65.041,0
1.495,40.062,0
1.496,115.32,0
1.497,128.87,0
1.498,141.32,0
1.499,107.63,0
1.5,97.374,0
1.501,88.036,0
1.502,62.767,0
1.503,55.077,0
1.504,48.119,0
1.505,54.344,0
1.506,83.092,0
1.507,109.28,0
1.508,104.52,0
1.509,108.73,0
1.51,104.88,0
1.511,115.5,0
1.512,105.98,0
1.513,103.05,0
1.514,105.61,0
1.515,88.768,0
1.516,64.415,0
1.517,41.893,0
1.518,33.104,0
1.519,35.667,0
1.52,33.287,0
1.521,26.695,0
1.522,12.596,0
1.523,-11.208,0
1.524,-14.32,0
1.525,-17.25,0
1.526,-30.617,0
1.527,-28.236,0
1.528,-30.434,0
1.529,-40.504,0
1.53,-50.392,0
1.531,-52.223,0
1.532,-43.983,0
1.533,-42.519,0
1.534,-22.011,0
1.535,16.625,0
1.536,-9.56,0
1.537,-42.885,0
1.538,-73.097,0
1.539,-84.816,0
1.54,-95.436,0
1.541,-98.549,0
1.542,-95.619,0
1.543,-93.056,0
1.544,-85.915,0
1.545,-79.323,0
1.546,-73.28,0
1.547,-71.449,0
1.548,-63.209,0
1.549,-40.688,0
1.55,-11.391,0
1.551,-15.236,0
1.552,-32.997,0
1.553,-36.11,0
1.554,-33.18,0
1.555,-35.744,0
1.556,-42.885,0
1.557,-36.293,0
1.558,-30.25,0
1.559,-24.757,0
1.56,-23.109,0
1.561,-12.672,0
1.562,-11.391,0
1.563,2.159,0
1.564,3.99,0
1.565,5.638,0
1.566,4.173,0
1.567,8.202,0
1.568,9.3,0
1.569,8.202,0
1.57,11.131,0
1.571,12.047,0
1.572,8.019,0
1.573,2.708,0
1.574,3.258,0
1.575,5.089,0
1.576,4.54,0
1.577,7.835,0
1.578,4.723,0
1.579,3.624,0
1.58,3.99,0
1.581,7.469,0
1.582,4.906,0
1.583,9.483,0
1.584,19.737,0
1.585,42.259,0
1.586,84.557,0
1.587,78.88,0
1.588,42.259,0
1.589,8.934,0
1.59,-12.672,0
1.591,-24.391,0
1.592,-35.011,0
1.593,-31.898,0
1.594,-34.828,0
1.595,-32.265,0
1.596,-29.884,0
1.597,-27.687,0
1.598,-25.673,0
1.599,-20.18,0
1.6,-15.236,0
1.601,-16.701,0
1.602,-20.729,0
1.603,-17.25,0
1.604,-6.996,0
1.605,-8.278,0
1.606,-7.179,0
1.607,-3.883,0
1.608,-4.799,0
1.609,-2.052,0
1.61,-6.081,0
1.611,-3.883,0
1.612,-4.433,0
1.613,1.244,0
1.614,1.976,0
1.615,5.272,0
1.616,3.441,0
1.617,5.089,0
1.618,6.371,0
1.619,4.173,0
1.62,5.272,0
1.621,5.638,0
1.622,3.075,0
1.623,-0.221,0
1.624,2.892,0
1.625,1.793,0
1.626,0.694,0
1.627,2.525,0
1.628,3.258,0
1.629,1.427,0
1.63,-2.052,0
1.631,-1.686,0
1.632,-1.32,0
1.633,-4.066,0
1.634,1.61,0
1.635,14.061,0
1.636,41.527,0
1.637,68.993,0
1.638,79.613,0
1.639,43.907,0
1.64,0.877,0
1.641,-27.87,0
1.642,-32.997,0
1.643,-37.758,0
1.644,-41.969,0
1.645,-45.814,0
1.646,-42.335,0
1.647,-39.223,0
1.648,-36.293,0
1.649,-33.729,0
1.65,-26.588,0
1.651,-24.391,0
1.652,-22.377,0
1.653,-20.546,0
1.654,-22.194,0
1.655,-14.687,0
1.656,-13.405,0
1.657,-7.362,0
1.658,-6.264,0
1.659,-3.334,0
1.66,-2.418,0
1.661,-3.151,0
1.662,-3.883,0
1.663,0.694,0
1.664,1.244,0
1.665,1.793,0
1.666,0.511,0
1.667,1.793,0
1.668,-0.954,0
1.669,2.525,0
1.67,1.244,0
1.671,3.258,0
1.672,1.427,0
1.673,3.258,0
1.674,-0.038,0
1.675,-1.32,0
1.676,-0.954,0
1.677,-2.052,0
1.678,-0.954,0
1.679,-0.771,0
1.68,-0.587,0
1.681,0.694,0
1.682,-0.771,0
1.683,-4.982,0
1.684,-4.433,0
1.685,-1.503,0
1.686,4.723,0
1.687,18.639,0
1.688,48.851,0
1.689,70.458,0
1.69,42.992,0
1.691,-3.517,0
1.692,-22.377,0
1.693,-39.589,0
1.694,-44.716,0
1.695,-49.477,0
1.696,-45.265,0
1.697,-41.42,0
1.698,-37.941,0
1.699,-34.828,0
1.7,-31.898,0
1.701,-29.335,0
1.702,-22.194,0
1.703,-24.391,0
1.704,-18.349,0
1.705,-16.518,0
1.706,-14.87,0
1.707,-13.405,0
1.708,-6.63,0
1.709,-5.531,0
1.71,-4.433,0
1.711,-5.348,0
1.712,1.061,0
1.713,0.328,0
1.714,-0.404,0
1.715,2.892,0
1.716,4.723,0
1.717,6.371,0
1.718,3.075,0
1.719,2.708,0
1.72,-3.517,0
1.721,1.061,0
1.722,-1.32,0
1.723,-0.587,0
1.724,-2.418,0
1.725,-1.869,0
1.726,-1.32,0
1.727,-0.038,0
1.728,-0.404,0
1.729,0.694,0
1.73,1.793,0
1.731,2.892,0
1.732,4.356,0
1.733,5.089,0
1.734,0.877,0
1.735,2.159,0
1.736,5.638,0
1.737,13.146,0
1.738,30.174,0
1.739,66.612,0
1.74,40.428,0
1.741,-2.602,0
1.742,-19.813,0
1.743,-24.94,0
1.744,-39.223,0
1.745,-35.011,0
1.746,-31.166,0
1.747,-34.645,0
1.748,-31.532,0
1.749,-28.603,0
1.75,-26.039,0
1.751,-23.659,0
1.752,-17.067,0
1.753,-11.024,0
1.754,-9.193,0
1.755,-14.137,0
1.756,-12.672,0
1.757,-11.391,0
1.758,-14.87,0
1.759,-9.193,0
1.76,-10.109,0
1.761,-7.362,0
1.762,-3.334,0
1.763,0.511,0
1.764,2.342,0
1.765,-0.771,0
1.766,1.976,0
1.767,-2.602,0
1.768,-3.151,0
1.769,-4.799,0
1.77,-5.165,0
1.771,-0.954,0
1.772,0.694,0
1.773,3.075,0
1.774,1.793,0
1.775,2.159,0
1.776,-1.32,0
1.777,-0.954,0
1.778,-2.052,0
1.779,-3.151,0
1.78,1.61,0
1.781,-1.503,0
1.782,1.244,0
1.783,-2.052,0
1.784,-1.686,0
1.785,-4.25,0
1.786,-5.348,0
1.787,-5.714,0
1.788,-3.883,0
1.789,-7.179,0
1.79,-4.982,0
1.791,-6.081,0
1.792,-2.602,0
1.793,-4.799,0
1.794,1.427,0
1.795,15.343,0
1.796,33.47,0
1.797,16.625,0
1.798,5.638,0
1.799,11.681,0
1.8,28.16,0
1.801,43.541,0
1.802,49.583,0
1.803,66.063,0
1.804,55.077,0
1.805,24.864,0
1.806,-22.743,0
1.807,-54.42,0
1.808,-60.097,0
1.809,-65.224,0
1.81,-60.463,0
1.811,-56.251,0
1.812,-60.097,0
1.813,-49.477,0
1.814,-46.364,0
1.815,-37.575,0
1.816,-40.138,0
1.817,-32.997,0
1.818,-26.405,0
1.819,-20.363,0
1.82,-14.87,0
1.821,-16.518,0
1.822,-12.123,0
1.823,-10.841,0
1.824,-4.799,0
1.825,0.877,0
1.826,5.821,0
1.827,6.737,0
1.828,2.708,0
1.829,0.511,0
1.83,-0.038,0
1.831,5.638,0
1.832,0.328,0
1.833,-1.503,0
1.834,5.455,0
1.835,10.033,0
1.836,9.667,0
1.837,10.399,0
1.838,20.47,0
1.839,32.738,0
1.84,57.64,0
1.841,75.401,0
1.842,84.923,0
1.843,52.33,0
1.844,4.723,0
1.845,-26.955,0
1.846,-32.631,0
1.847,-37.758,0
1.848,-42.519,0
1.849,-38.307,0
1.85,-42.152,0
1.851,-38.673,0
1.852,-35.561,0
1.853,-32.631,0
1.854,-24.757,0
1.855,-22.377,0
1.856,-20.18,0
1.857,-18.166,0
1.858,-16.334,0
1.859,-14.687,0
1.86,-10.292,0
1.861,-9.01,0
1.862,-5.531,0
1.863,-2.235,0
1.864,-1.32,0
1.865,3.258,0
1.866,0.877,0
1.867,3.075,0
1.868,3.624,0
1.869,-0.771,0
1.87,-2.418,0
1.871,3.075,0
1.872,-0.771,0
1.873,2.525,0
1.874,1.976,0
1.875,1.427,0
1.876,1.061,0
1.877,2.342,0
1.878,-1.503,0
1.879,-1.137,0
1.88,-4.25,0
1.881,-3.151,0
1.882,-3.517,0
1.883,1.976,0
1.884,-3.334,0
1.885,-3.883,0
1.886,-2.052,0
1.887,-0.587,0
1.888,-0.038,0
1.889,7.469,0
1.89,22.301,0
1.891,40.428,0
1.892,62.401,0
1.893,83.092,0
1.894,58.922,0
1.895,10.216,0
1.896,-24.757,0
1.897,-30.983,0
1.898,-48.195,0
1.899,-43.068,0
1.9,-57.35,0
1.901,-53.139,0
1.902,-49.293,0
1.903,-45.814,0
1.904,-36.293,0
1.905,-39.223,0
1.906,-31.349,0
1.907,-28.969,0
1.908,-22.377,0
1.909,-20.363,0
1.91,-14.87,0
1.911,-3.334,0
1.912,-1.869,0
1.913,-0.587,0
1.914,0.511,0
1.915,-0.587,0
1.916,2.342,0
1.917,-0.404,0
1.918,1.976,0
1.919,-3.334,0
1.92,-1.503,0
1.921,-0.954,0
1.922,-2.602,0
1.923,-0.221,0
1.924,1.976,0
1.925,0.877,0
1.926,-0.221,0
1.927,3.807,0
1.928,0.511,0
1.929,1.793,0
1.93,0.694,0
1.931,1.061,0
1.932,5.089,0
1.933,7.469,0
1.934,4.356,0
1.935,3.99,0
1.936,-1.686,0
1.937,-2.418,0
1.938,0.145,0
1.939,0.877,0
1.94,7.103,0
1.941,19.554,0
1.942,47.02,0
1.943,74.486,0
1.944,42.259,0
1.945,12.047,0
1.946,-15.419,0
1.947,-26.039,0
1.948,-29.152,0
1.949,-43.983,0
1.95,-36.11,0
1.951,-38.49,0
1.952,-36.293,0
1.953,-34.279,0
1.954,-28.786,0
1.955,-23.842,0
1.956,-19.447,0
1.957,-18.166,0
1.958,-14.687,0
1.959,-9.01,0
1.96,-8.095,0
1.961,-12.672,0
1.962,-8.644,0
1.963,-12.489,0
1.964,-6.264,0
1.965,-5.531,0
1.966,-3.334,0
1.967,-3.883,0
1.968,-2.052,0
1.969,-1.503,0
1.97,-1.869,0
1.971,-3.151,0
1.972,-1.137,0
1.973,0.694,0
1.974,2.525,0
1.975,-0.771,0
1.976,-1.137,0
1.977,-3.883,0
1.978,-0.404,0
1.979,-0.771,0
1.98,1.244,0
1.981,-0.587,0
1.982,1.244,0
1.983,1.061,0
1.984,0.328,0
1.985,-1.503,0
1.986,-4.982,0
1.987,-1.686,0
1.988,-0.404,0
1.989,-1.32,0
1.99,-0.221,0
1.991,5.455,0
1.992,17.906,0
1.993,45.372,0
1.994,72.838,0
1.995,83.458,0
1.996,47.752,0
1.997,4.723,0
1.998,-24.025,0
1.999,-29.152,0
2,-43.434,0
2.001,-47.646,0
2.002,-51.491,0
2.003,-48.012,0
2.004,-44.899,0
2.005,-41.969,0
2.006,-39.406,0
2.007,-37.025,0
2.008,-30.434,0
2.009,-28.419,0
2.01,-22.926,0
2.011,-17.982,0
2.012,-16.518,0
2.013,-9.743,0
2.014,-3.7,0
2.015,-4.799,0
2.016,0.145,0
2.017,-2.602,0
2.018,-1.869,0
2.019,0.328,0
2.02,4.906,0
2.021,3.075,0
2.022,2.525,0
2.023,1.244,0
2.024,2.525,0
2.025,1.427,0
2.026,3.258,0
2.027,0.694,0
2.028,1.427,0
2.029,-2.785,0
2.03,-3.334,0
2.031,0.511,0
2.032,-0.771,0
2.033,-3.883,0
2.034,-4.982,0
2.035,-2.418,0
2.036,-2.785,0
2.037,-0.771,0
2.038,-2.602,0
2.039,-1.869,0
2.04,8.934,0
2.041,12.413,0
2.042,19.92,0
2.043,12.047,0
2.044,-1.137,0
2.045,-10.292,0
2.046,4.723,0
2.047,22.85,0
2.048,39.696,0
2.049,41.893,0
2.05,47.936,0
2.051,46.104,0
2.052,54.344,0
2.053,40.794,0
2.054,13.329,0
2.055,-45.814,0
2.056,-54.237,0
2.057,-77.309,0
2.058,-70.351,0
2.059,-76.576,0
2.06,-70.9,0
2.061,-65.773,0
2.062,-61.012,0
2.063,-48.195,0
2.064,-36.476,0
2.065,-39.955,0
2.066,-23.842,0
2.067,-20.912,0
2.068,-18.349,0
2.069,-15.968,0
2.07,-9.376,0
2.071,-7.362,0
2.072,-5.531,0
2.073,-0.587,0
2.074,3.807,0
2.075,-0.221,0
2.076,3.258,0
2.077,8.934,0
2.078,9.85,0
2.079,10.765,0
2.08,8.385,0
2.081,12.23,0
2.082,8.934,0
2.083,7.103,0
2.084,7.652,0
2.085,8.019,0
2.086,5.821,0
2.087,6.188,0
2.088,1.244,0
2.089,4.54,0
2.09,1.427,0
2.091,3.075,0
2.092,3.624,0
2.093,11.131,0
2.094,28.16,0
2.095,54.894,0
2.096,65.514,0
2.097,62.401,0
2.098,23.766,0
2.099,-2.418,0
2.1,-16.701,0
2.101,-29.518,0
2.102,-33.363,0
2.103,-36.842,0
2.104,-39.955,0
2.105,-42.885,0
2.106,-40.321,0
2.107,-33.18,0
2.108,-26.588,0
2.109,-28.603,0
2.11,-26.771,0
2.111,-21.828,0
2.112,-23.292,0
2.113,-16.518,0
2.114,-10.475,0
2.115,-4.799,0
2.116,-3.883,0
2.117,-4.799,0
2.118,-4.066,0
2.119,-4.799,0
2.12,1.427,0
2.121,3.807,0
2.122,-1.503,0
2.123,-2.052,0
2.124,-0.221,0
2.125,0.328,0
2.126,0.694,0
2.127,1.061,0
2.128,-1.686,0
2.129,-1.32,0
2.13,-0.221,0
2.131,-2.968,0
2.132,1.244,0
2.133,-0.404,0
2.134,-4.982,0
2.135,-4.433,0
2.136,-0.587,0
2.137,-6.081,0
2.138,-6.813,0
2.139,-4.982,0
2.14,-4.433,0
2.141,-1.686,0
2.142,-4.25,0
2.143,1.244,0
2.144,6.554,0
2.145,16.808,0
2.146,39.33,0
2.147,75.035,0
2.148,70.274,0
2.149,31.273,0
2.15,-5.348,0
2.151,-29.152,0
2.152,-41.969,0
2.153,-38.124,0
2.154,-48.744,0
2.155,-45.631,0
2.156,-42.702,0
2.157,-45.265,0
2.158,-38.124,0
2.159,-35.927,0
2.16,-33.913,0
2.161,-24.757,0
2.162,-23.109,0
2.163,-24.574,0
2.164,-17.799,0
2.165,-14.32,0
2.166,-8.644,0
2.167,-7.729,0
2.168,-3.151,0
2.169,-3.883,0
2.17,-3.151,0
2.171,-2.602,0
2.172,-0.771,0
2.173,-6.996,0
2.174,-1.32,0
2.175,-5.165,0
2.176,3.807,0
2.177,2.708,0
2.178,1.61,0
2.179,2.525,0
2.18,1.61,0
2.181,-0.771,0
2.182,-0.038,0
2.183,3.258,0
2.184,2.708,0
2.185,-0.038,0
2.186,1.244,0
2.187,-0.954,0
2.188,0.145,0
2.189,1.976,0
2.19,-3.517,0
2.191,-4.25,0
2.192,-3.7,0
2.193,0.145,0
2.194,-0.404,0
2.195,8.019,0
2.196,24.132,0
2.197,44.09,0
2.198,57.457,0
2.199,64.598,0
2.2,58.006,0
2.201,27.794,0
2.202,-2.418,0
2.203,-22.011,0
2.204,-25.49,0
2.205,-28.603,0
2.206,-25.673,0
2.207,-23.109,0
2.208,-20.729,0
2.209,-14.137,0
2.21,-16.151,0
2.211,-14.32,0
2.212,-15.968,0
2.213,-17.433,0
2.214,-16.151,0
2.215,-17.25,0
2.216,-25.124,0
2.217,-30.067,0
2.218,-40.321,0
2.219,-49.843,0
2.22,-53.322,0
2.221,-56.618,0
2.222,-47.462,0
2.223,-39.04,0
2.224,-35.744,0
2.225,-36.659,0
2.226,-43.068,0
2.227,-55.519,0
2.228,-79.323,0
2.229,-101.84,0
2.23,-116.68,0
2.231,-135.35,0
2.232,-142.49,0
2.233,-140.3,0
2.234,-134.25,0
2.235,-117.78,0
2.236,-97.816,0
2.237,-95.253,0
2.238,-68.52,0
2.239,-29.152,0
2.24,49.583,0
2.241,128.5,0
2.242,159.26,0
2.243,168.6,0
2.244,153.22,0
2.245,127.95,0
2.246,120.26,0
2.247,127.22,0
2.248,158.9,0
2.249,176.11,0
2.25,181.24,0
2.251,157.43,0
2.252,144.62,0
2.253,132.9,0
2.254,115.14,0
2.255,99.022,0
2.256,84.19,0
2.257,65.514,0
2.258,63.133,0
2.259,52.147,0
2.26,38.048,0
2.261,17.906,0
2.262,-0.771,0
2.263,1.61,0
2.264,-0.587,0
2.265,1.427,0
2.266,-7.729,0
2.267,-15.968,0
2.268,-26.405,0
2.269,-33.18,0
2.27,-39.223,0
2.271,-47.096,0
2.272,-46.181,0
2.273,-45.265,0
2.274,-57.716,0
2.275,-63.209,0
2.276,-58.266,0
2.277,-62.66,0
2.278,-61.378,0
2.279,-57.899,0
2.28,-56.801,0
2.281,-55.885,0
2.282,-58.632,0
2.283,-64.308,0
2.284,-66.505,0
2.285,-68.336,0
2.286,-61.378,0
2.287,-47.462,0
2.288,-29.335,0
2.289,-46.181,0
2.29,-52.772,0
2.291,-50.758,0
2.292,-52.589,0
2.293,-54.237,0
2.294,-49.843,0
2.295,-46.73,0
2.296,-42.702,0
2.297,-31.532,0
2.298,-15.053,0
2.299,18.089,0
2.3,32.372,0
2.301,62.584,0
2.302,42.992,0
2.303,18.089,0
2.304,-17.616,0
2.305,-31.898,0
2.306,-44.716,0
2.307,-48.561,0
2.308,-52.04,0
2.309,-48.927,0
2.31,-40.138,0
2.311,-37.575,0
2.312,-30.434,0
2.313,-23.842,0
2.314,-25.856,0
2.315,-16.701,0
2.316,-15.053,0
2.317,-10.658,0
2.318,-3.883,0
2.319,-2.785,0
2.32,0.511,0
2.321,5.455,0
2.322,4.54,0
2.323,5.272,0
2.324,7.469,0
2.325,12.047,0
2.326,8.934,0
2.327,6.188,0
2.328,10.765,0
2.329,12.596,0
2.33,13.146,0
2.331,12.779,0
2.332,13.146,0
2.333,10.399,0
2.334,11.498,0
2.335,10.399,0
2.336,11.131,0
2.337,9.85,0
2.338,11.681,0
2.339,10.216,0
2.34,10.399,0
2.341,11.681,0
2.342,10.399,0
2.343,9.667,0
2.344,7.652,0
2.345,2.159,0
2.346,2.342,0
2.347,4.54,0
2.348,14.793,0
2.349,31.273,0
2.35,64.415,0
2.351,69.176,0
2.352,38.963,0
2.353,3.441,0
2.354,-10.841,0
2.355,-32.448,0
2.356,-36.293,0
2.357,-39.772,0
2.358,-36.659,0
2.359,-33.729,0
2.36,-31.166,0
2.361,-28.786,0
2.362,-26.588,0
2.363,-20.546,0
2.364,-15.053,0
2.365,-13.405,0
2.366,-11.94,0
2.367,-13.222,0
2.368,-9.743,0
2.369,-10.841,0
2.37,-9.926,0
2.371,-7.179,0
2.372,-4.799,0
2.373,-0.954,0
2.374,-0.404,0
2.375,-0.954,0
2.376,2.892,0
2.377,4.173,0
2.378,1.976,0
2.379,0.877,0
2.38,6.554,0
2.381,0.877,0
2.382,-1.32,0
2.383,-5.897,0
2.384,-0.221,0
2.385,1.976,0
2.386,0.145,0
2.387,-0.404,0
2.388,-4.25,0
2.389,-1.869,0
2.39,-3.151,0
2.391,-4.25,0
2.392,-6.813,0
2.393,-1.32,0
2.394,-2.052,0
2.395,-0.221,0
2.396,-2.052,0
2.397,0.145,0
2.398,-2.602,0
2.399,4.906,0
2.4,21.935,0
2.401,48.668,0
2.402,59.288,0
2.403,81.81,0
2.404,55.077,0
2.405,15.709,0
2.406,-20.912,0
2.407,-44.716,0
2.408,-48.927,0
2.409,-52.772,0
2.41,-56.251,0
2.411,-53.139,0
2.412,-50.209,0
2.413,-42.335,0
2.414,-35.194,0
2.415,-28.603,0
2.416,-26.588,0
2.417,-21.095,0
2.418,-19.447,0
2.419,-17.982,0
2.42,-13.954,0
2.421,-10.475,0
2.422,-11.574,0
2.423,-8.644,0
2.424,-7.729,0
2.425,-3.7,0
2.426,-2.968,0
2.427,-4.799,0
2.428,-0.404,0
2.429,1.244,0
2.43,2.525,0
2.431,0.328,0
2.432,-2.418,0
2.433,0.145,0
2.434,-3.151,0
2.435,-1.137,0
2.436,-1.503,0
2.437,0.328,0
2.438,4.356,0
2.439,1.61,0
2.44,2.892,0
2.441,-0.221,0
2.442,0.145,0
2.443,-0.954,0
2.444,-4.982,0
2.445,-1.686,0
2.446,-0.404,0
2.447,-1.503,0
2.448,-0.587,0
2.449,1.244,0
2.45,6.737,0
2.451,16.808,0
2.452,37.315,0
2.453,52.147,0
2.454,76.317,0
2.455,47.02,0
2.456,27.428,0
2.457,-11.94,0
2.458,-27.504,0
2.459,-41.786,0
2.46,-45.998,0
2.461,-49.843,0
2.462,-53.322,0
2.463,-43.8,0
2.464,-35.011,0
2.465,-37.575,0
2.466,-35.194,0
2.467,-28.603,0
2.468,-22.56,0
2.469,-17.067,0
2.47,-15.419,0
2.471,-13.954,0
2.472,-9.926,0
2.473,-6.447,0
2.474,-5.348,0
2.475,-4.433,0
2.476,-5.348,0
2.477,-4.616,0
2.478,-3.883,0
2.479,-2.052,0
2.48,1.061,0
2.481,3.807,0
2.482,1.427,0
2.483,2.708,0
2.484,4.723,0
2.485,4.356,0
2.486,4.723,0
2.487,2.708,0
2.488,1.427,0
2.489,-0.404,0
2.49,1.793,0
2.491,-1.32,0
2.492,2.525,0
2.493,2.159,0
2.494,-2.052,0
2.495,-4.799,0
2.496,-1.503,0
2.497,1.61,0
2.498,0.511,0
2.499,-2.052,0
2.5,0.511,0
2.501,3.075,0
2.502,7.652,0
2.503,17.906,0
2.504,40.428,0
2.505,56.542,0
2.506,17.906,0
2.507,-8.278,0
2.508,-22.56,0
2.509,-35.377,0
2.51,-39.223,0
2.511,-42.702,0
2.512,-39.589,0
2.513,-36.659,0
2.514,-34.096,0
2.515,-26.955,0
2.516,-24.757,0
2.517,-22.743,0
2.518,-20.912,0
2.519,-15.968,0
2.52,-14.503,0
2.521,-13.222,0
2.522,-9.743,0
2.523,-8.644,0
2.524,-7.729,0
2.525,-6.813,0
2.526,-6.081,0
2.527,-6.813,0
2.528,-2.235,0
2.529,-0.404,0
2.53,-0.954,0
2.531,0.328,0
2.532,7.286,0
2.533,22.484,0
2.534,20.287,0
2.535,6.188,0
2.536,0.694,0
2.537,-7.545,0
2.538,-11.94,0
2.539,-13.222,0
2.54,-19.264,0
2.541,-18.166,0
2.542,-15.236,0
2.543,-10.658,0
2.544,-8.278,0
2.545,-6.081,0
2.546,-4.25,0
2.547,-2.418,0
2.548,-6.264,0
2.549,-3.883,0
2.55,-0.587,0
2.551,-0.221,0
2.552,6.004,0
2.553,19.92,0
2.554,50.133,0
2.555,80.345,0
2.556,60.753,0
2.557,21.385,0
2.558,-4.799,0
2.559,-28.603,0
2.56,-32.814,0
2.561,-36.659,0
2.562,-47.279,0
2.563,-37.758,0
2.564,-40.688,0
2.565,-38.124,0
2.566,-35.744,0
2.567,-29.152,0
2.568,-23.109,0
2.569,-24.94,0
2.57,-19.997,0
2.571,-18.532,0
2.572,-14.503,0
2.573,-11.024,0
2.574,-9.926,0
2.575,-10.841,0
2.576,-9.926,0
2.577,-4.25,0
2.578,-0.404,0
2.579,2.892,0
2.58,6.004,0
2.581,7.652,0
2.582,4.356,0
2.583,7.469,0
2.584,1.976,0
2.585,-0.221,0
2.586,-3.517,0
2.587,-4.066,0
2.588,-5.714,0
2.589,-4.433,0
2.59,-4.066,0
2.591,-4.433,0
2.592,-2.602,0
2.593,-3.7,0
2.594,-2.968,0
2.595,-2.785,0
2.596,-4.066,0
2.597,-0.587,0
2.598,-0.954,0
2.599,1.244,0
2.6,3.258,0
2.601,0.877,0
2.602,1.244,0
2.603,6.737,0
2.604,12.047,0
2.605,22.301,0
2.606,44.823,0
2.607,60.936,0
2.608,16.441,0
2.609,-15.236,0
2.61,-32.448,0
2.611,-37.575,0
2.612,-32.814,0
2.613,-37.025,0
2.614,-33.18,0
2.615,-36.659,0
2.616,-33.546,0
2.617,-30.617,0
2.618,-28.053,0
2.619,-30.434,0
2.62,-28.236,0
2.621,-22.194,0
2.622,-24.025,0
2.623,-19.081,0
2.624,-17.616,0
2.625,-8.095,0
2.626,-9.193,0
2.627,-5.897,0
2.628,-2.968,0
2.629,-3.883,0
2.63,-4.616,0
2.631,-0.771,0
2.632,-0.221,0
2.633,0.328,0
2.634,-0.221,0
2.635,1.061,0
2.636,-1.137,0
2.637,0.877,0
2.638,2.708,0
2.639,3.807,0
2.64,3.075,0
2.641,-0.038,0
2.642,6.188,0
2.643,3.441,0
2.644,2.708,0
2.645,0.511,0
2.646,-0.038,0
2.647,-1.869,0
2.648,-5.714,0
2.649,-3.334,0
2.65,-3.7,0
2.651,-1.686,0
2.652,-4.982,0
2.653,-3.151,0
2.654,-7.912,0
2.655,1.61,0
2.656,22.118,0
2.657,66.612,0
2.658,72.838,0
2.659,44.09,0
2.66,7.469,0
2.661,-25.856,0
2.662,-38.673,0
2.663,-42.519,0
2.664,-45.998,0
2.665,-49.11,0
2.666,-46.181,0
2.667,-38.307,0
2.668,-35.927,0
2.669,-33.729,0
2.67,-31.715,0
2.671,-26.222,0
2.672,-21.278,0
2.673,-13.771,0
2.674,-12.489,0
2.675,-6.447,0
2.676,-7.545,0
2.677,-8.461,0
2.678,-3.883,0
2.679,-1.503,0
2.68,2.342,0
2.681,0.511,0
2.682,-0.038,0
2.683,-1.686,0
2.684,-1.32,0
2.685,-2.602,0
2.686,-4.616,0
2.687,0.328,0
2.688,-0.221,0
2.689,-0.771,0
2.69,-4.616,0
2.691,-3.334,0
2.692,-3.7,0
2.693,-3.334,0
2.694,0.877,0
2.695,1.427,0
2.696,0.145,0
2.697,3.258,0
2.698,4.356,0
2.699,2.525,0
2.7,-1.503,0
2.701,-3.883,0
2.702,-2.602,0
2.703,0.145,0
2.704,-0.954,0
2.705,4.723,0
2.706,17.174,0
2.707,44.64,0
2.708,64.232,0
2.709,74.852,0
2.71,58.739,0
2.711,26.146,0
2.712,-12.855,0
2.713,-39.04,0
2.714,-53.322,0
2.715,-57.533,0
2.716,-53.688,0
2.717,-50.209,0
2.718,-47.096,0
2.719,-50.026,0
2.72,-42.152,0
2.721,-35.011,0
2.722,-32.814,0
2.723,-30.8,0
2.724,-25.307,0
2.725,-20.363,0
2.726,-15.968,0
2.727,-14.687,0
2.728,-6.264,0
2.729,1.61,0
2.73,0.694,0
2.731,1.61,0
2.732,0.877,0
2.733,1.61,0
2.734,1.061,0
2.735,2.892,0
2.736,1.244,0
2.737,6.737,0
2.738,4.54,0
2.739,-0.038,0
2.74,-3.151,0
2.741,0.694,0
2.742,0.328,0
2.743,3.441,0
2.744,0.694,0
2.745,-2.785,0
2.746,-0.587,0
2.747,1.427,0
2.748,3.258,0
2.749,5.089,0
2.75,3.075,0
2.751,-1.137,0
2.752,-5.531,0
2.753,-2.785,0
2.754,0.145,0
2.755,-1.137,0
2.756,4.906,0
2.757,10.582,0
2.758,22.118,0
2.759,47.02,0
2.76,57.64,0
2.761,21.935,0
2.762,-11.391,0
2.763,-24.208,0
2.764,-35.927,0
2.765,-39.406,0
2.766,-36.293,0
2.767,-39.223,0
2.768,-31.349,0
2.769,-28.969,0
2.77,-31.166,0
2.771,-29.152,0
2.772,-27.321,0
2.773,-28.969,0
2.774,-24.574,0
2.775,-20.546,0
2.776,-17.067,0
2.777,-11.391,0
2.778,3.807,0
2.779,23.766,0
2.78,21.202,0
2.781,9.117,0
2.782,-6.264,0
2.783,-12.306,0
2.784,-14.137,0
2.785,-12.489,0
2.786,-16.884,0
2.787,-12.855,0
2.788,-9.376,0
2.789,-8.278,0
2.79,-9.193,0
2.791,-10.109,0
2.792,-9.376,0
2.793,-7.179,0
2.794,-9.01,0
2.795,-5.897,0
2.796,-5.348,0
2.797,-4.066,0
2.798,-4.433,0
2.799,0.145,0
2.8,0.694,0
2.801,1.244,0
2.802,4.54,0
2.803,4.906,0
2.804,0.328,0
2.805,-4.982,0
2.806,-4.433,0
2.807,3.99,0
2.808,22.484,0
2.809,62.767,0
2.81,68.443,0
2.811,84.007,0
2.812,50.682,0
2.813,11.681,0
2.814,-14.503,0
2.815,-38.307,0
2.816,-42.519,0
2.817,-46.364,0
2.818,-49.843,0
2.819,-46.73,0
2.82,-43.8,0
2.821,-41.237,0
2.822,-38.856,0
2.823,-36.659,0
2.824,-30.617,0
2.825,-25.124,0
2.826,-23.476,0
2.827,-13.039,0
2.828,-14.32,0
2.829,-10.841,0
2.83,-7.545,0
2.831,-6.63,0
2.832,-0.221,0
2.833,3.807,0
2.834,1.61,0
2.835,1.061,0
2.836,-2.052,0
2.837,-0.404,0
2.838,0.877,0
2.839,-2.235,0
2.84,0.511,0
2.841,-0.587,0
2.842,3.441,0
2.843,1.061,0
2.844,0.694,0
2.845,3.441,0
2.846,-0.038,0
2.847,-2.235,0
2.848,3.258,0
2.849,7.103,0
2.85,2.525,0
2.851,4.356,0
2.852,-1.869,0
2.853,2.159,0
2.854,1.427,0
2.855,-0.404,0
2.856,-2.052,0
2.857,-2.602,0
2.858,5.821,0
2.859,21.935,0
2.86,55.077,0
2.861,78.88,0
2.862,57.274,0
2.863,21.751,0
2.864,-11.574,0
2.865,-24.391,0
2.866,-36.11,0
2.867,-39.589,0
2.868,-42.702,0
2.869,-39.772,0
2.87,-37.208,0
2.871,-34.828,0
2.872,-32.631,0
2.873,-30.617,0
2.874,-28.786,0
2.875,-27.138,0
2.876,-22.743,0
2.877,-15.968,0
2.878,-7.545,0
2.879,-6.447,0
2.88,-5.531,0
2.881,-2.785,0
2.882,-2.052,0
2.883,-2.785,0
2.884,-3.334,0
2.885,-1.503,0
2.886,-2.052,0
2.887,2.525,0
2.888,1.976,0
2.889,-1.869,0
2.89,-0.587,0
2.891,1.61,0
2.892,5.455,0
2.893,4.173,0
2.894,1.061,0
2.895,7.286,0
2.896,0.877,0
2.897,1.61,0
2.898,3.807,0
2.899,-0.771,0
2.9,-0.221,0
2.901,0.328,0
2.902,3.624,0
2.903,3.99,0
2.904,1.244,0
2.905,-4.433,0
2.906,-8.461,0
2.907,-4.982,0
2.908,-7.179,0
2.909,1.793,0
2.91,10.216,0
2.911,27.245,0
2.912,63.683,0
2.913,58.556,0
2.914,15.526,0
2.915,-13.222,0
2.916,-28.786,0
2.917,-43.068,0
2.918,-47.279,0
2.919,-51.125,0
2.92,-47.646,0
2.921,-44.533,0
2.922,-35.744,0
2.923,-38.307,0
2.924,-31.166,0
2.925,-28.969,0
2.926,-18.898,0
2.927,-17.067,0
2.928,-15.419,0
2.929,-11.024,0
2.93,-4.25,0
2.931,-3.151,0
2.932,-4.25,0
2.933,-1.32,0
2.934,1.427,0
2.935,-0.954,0
2.936,-4.799,0
2.937,-8.095,0
2.938,-1.137,0
2.939,3.441,0
2.94,1.061,0
2.941,1.793,0
2.942,-2.785,0
2.943,-0.954,0
2.944,-4.799,0
2.945,-0.221,0
2.946,1.61,0
2.947,-1.137,0
2.948,-2.418,0
2.949,-1.137,0
2.95,2.708,0
2.951,3.99,0
2.952,0.877,0
2.953,-2.968,0
2.954,-1.686,0
2.955,-2.968,0
2.956,-0.954,0
2.957,3.99,0
2.958,0.877,0
2.959,1.427,0
2.96,10.948,0
2.961,25.963,0
2.962,56.175,0
2.963,68.993,0
2.964,41.527,0
2.965,9.3,0
2.966,-20.912,0
2.967,-24.757,0
2.968,-35.377,0
2.969,-38.49,0
2.97,-41.42,0
2.971,-38.856,0
2.972,-31.715,0
2.973,-29.518,0
2.974,-31.532,0
2.975,-22.377,0
2.976,-17.433,0
2.977,-13.039,0
2.978,-6.264,0
2.979,-7.362,0
2.98,7.469,0
2.981,9.483,0
2.982,18.639,0
2.983,23.583,0
2.984,27.977,0
2.985,26.695,0
2.986,20.653,0
2.987,17.357,0
2.988,8.202,0
2.989,9.3,0
2.99,6.004,0
2.991,-9.193,0
2.992,-20.18,0
2.993,-30.25,0
2.994,-39.406,0
2.995,-50.941,0
2.996,-52.406,0
2.997,-42.885,0
2.998,-34.462,0
2.999,-28.786,0
3,-37.941,0
3.001,-51.491,0
3.002,-71.632,0
3.003,-90.309,0
3.004,-121.99,0
3.005,-134.8,0
3.006,-146.52,0
3.007,-150,0
3.008,-159.52,0
3.009,-152.93,0
3.01,-132.24,0
3.011,-102.76,0
3.012,-75.294,0
3.013,-35.927,0
3.014,32.372,0
3.015,135.09,0
3.016,175.93,0
3.017,188.38,0
3.018,154.69,0
3.019,123.92,0
3.02,95.909,0
3.021,87.486,0
3.022,79.796,0
3.023,86.754,0
3.024,105.61,0
3.025,134.36,0
3.026,129.23,0
3.027,134,0
3.028,146.81,0
3.029,142.97,0
3.03,125.21,0
3.031,102.68,0
3.032,93.895,0
3.033,75.218,0
3.034,68.077,0
3.035,43.724,0
3.036,21.202,0
3.037,12.413,0
3.038,9.85,0
3.039,12.23,0
3.04,5.638,0
3.041,-4.433,0
3.042,-17.25,0
3.043,-28.786,0
3.044,-36.293,0
3.045,-45.814,0
3.046,-49.293,0
3.047,-43.617,0
3.048,-56.801,0
3.049,-62.294,0
3.05,-63.942,0
3.051,-62.477,0
3.052,-63.759,0
3.053,-64.857,0
3.054,-65.956,0
3.055,-63.026,0
3.056,-63.942,0
3.057,-66.322,0
3.058,-71.632,0
3.059,-71.083,0
3.06,-73.83,0
3.061,-65.59,0
3.062,-55.336,0
3.063,-34.828,0
3.064,-2.235,0
3.065,27.977,0
3.066,31.822,0
3.067,-0.404,0
3.068,-30.617,0
3.069,-58.083,0
3.07,-61.562,0
3.071,-64.674,0
3.072,-61.745,0
3.073,-64.308,0
3.074,-61.928,0
3.075,-55.336,0
3.076,-41.237,0
3.077,-35.744,0
3.078,-27.504,0
3.079,-23.109,0
3.08,-19.081,0
3.081,-15.602,0
3.082,-14.503,0
3.083,-15.419,0
3.084,-10.841,0
3.085,-6.813,0
3.086,-2.968,0
3.087,1.61,0
3.088,4.723,0
3.089,10.948,0
3.09,13.329,0
3.091,9.483,0
3.092,10.033,0
3.093,14.427,0
3.094,12.779,0
3.095,12.413,0
3.096,9.3,0
3.097,6.554,0
3.098,3.075,0
3.099,3.441,0
3.1,7.286,0
3.101,12.779,0
3.102,5.821,0
3.103,6.737,0
3.104,7.469,0
3.105,12.779,0
3.106,9.483,0
3.107,8.934,0
3.108,5.089,0
3.109,3.807,0
3.11,4.173,0
3.111,6.004,0
3.112,7.103,0
3.113,12.779,0
3.114,25.23,0
3.115,52.696,0
3.116,88.219,0
3.117,73.937,0
3.118,26.329,0
3.119,-5.348,0
3.12,-22.56,0
3.121,-38.124,0
3.122,-42.885,0
3.123,-47.096,0
3.124,-43.251,0
3.125,-39.772,0
3.126,-36.659,0
3.127,-39.589,0
3.128,-37.025,0
3.129,-24.94,0
3.13,-18.349,0
3.131,-16.334,0
3.132,-14.503,0
3.133,-9.56,0
3.134,-11.024,0
3.135,-6.996,0
3.136,-3.517,0
3.137,-2.418,0
3.138,4.54,0
3.139,-0.038,0
3.14,0.694,0
3.141,1.427,0
3.142,1.976,0
3.143,2.525,0
3.144,-2.602,0
3.145,0.694,0
3.146,-2.418,0
3.147,-0.771,0
3.148,-1.137,0
3.149,1.976,0
3.15,-3.517,0
3.151,-2.785,0
3.152,0.511,0
3.153,3.624,0
3.154,1.976,0
3.155,1.61,0
3.156,5.821,0
3.157,4.173,0
3.158,3.807,0
3.159,4.173,0
3.16,1.427,0
3.161,-2.052,0
3.162,-5.714,0
3.163,-5.348,0
3.164,0.877,0
3.165,14.793,0
3.166,36.949,0
3.167,45.738,0
3.168,53.612,0
3.169,65.697,0
3.17,67.894,0
3.171,37.682,0
3.172,-18.715,0
3.173,-41.786,0
3.174,-48.744,0
3.175,-54.97,0
3.176,-49.293,0
3.177,-54.42,0
3.178,-49.66,0
3.179,-45.448,0
3.18,-41.603,0
3.181,-38.124,0
3.182,-35.011,0
3.183,-32.082,0
3.184,-34.645,0
3.185,-27.504,0
3.186,-20.912,0
3.187,-18.898,0
3.188,-17.067,0
3.189,-12.123,0
3.19,-7.729,0
3.191,-6.447,0
3.192,-2.968,0
3.193,-4.066,0
3.194,-1.137,0
3.195,1.61,0
3.196,0.877,0
3.197,7.835,0
3.198,10.582,0
3.199,9.85,0
3.2,9.117,0
3.201,8.568,0
3.202,4.173,0
3.203,4.723,0
3.204,4.356,0
3.205,1.244,0
3.206,1.61,0
3.207,4.173,0
3.208,-0.587,0
3.209,-3.7,0
3.21,-12.123,0
3.211,-6.081,0
3.212,-4.982,0
3.213,-0.587,0
3.214,2.342,0
3.215,16.258,0
3.216,26.329,0
3.217,53.795,0
3.218,57.64,0
3.219,82.542,0
3.22,60.021,0
3.221,21.385,0
3.222,-15.236,0
3.223,-29.518,0
3.224,-42.335,0
3.225,-54.054,0
3.226,-57.533,0
3.227,-54.42,0
3.228,-45.631,0
3.229,-43.068,0
3.23,-40.688,0
3.231,-34.096,0
3.232,-24.025,0
3.233,-22.194,0
3.234,-20.546,0
3.235,-10.109,0
3.236,-11.391,0
3.237,-10.292,0
3.238,-6.996,0
3.239,-7.912,0
3.24,-5.165,0
3.241,-10.841,0
3.242,-5.531,0
3.243,-0.954,0
3.244,-1.503,0
3.245,3.624,0
3.246,5.455,0
3.247,3.624,0
3.248,-2.602,0
3.249,3.075,0
3.25,3.807,0
3.251,5.638,0
3.252,6.188,0
3.253,4.54,0
3.254,2.159,0
3.255,2.525,0
3.256,-0.221,0
3.257,-4.433,0
3.258,-1.686,0
3.259,-0.404,0
3.26,-2.602,0
3.261,-2.968,0
3.262,-8.644,0
3.263,-4.616,0
3.264,-5.714,0
3.265,-3.517,0
3.266,-1.686,0
3.267,1.427,0
3.268,4.173,0
3.269,7.469,0
3.27,14.427,0
3.271,25.597,0
3.272,9.117,0
3.273,6.92,0
3.274,37.132,0
3.275,58.739,0
3.276,62.584,0
3.277,23.216,0
3.278,-13.405,0
3.279,-37.208,0
3.28,-41.42,0
3.281,-53.139,0
3.282,-49.66,0
3.283,-52.772,0
3.284,-49.843,0
3.285,-41.969,0
3.286,-39.589,0
3.287,-41.786,0
3.288,-35.744,0
3.289,-30.25,0
3.29,-22.011,0
3.291,-17.616,0
3.292,-13.588,0
3.293,-12.489,0
3.294,-9.193,0
3.295,-4.25,0
3.296,-1.503,0
3.297,-3.883,0
3.298,-3.151,0
3.299,-1.32,0
3.3,3.075,0
3.301,0.328,0
3.302,3.624,0
3.303,3.258,0
3.304,-0.587,0
3.305,-0.221,0
3.306,-1.503,0
3.307,4.723,0
3.308,5.638,0
3.309,1.61,0
3.31,2.342,0
3.311,4.173,0
3.312,1.061,0
3.313,4.906,0
3.314,3.624,0
3.315,8.934,0
3.316,9.3,0
3.317,15.526,0
3.318,29.442,0
3.319,47.569,0
3.32,64.415,0
3.321,66.612,0
3.322,52.513,0
3.323,25.047,0
3.324,-18.349,0
3.325,-35.561,0
3.326,-40.688,0
3.327,-54.97,0
3.328,-50.758,0
3.329,-46.913,0
3.33,-43.434,0
3.331,-40.321,0
3.332,-37.392,0
3.333,-34.828,0
3.334,-27.687,0
3.335,-21.095,0
3.336,-19.081,0
3.337,-17.25,0
3.338,-18.898,0
3.339,-14.503,0
3.34,-7.729,0
3.341,-8.827,0
3.342,-5.531,0
3.343,-2.602,0
3.344,0.145,0
3.345,-2.235,0
3.346,-1.503,0
3.347,0.328,0
3.348,0.877,0
3.349,2.525,0
3.35,2.159,0
3.351,0.877,0
3.352,4.723,0
3.353,5.089,0
3.354,-0.954,0
3.355,-1.686,0
3.356,0.511,0
3.357,-0.038,0
3.358,1.793,0
3.359,1.244,0
3.36,-4.25,0
3.361,-3.517,0
3.362,-5.348,0
3.363,-0.954,0
3.364,-1.503,0
3.365,0.877,0
3.366,0.145,0
3.367,2.342,0
3.368,8.568,0
3.369,22.484,0
3.37,52.696,0
3.371,74.303,0
3.372,70.458,0
3.373,45.555,0
3.374,3.258,0
3.375,-13.954,0
3.376,-40.138,0
3.377,-44.899,0
3.378,-57.716,0
3.379,-53.871,0
3.38,-50.392,0
3.381,-34.279,0
3.382,-31.349,0
3.383,-28.786,0
3.384,-31.166,0
3.385,-24.574,0
3.386,-18.532,0
3.387,-16.701,0
3.388,-15.053,0
3.389,-16.518,0
3.39,-12.489,0
3.391,-11.391,0
3.392,-5.714,0
3.393,-6.63,0
3.394,-9.376,0
3.395,-1.869,0
3.396,1.061,0
3.397,0.145,0
3.398,2.525,0
3.399,-2.785,0
3.4,1.793,0
3.401,2.342,0
3.402,0.694,0
3.403,-1.686,0
3.404,-2.052,0
3.405,-3.151,0
3.406,-4.25,0
3.407,-9.743,0
3.408,-2.785,0
3.409,1.793,0
3.41,5.821,0
3.411,5.089,0
3.412,-3.883,0
3.413,-0.404,0
3.414,2.892,0
3.415,7.835,0
3.416,6.92,0
3.417,8.934,0
3.418,8.202,0
3.419,13.512,0
3.42,15.343,0
3.421,24.864,0
3.422,45.372,0
3.423,54.161,0
3.424,46.288,0
3.425,53.429,0
3.426,51.231,0
3.427,21.019,0
3.428,-26.588,0
3.429,-45.448,0
3.43,-62.66,0
3.431,-67.787,0
3.432,-63.026,0
3.433,-58.815,0
3.434,-62.66,0
3.435,-52.04,0
3.436,-48.927,0
3.437,-51.857,0
3.438,-43.983,0
3.439,-36.842,0
3.44,-25.856,0
3.441,-19.813,0
3.442,-17.982,0
3.443,-13.039,0
3.444,-11.574,0
3.445,-7.545,0
3.446,3.624,0
3.447,2.159,0
3.448,14.427,0
3.449,12.779,0
3.45,8.385,0
3.451,9.667,0
3.452,3.624,0
3.453,9.3,0
3.454,8.385,0
3.455,5.638,0
3.456,1.61,0
3.457,-2.235,0
3.458,-0.404,0
3.459,1.427,0
3.46,1.976,0
3.461,0.694,0
3.462,4.906,0
3.463,8.751,0
3.464,4.173,0
3.465,3.624,0
3.466,0.877,0
3.467,-2.418,0
3.468,-2.785,0
3.469,0.328,0
3.47,6.554,0
3.471,20.47,0
3.472,50.682,0
3.473,72.289,0
3.474,68.443,0
3.475,29.076,0
3.476,2.892,0
3.477,-11.391,0
3.478,-32.997,0
3.479,-44.716,0
3.48,-41.237,0
3.481,-44.35,0
3.482,-47.279,0
3.483,-39.406,0
3.484,-37.025,0
3.485,-30.434,0
3.486,-20.363,0
3.487,-22.194,0
3.488,-20.546,0
3.489,-19.081,0
3.49,-15.053,0
3.491,-13.954,0
3.492,-10.658,0
3.493,-11.574,0
3.494,-12.489,0
3.495,-10.109,0
3.496,-6.264,0
3.497,-5.714,0
3.498,1.244,0
3.499,0.328,0
3.5,1.061,0
3.501,3.258,0
3.502,3.807,0
3.503,0.694,0
3.504,2.342,0
3.505,-0.954,0
3.506,-1.32,0
3.507,-0.954,0
3.508,2.525,0
3.509,-0.587,0
3.51,-5.165,0
3.511,-0.771,0
3.512,1.976,0
3.513,-0.404,0
3.514,-1.686,0
3.515,4.54,0
3.516,18.456,0
3.517,24.498,0
3.518,8.019,0
3.519,-2.785,0
3.52,-13.771,0
3.521,-15.785,0
3.522,4.356,0
3.523,44.64,0
3.524,61.852,0
3.525,66.979,0
3.526,33.653,0
3.527,-5.348,0
3.528,-20.912,0
3.529,-35.194,0
3.53,-48.012,0
3.531,-59.73,0
3.532,-56.251,0
3.533,-46.73,0
3.534,-43.8,0
3.535,-41.237,0
3.536,-34.096,0
3.537,-31.898,0
3.538,-25.856,0
3.539,-20.363,0
3.54,-15.419,0
3.541,-13.954,0
3.542,-9.926,0
3.543,-8.827,0
3.544,-12.123,0
3.545,-9.193,0
3.546,-2.785,0
3.547,1.244,0
3.548,6.554,0
3.549,4.723,0
3.55,7.835,0
3.551,3.99,0
3.552,3.624,0
3.553,3.258,0
3.554,1.244,0
3.555,3.075,0
3.556,1.244,0
3.557,1.061,0
3.558,-1.503,0
3.559,3.99,0
3.56,3.258,0
3.561,3.807,0
3.562,-3.151,0
3.563,-5.897,0
3.564,-1.869,0
3.565,-1.137,0
3.566,-1.686,0
3.567,0.145,0
3.568,-0.404,0
3.569,-1.686,0
3.57,-0.587,0
3.571,1.61,0
3.572,7.835,0
3.573,21.751,0
3.574,51.964,0
3.575,73.57,0
3.576,77.416,0
3.577,38.048,0
3.578,-9.193,0
3.579,-28.053,0
3.58,-33.729,0
3.581,-38.856,0
3.582,-53.139,0
3.583,-48.927,0
3.584,-45.082,0
3.585,-41.603,0
3.586,-38.49,0
3.587,-35.561,0
3.588,-22.194,0
3.589,-24.574,0
3.59,-22.377,0
3.591,-20.363,0
3.592,-22.194,0
3.593,-17.25,0
3.594,-15.785,0
3.595,-11.757,0
3.596,-8.278,0
3.597,-7.179,0
3.598,1.976,0
3.599,-1.503,0
3.6,-0.404,0
3.601,-5.348,0
3.602,-2.602,0
3.603,-6.63,0
3.604,-2.785,0
3.605,-0.954,0
3.606,-0.404,0
3.607,1.244,0
3.608,-1.137,0
3.609,-2.418,0
3.61,2.159,0
3.611,2.708,0
3.612,-1.137,0
3.613,-2.418,0
3.614,-0.221,0
3.615,-0.587,0
3.616,1.976,0
3.617,2.342,0
3.618,1.61,0
3.619,0.328,0
3.62,2.159,0
3.621,3.807,0
3.622,2.342,0
3.623,0.877,0
3.624,3.807,0
3.625,10.033,0
3.626,23.949,0
3.627,54.161,0
3.628,75.768,0
3.629,40.245,0
3.63,-2.785,0
3.631,-31.532,0
3.632,-47.096,0
3.633,-51.857,0
3.634,-56.068,0
3.635,-52.223,0
3.636,-48.744,0
3.637,-45.631,0
3.638,-48.561,0
3.639,-45.998,0
3.64,-38.856,0
3.641,-32.265,0
3.642,-26.222,0
3.643,-24.391,0
3.644,-16.151,0
3.645,-14.687,0
3.646,-2.418,0
3.647,-7.362,0
3.648,-8.827,0
3.649,-4.799,0
3.65,-3.7,0
3.651,-0.404,0
3.652,-3.334,0
3.653,3.075,0
3.654,-0.954,0
3.655,1.244,0
3.656,3.075,0
3.657,4.906,0
3.658,1.061,0
3.659,-4.433,0
3.66,-2.235,0
3.661,1.061,0
3.662,1.61,0
3.663,5.455,0
3.664,6.737,0
3.665,4.54,0
3.666,4.906,0
3.667,5.272,0
3.668,-0.221,0
3.669,-0.954,0
3.67,2.342,0
3.671,-3.334,0
3.672,1.61,0
3.673,3.807,0
3.674,14.061,0
3.675,30.541,0
3.676,41.527,0
3.677,67.711,0
3.678,85.472,0
3.679,62.95,0
3.68,18.456,0
3.681,-13.222,0
3.682,-30.434,0
3.683,-35.561,0
3.684,-49.843,0
3.685,-45.631,0
3.686,-49.477,0
3.687,-45.998,0
3.688,-42.885,0
3.689,-39.955,0
3.69,-37.392,0
3.691,-30.25,0
3.692,-28.053,0
3.693,-30.067,0
3.694,-24.574,0
3.695,-19.63,0
3.696,-15.236,0
3.697,-13.954,0
3.698,-10.475,0
3.699,-4.799,0
3.7,-3.883,0
3.701,-4.799,0
3.702,-4.066,0
3.703,-1.869,0
3.704,1.427,0
3.705,-0.404,0
3.706,4.723,0
3.707,4.173,0
3.708,6.004,0
3.709,7.652,0
3.71,8.934,0
3.711,5.821,0
3.712,6.92,0
3.713,6.554,0
3.714,1.793,0
3.715,-1.32,0
3.716,-0.771,0
3.717,-5.348,0
3.718,-4.799,0
3.719,-3.151,0
3.72,-1.869,0
3.721,-2.235,0
3.722,-2.602,0
3.723,-4.25,0
3.724,-8.461,0
3.725,-5.714,0
3.726,1.793,0
3.727,18.822,0
3.728,55.26,0
3.729,60.387,0
3.73,74.669,0
3.731,70.458,0
3.732,27.062,0
3.733,-13.222,0
3.734,-39.406,0
3.735,-53.688,0
3.736,-57.899,0
3.737,-61.745,0
3.738,-58.266,0
3.739,-55.153,0
3.74,-52.223,0
3.741,-49.66,0
3.742,-42.519,0
3.743,-35.927,0
3.744,-33.913,0
3.745,-24.757,0
3.746,-19.813,0
3.747,-15.419,0
3.748,-11.391,0
3.749,-10.292,0
3.75,-2.418,0
3.751,-3.334,0
3.752,-2.418,0
3.753,5.089,0
3.754,2.159,0
3.755,-0.587,0
3.756,0.145,0
3.757,2.342,0
3.758,5.638,0
3.759,6.188,0
3.76,6.737,0
3.761,14.244,0
3.762,31.273,0
3.763,24.132,0
3.764,8.751,0
3.765,-5.348,0
3.766,-7.179,0
3.767,-15.419,0
3.768,-11.024,0
3.769,-12.306,0
3.77,-6.264,0
3.771,-5.165,0
3.772,-4.25,0
3.773,-3.334,0
3.774,-1.32,0
3.775,2.708,0
3.776,11.131,0
3.777,28.16,0
3.778,64.598,0
3.779,111.84,0
3.78,92.979,0
3.781,52.696,0
3.782,16.075,0
3.783,-7.729,0
3.784,-20.546,0
3.785,-24.391,0
3.786,-27.87,0
3.787,-37.392,0
3.788,-52.223,0
3.789,-54.787,0
3.79,-61.928,0
3.791,-68.52,0
3.792,-66.505,0
3.793,-61.012,0
3.794,-45.998,0
3.795,-35.927,0
3.796,-34.096,0
3.797,-42.335,0
3.798,-55.885,0
3.799,-68.703,0
3.8,-83.717,0
3.801,-97.816,0
3.802,-110.63,0
3.803,-118.87,0
3.804,-129.31,0
3.805,-136.09,0
3.806,-144.51,0
3.807,-134.25,0
3.808,-130.23,0
3.809,-111.73,0
3.81,-76.759,0
3.811,-5.165,0
3.812,87.303,0
3.813,124.66,0
3.814,158.35,0
3.815,148.09,0
3.816,138.76,0
3.817,113.49,0
3.818,90.416,0
3.819,97.374,0
3.82,78.514,0
3.821,84.19,0
3.822,99.754,0
3.823,123.56,0
3.824,145.16,0
3.825,143.7,0
3.826,131.98,0
3.827,135.46,0
3.828,132.35,0
3.829,159.08,0
3.83,162.56,0
3.831,153.04,0
3.832,138.21,0
3.833,114.04,0
3.834,65.331,0
3.835,16.441,0
3.836,-2.418,0
3.837,-31.166,0
3.838,-46.73,0
3.839,-61.012,0
3.84,-65.224,0
3.841,-76.942,0
3.842,-73.463,0
3.843,-70.351,0
3.844,-67.421,0
3.845,-75.294,0
3.846,-77.675,0
3.847,-75.478,0
3.848,-73.463,0
3.849,-67.97,0
3.85,-63.026,0
3.851,-64.491,0
3.852,-65.773,0
3.853,-62.294,0
3.854,-65.59,0
3.855,-64.674,0
3.856,-71.083,0
3.857,-70.351,0
3.858,-69.618,0
3.859,-63.393,0
3.86,-57.716,0
3.861,-50.758,0
3.862,-46.181,0
3.863,-38.673,0
3.864,-35.744,0
3.865,-36.659,0
3.866,-32.631,0
3.867,-27.321,0
3.868,-24.025,0
3.869,-18.349,0
3.87,-16.151,0
3.871,-16.701,0
3.872,-9.743,0
3.873,-6.996,0
3.874,-9.376,0
3.875,-4.066,0
3.876,-0.587,0
3.877,-2.418,0
3.878,7.103,0
3.879,16.625,0
3.88,35.118,0
3.881,75.401,0
3.882,58.189,0
3.883,21.568,0
3.884,-11.757,0
3.885,-24.574,0
3.886,-36.293,0
3.887,-39.772,0
3.888,-36.659,0
3.889,-33.729,0
3.89,-31.166,0
3.891,-28.786,0
3.892,-26.588,0
3.893,-16.518,0
3.894,-14.687,0
3.895,-16.334,0
3.896,-11.94,0
3.897,-7.912,0
3.898,-4.433,0
3.899,3.441,0
3.9,-1.503,0
3.901,3.075,0
3.902,5.455,0
3.903,4.723,0
3.904,2.892,0
3.905,3.441,0
3.906,3.99,0
3.907,6.371,0
3.908,5.089,0
3.909,9.667,0
3.91,6.554,0
3.911,4.906,0
3.912,3.624,0
3.913,3.258,0
3.914,5.272,0
3.915,4.173,0
3.916,4.54,0
3.917,7.835,0
3.918,5.638,0
3.919,2.892,0
3.92,0.328,0
3.921,0.694,0
3.922,-0.038,0
3.923,3.075,0
3.924,1.061,0
3.925,-3.883,0
3.926,-3.334,0
3.927,-1.32,0
3.928,-0.771,0
3.929,7.652,0
3.93,26.146,0
3.931,61.119,0
3.932,65.88,0
3.933,78.697,0
3.934,51.231,0
3.935,4.723,0
3.936,-26.955,0
3.937,-32.631,0
3.938,-37.758,0
3.939,-42.519,0
3.94,-46.73,0
3.941,-42.885,0
3.942,-39.406,0
3.943,-36.293,0
3.944,-39.223,0
3.945,-31.349,0
3.946,-28.969,0
3.947,-22.377,0
3.948,-20.363,0
3.949,-14.87,0
3.95,-9.926,0
3.951,-8.461,0
3.952,-9.743,0
3.953,-8.644,0
3.954,-5.348,0
3.955,-0.404,0
3.956,-1.32,0
3.957,-0.587,0
3.958,-1.32,0
3.959,0.511,0
3.96,1.061,0
3.961,7.286,0
3.962,4.906,0
3.963,2.708,0
3.964,3.258,0
3.965,3.807,0
3.966,6.554,0
3.967,1.061,0
3.968,3.258,0
3.969,-1.32,0
3.97,0.511,0
3.971,-6.813,0
3.972,-1.869,0
3.973,0.877,0
3.974,1.61,0
3.975,-0.587,0
3.976,-1.137,0
3.977,0.694,0
3.978,0.877,0
3.979,0.328,0
3.98,4.906,0
3.981,14.427,0
3.982,34.935,0
3.983,79.43,0
3.984,85.655,0
3.985,45.372,0
3.986,-1.869,0
3.987,-20.729,0
3.988,-37.941,0
3.989,-43.068,0
3.99,-47.829,0
3.991,-52.04,0
3.992,-48.195,0
3.993,-44.716,0
3.994,-41.603,0
3.995,-38.673,0
3.996,-36.11,0
3.997,-28.969,0
3.998,-26.771,0
3.999,-20.729,0
4,-15.236,0
4.001,-6.996,0
4.002,-8.461,0
4.003,-7.179,0
4.004,-6.081,0
4.005,-2.785,0
4.006,10.399,0
4.007,30.541,0
4.008,38.414,0
4.009,21.568,0
4.01,6.188,0
4.011,-3.883,0
4.012,-9.376,0
4.013,-11.024,0
4.014,-9.56,0
4.015,-8.278,0
4.016,-11.757,0
4.017,-8.461,0
4.018,-7.545,0
4.019,-10.292,0
4.02,-7.912,0
4.021,-10.109,0
4.022,-9.56,0
4.023,-7.729,0
4.024,-7.179,0
4.025,-5.897,0
4.026,-4.616,0
4.027,-6.63,0
4.028,-0.954,0
4.029,2.342,0
4.03,4.723,0
4.031,14.793,0
4.032,29.808,0
4.033,51.964,0
4.034,60.753,0
4.035,79.43,0
4.036,72.289,0
4.037,39.146,0
4.038,-13.405,0
4.039,-34.279,0
4.04,-40.504,0
4.041,-57.716,0
4.042,-52.589,0
4.043,-47.829,0
4.044,-43.617,0
4.045,-39.772,0
4.046,-43.251,0
4.047,-33.729,0
4.048,-24.94,0
4.049,-22.377,0
4.05,-19.997,0
4.051,-17.799,0
4.052,-11.757,0
4.053,-9.926,0
4.054,-8.278,0
4.055,-3.883,0
4.056,-2.602,0
4.057,-1.503,0
4.058,4.173,0
4.059,3.258,0
4.06,2.342,0
4.061,3.075,0
4.062,0.877,0
4.063,0.328,0
4.064,0.877,0
4.065,4.723,0
4.066,3.441,0
4.067,1.244,0
4.068,3.99,0
4.069,3.624,0
4.07,2.525,0
4.071,-0.771,0
4.072,2.342,0
4.073,2.708,0
4.074,-2.235,0
4.075,-6.813,0
4.076,-6.264,0
4.077,-9.01,0
4.078,-7.729,0
4.079,-4.616,0
4.08,-2.052,0
4.081,-1.686,0
4.082,3.99,0
4.083,16.441,0
4.084,43.907,0
4.085,55.626,0
4.086,59.105,0
4.087,62.218,0
4.088,65.147,0
4.089,62.584,0
4.09,26.146,0
4.091,-21.095,0
4.092,-39.955,0
4.093,-57.167,0
4.094,-62.294,0
4.095,-67.055,0
4.096,-62.843,0
4.097,-58.998,0
4.098,-55.519,0
4.099,-45.998,0
4.1,-43.068,0
4.101,-35.194,0
4.102,-32.814,0
4.103,-26.222,0
4.104,-20.18,0
4.105,-18.349,0
4.106,-13.405,0
4.107,-5.897,0
4.108,-7.179,0
4.109,-6.081,0
4.11,-2.785,0
4.111,2.159,0
4.112,4.906,0
4.113,8.934,0
4.114,9.667,0
4.115,10.216,0
4.116,7.103,0
4.117,3.258,0
4.118,5.638,0
4.119,5.272,0
4.12,6.371,0
4.121,8.202,0
4.122,7.103,0
4.123,3.075,0
4.124,3.624,0
4.125,-0.954,0
4.126,-1.503,0
4.127,0.145,0
4.128,0.511,0
4.129,2.708,0
4.13,3.075,0
4.131,0.145,0
4.132,2.708,0
4.133,8.202,0
4.134,19.737,0
4.135,44.64,0
4.136,76.866,0
4.137,81.078,0
4.138,37.682,0
4.139,-2.602,0
4.14,-28.786,0
4.141,-33.546,0
4.142,-46.364,0
4.143,-50.209,0
4.144,-46.73,0
4.145,-43.617,0
4.146,-40.688,0
4.147,-38.124,0
4.148,-35.744,0
4.149,-29.152,0
4.15,-27.138,0
4.151,-17.982,0
4.152,-19.63,0
4.153,-15.236,0
4.154,-13.954,0
4.155,-12.855,0
4.156,-11.757,0
4.157,-6.813,0
4.158,-5.897,0
4.159,-5.165,0
4.16,-7.362,0
4.161,-5.531,0
4.162,-3.7,0
4.163,2.525,0
4.164,0.145,0
4.165,2.342,0
4.166,0.511,0
4.167,-0.038,0
4.168,6.188,0
4.169,3.807,0
4.17,4.54,0
4.171,1.244,0
4.172,0.694,0
4.173,1.244,0
4.174,-2.052,0
4.175,-3.334,0
4.176,-6.081,0
4.177,-4.25,0
4.178,-0.221,0
4.179,1.061,0
4.18,-0.221,0
4.181,1.793,0
4.182,1.61,0
4.183,-1.869,0
4.184,5.089,0
4.185,20.287,0
4.186,53.429,0
4.187,77.232,0
4.188,47.02,0
4.189,3.624,0
4.19,-25.124,0
4.191,-30.25,0
4.192,-35.011,0
4.193,-39.223,0
4.194,-43.068,0
4.195,-32.448,0
4.196,-29.335,0
4.197,-26.405,0
4.198,-23.842,0
4.199,-26.222,0
4.2,-24.025,0
4.201,-17.982,0
4.202,-19.813,0
4.203,-18.166,0
4.204,-13.771,0
4.205,-9.743,0
4.206,-8.644,0
4.207,-7.545,0
4.208,-6.63,0
4.209,-2.052,0
4.21,-6.081,0
4.211,-6.813,0
4.212,-3.517,0
4.213,-0.404,0
4.214,-0.954,0
4.215,0.328,0
4.216,0.694,0
4.217,-1.32,0
4.218,1.244,0
4.219,-2.785,0
4.22,-2.418,0
4.221,-3.7,0
4.222,-0.954,0
4.223,2.525,0
4.224,0.328,0
4.225,0.694,0
4.226,-1.869,0
4.227,-0.038,0
4.228,-0.771,0
4.229,-1.503,0
4.23,-4.982,0
4.231,-4.616,0
4.232,-3.517,0
4.233,-3.517,0
4.234,-0.954,0
4.235,4.54,0
4.236,16.075,0
4.237,40.978,0
4.238,73.204,0
4.239,60.387,0
4.24,32.921,0
4.241,0.694,0
4.242,-20.912,0
4.243,-32.631,0
4.244,-43.251,0
4.245,-46.364,0
4.246,-43.434,0
4.247,-40.871,0
4.248,-38.49,0
4.249,-36.293,0
4.25,-30.25,0
4.251,-24.757,0
4.252,-16.518,0
4.253,6.004,0
4.254,9.117,0
4.255,-5.714,0
4.256,-13.588,0
4.257,-15.968,0
4.258,-18.166,0
4.259,-16.151,0
4.26,-17.982,0
4.261,-19.63,0
4.262,-15.236,0
4.263,-13.954,0
4.264,-10.475,0
4.265,-7.179,0
4.266,-10.109,0
4.267,-7.362,0
4.268,-4.982,0
4.269,-7.179,0
4.27,-3.883,0
4.271,-2.052,0
4.272,1.793,0
4.273,4.173,0
4.274,4.54,0
4.275,3.441,0
4.276,3.075,0
4.277,4.906,0
4.278,1.61,0
4.279,1.976,0
4.28,1.61,0
4.281,2.708,0
4.282,2.342,0
4.283,3.075,0
4.284,2.342,0
4.285,3.075,0
4.286,6.554,0
4.287,13.512,0
4.288,28.709,0
4.289,57.457,0
4.29,77.049,0
4.291,66.429,0
4.292,30.724,0
4.293,-12.306,0
4.294,-29.518,0
4.295,-45.082,0
4.296,-49.843,0
4.297,-45.631,0
4.298,-49.477,0
4.299,-38.856,0
4.3,-41.969,0
4.301,-44.899,0
4.302,-37.025,0
4.303,-34.645,0
4.304,-28.053,0
4.305,-26.039,0
4.306,-20.546,0
4.307,-15.602,0
4.308,-14.137,0
4.309,-10.109,0
4.31,-9.01,0
4.311,-5.714,0
4.312,-6.63,0
4.313,-3.883,0
4.314,-1.503,0
4.315,-0.771,0
4.316,1.061,0
4.317,5.455,0
4.318,4.906,0
4.319,6.188,0
4.32,5.821,0
4.321,3.807,0
4.322,4.906,0
4.323,2.342,0
4.324,0.328,0
4.325,-1.503,0
4.326,-0.771,0
4.327,2.708,0
4.328,-3.883,0
4.329,-1.137,0
4.33,1.244,0
4.331,1.976,0
4.332,5.272,0
4.333,5.821,0
4.334,4.173,0
4.335,-0.587,0
4.336,-5.165,0
4.337,4.356,0
4.338,24.864,0
4.339,63.5,0
4.34,68.626,0
4.341,35.301,0
4.342,5.089,0
4.343,-14.503,0
4.344,-32.265,0
4.345,-35.377,0
4.346,-38.307,0
4.347,-40.871,0
4.348,-33.729,0
4.349,-31.532,0
4.35,-29.518,0
4.351,-24.025,0
4.352,-19.081,0
4.353,-20.546,0
4.354,-16.518,0
4.355,-10.475,0
4.356,-13.771,0
4.357,-12.855,0
4.358,-13.771,0
4.359,-13.039,0
4.36,-9.193,0
4.361,-5.897,0
4.362,-7.729,0
4.363,-7.179,0
4.364,-3.883,0
4.365,-2.602,0
4.366,0.145,0
4.367,1.976,0
4.368,1.61,0
4.369,0.877,0
4.37,1.061,0
4.371,0.877,0
4.372,1.061,0
4.373,-0.404,0
4.374,-1.32,0
4.375,-2.235,0
4.376,-0.221,0
4.377,-0.587,0
4.378,-2.052,0
4.379,-3.334,0
4.38,0.694,0
4.381,0.145,0
4.382,-2.235,0
4.383,1.976,0
4.384,-3.151,0
4.385,-3.7,0
4.386,-4.982,0
4.387,-0.587,0
4.388,7.835,0
4.389,26.329,0
4.39,61.302,0
4.391,75.584,0
4.392,45.372,0
4.393,1.976,0
4.394,-15.236,0
4.395,-30.8,0
4.396,-35.561,0
4.397,-39.772,0
4.398,-35.927,0
4.399,-39.406,0
4.4,-29.884,0
4.401,-32.814,0
4.402,-30.25,0
4.403,-27.87,0
4.404,-21.278,0
4.405,-23.292,0
4.406,-17.799,0
4.407,-16.151,0
4.408,-14.687,0
4.409,-13.405,0
4.41,-16.884,0
4.411,-13.588,0
4.412,-6.63,0
4.413,-0.221,0
4.414,0.511,0
4.415,4.356,0
4.416,-1.869,0
4.417,3.807,0
4.418,3.075,0
4.419,1.244,0
4.42,-3.151,0
4.421,-2.602,0
4.422,-3.883,0
4.423,-6.081,0
4.424,-8.095,0
4.425,-3.883,0
4.426,-5.531,0
4.427,-4.25,0
4.428,-0.038,0
4.429,1.61,0
4.43,2.892,0
4.431,7.103,0
4.432,1.976,0
4.433,1.427,0
4.434,3.258,0
4.435,2.708,0
4.436,-0.587,0
4.437,0.145,0
4.438,-2.052,0
4.439,4.173,0
4.44,18.089,0
4.441,48.302,0
4.442,61.119,0
4.443,72.838,0
4.444,47.936,0
4.445,5.638,0
4.446,-11.574,0
4.447,-27.138,0
4.448,-41.42,0
4.449,-45.631,0
4.45,-41.786,0
4.451,-31.166,0
4.452,-40.688,0
4.453,-31.898,0
4.454,-39.772,0
4.455,-32.631,0
4.456,-26.039,0
4.457,-19.997,0
4.458,-18.166,0
4.459,-16.518,0
4.46,-17.982,0
4.461,-11.208,0
4.462,-5.165,0
4.463,-4.066,0
4.464,-3.151,0
4.465,-4.066,0
4.466,-1.686,0
4.467,-2.418,0
4.468,-1.869,0
4.469,-2.418,0
4.47,-6.264,0
4.471,-2.968,0
4.472,-4.25,0
4.473,-5.348,0
4.474,-1.137,0
4.475,-1.686,0
4.476,-2.968,0
4.477,-1.686,0
4.478,-2.052,0
4.479,-3.883,0
4.48,-5.714,0
4.481,-4.25,0
4.482,-4.982,0
4.483,-0.954,0
4.484,0.694,0
4.485,3.99,0
4.486,3.624,0
4.487,4.723,0
4.488,2.342,0
4.489,1.244,0
4.49,-2.052,0
4.491,-1.686,0
4.492,-5.165,0
4.493,-3.883,0
4.494,-4.25,0
4.495,1.427,0
4.496,-2.602,0
4.497,-0.404,0
4.498,4.173,0
4.499,13.695,0
4.5,20.47,0
4.501,1.976,0
4.502,4.54,0
4.503,26.512,0
4.504,41.344,0
4.505,43.907,0
4.506,41.527,0
4.507,8.385,0
4.508,-24.94,0
4.509,-46.547,0
4.51,-50.392,0
4.511,-53.871,0
4.512,-56.984,0
4.513,-54.054,0
4.514,-46.181,0
4.515,-39.04,0
4.516,-36.842,0
4.517,-30.8,0
4.518,-28.969,0
4.519,-24.025,0
4.52,-16.518,0
4.521,-15.236,0
4.522,-14.137,0
4.523,-10.841,0
4.524,-5.897,0
4.525,2.525,0
4.526,-0.771,0
4.527,0.145,0
4.528,2.892,0
4.529,3.624,0
4.53,1.427,0
4.531,3.258,0
4.532,7.652,0
4.533,7.103,0
4.534,11.681,0
4.535,7.286,0
4.536,8.934,0
4.537,9.3,0
4.538,9.667,0
4.539,10.399,0
4.54,16.625,0
4.541,30.541,0
4.542,52.696,0
4.543,67.528,0
4.544,97.008,0
4.545,100.85,0
4.546,75.951,0
4.547,27.245,0
4.548,-7.729,0
4.549,-26.588,0
4.55,-32.265,0
4.551,-47.829,0
4.552,-62.111,0
4.553,-74.928,0
4.554,-71.083,0
4.555,-81.703,0
4.556,-78.59,0
4.557,-81.52,0
4.558,-73.646,0
4.559,-61.562,0
4.56,-50.575,0
4.561,-44.533,0
4.562,-42.702,0
4.563,-57.716,0
4.564,-71.815,0
4.565,-84.633,0
4.566,-102.94,0
4.567,-119.79,0
4.568,-139.75,0
4.569,-137.18,0
4.57,-144.32,0
4.571,-128.94,0
4.572,-118.87,0
4.573,-106.06,0
4.574,-81.154,0
4.575,-48.927,0
4.576,16.075,0
4.577,118.8,0
4.578,159.63,0
4.579,172.08,0
4.58,160.91,0
4.581,130.15,0
4.582,120.81,0
4.583,95.543,0
4.584,72.472,0
4.585,51.598,0
4.586,57.823,0
4.587,75.035,0
4.588,90.599,0
4.589,114.4,0
4.59,120.26,0
4.591,124.47,0
4.592,128.32,0
4.593,146.08,0
4.594,162.19,0
4.595,170.98,0
4.596,184.35,0
4.597,147.91,0
4.598,79.613,0
4.599,32.921,0
4.6,-9.376,0
4.601,-17.067,0
4.602,-10.109,0
4.603,-28.969,0
4.604,-34.645,0
4.605,-50.209,0
4.606,-45.448,0
4.607,-58.266,0
4.608,-62.111,0
4.609,-51.491,0
4.61,-61.012,0
4.611,-63.942,0
4.612,-66.505,0
4.613,-64.125,0
4.614,-66.322,0
4.615,-60.28,0
4.616,-62.111,0
4.617,-60.463,0
4.618,-64.857,0
4.619,-66.139,0
4.62,-69.618,0
4.621,-70.717,0
4.622,-73.646,0
4.623,-72.731,0
4.624,-67.055,0
4.625,-64.857,0
4.626,-60.28,0
4.627,-52.04,0
4.628,-46.364,0
4.629,-39.406,0
4.63,-36.659,0
4.631,-30.983,0
4.632,-27.138,0
4.633,-25.307,0
4.634,-25.856,0
4.635,-19.63,0
4.636,-20.363,0
4.637,-15.053,0
4.638,-13.222,0
4.639,-8.827,0
4.64,-7.179,0
4.641,-4.25,0
4.642,-0.954,0
4.643,6.004,0
4.644,12.962,0
4.645,26.878,0
4.646,57.091,0
4.647,87.303,0
4.648,59.837,0
4.649,27.611,0
4.65,-2.602,0
4.651,-30.067,0
4.652,-40.688,0
4.653,-50.209,0
4.654,-47.279,0
4.655,-44.716,0
4.656,-47.096,0
4.657,-40.504,0
4.658,-34.462,0
4.659,-28.969,0
4.66,-24.025,0
4.661,-19.63,0
4.662,-12.855,0
4.663,-9.376,0
4.664,-3.7,0
4.665,-0.771,0
4.666,-1.686,0
4.667,2.342,0
4.668,3.075,0
4.669,7.652,0
4.67,7.103,0
4.671,5.455,0
4.672,5.089,0
4.673,7.286,0
4.674,11.864,0
4.675,13.695,0
4.676,12.047,0
4.677,10.765,0
4.678,6.554,0
4.679,6.004,0
4.68,5.638,0
4.681,2.525,0
4.682,5.272,0
4.683,6.371,0
4.684,0.877,0
4.685,1.61,0
4.686,1.061,0
4.687,-0.771,0
4.688,-2.418,0
4.689,-0.038,0
4.69,-0.404,0
4.691,4.173,0
4.692,6.737,0
4.693,3.624,0
4.694,12.047,0
4.695,30.541,0
4.696,70.824,0
4.697,76.5,0
4.698,50.316,0
4.699,16.991,0
4.7,-13.222,0
4.701,-24.94,0
4.702,-35.561,0
4.703,-38.673,0
4.704,-41.603,0
4.705,-39.04,0
4.706,-36.659,0
4.707,-34.462,0
4.708,-28.419,0
4.709,-22.926,0
4.71,-14.687,0
4.711,-19.081,0
4.712,-15.053,0
4.713,-13.954,0
4.714,-8.278,0
4.715,-7.362,0
4.716,-8.278,0
4.717,-9.01,0
4.718,-5.165,0
4.719,-6.996,0
4.72,-3.883,0
4.721,-2.235,0
4.722,-3.517,0
4.723,-0.404,0
4.724,0.694,0
4.725,1.793,0
4.726,2.892,0
4.727,3.075,0
4.728,-0.587,0
4.729,-0.954,0
4.73,0.328,0
4.731,-3.517,0
4.732,-0.221,0
4.733,-2.418,0
4.734,0.328,0
4.735,-1.503,0
4.736,-1.137,0
4.737,2.892,0
4.738,-0.954,0
4.739,-2.235,0
4.74,-5.348,0
4.741,-2.602,0
4.742,-2.235,0
4.743,-2.052,0
4.744,3.441,0
4.745,14.977,0
4.746,16.625,0
4.747,0.145,0
4.748,-6.447,0
4.749,-0.404,0
4.75,27.062,0
4.751,54.527,0
4.752,36.766,0
4.753,20.653,0
4.754,-11.94,0
4.755,-33.546,0
4.756,-45.265,0
4.757,-48.744,0
4.758,-51.857,0
4.759,-48.927,0
4.76,-46.364,0
4.761,-43.983,0
4.762,-37.392,0
4.763,-31.349,0
4.764,-25.856,0
4.765,-27.504,0
4.766,-23.109,0
4.767,-19.081,0
4.768,-13.039,0
4.769,-11.94,0
4.77,-11.024,0
4.771,-8.278,0
4.772,-4.25,0
4.773,-3.517,0
4.774,-0.221,0
4.775,1.61,0
4.776,5.455,0
4.777,7.835,0
4.778,6.554,0
4.779,1.976,0
4.78,2.525,0
4.781,4.173,0
4.782,5.455,0
4.783,3.258,0
4.784,0.511,0
4.785,0.877,0
4.786,-0.954,0
4.787,-0.221,0
4.788,-0.038,0
4.789,1.793,0
4.79,-1.32,0
4.791,-0.221,0
4.792,-4.433,0
4.793,0.694,0
4.794,3.075,0
4.795,4.906,0
4.796,14.427,0
4.797,26.695,0
4.798,51.598,0
4.799,76.5,0
4.8,73.387,0
4.801,46.654,0
4.802,0.145,0
4.803,-18.715,0
4.804,-35.927,0
4.805,-41.054,0
4.806,-45.814,0
4.807,-50.026,0
4.808,-46.181,0
4.809,-42.702,0
4.81,-39.589,0
4.811,-36.659,0
4.812,-28.786,0
4.813,-21.645,0
4.814,-19.447,0
4.815,-17.433,0
4.816,-15.602,0
4.817,-17.25,0
4.818,-12.855,0
4.819,-8.827,0
4.82,-7.729,0
4.821,-4.433,0
4.822,-1.503,0
4.823,1.244,0
4.824,3.624,0
4.825,7.469,0
4.826,5.638,0
4.827,7.469,0
4.828,3.624,0
4.829,1.244,0
4.83,3.441,0
4.831,4.54,0
4.832,0.328,0
4.833,-1.32,0
4.834,-4.616,0
4.835,-5.897,0
4.836,-4.799,0
4.837,-1.32,0
4.838,-4.433,0
4.839,-2.418,0
4.84,-3.517,0
4.841,-0.954,0
4.842,2.342,0
4.843,5.455,0
4.844,0.877,0
4.845,2.342,0
4.846,5.455,0
4.847,13.878,0
4.848,17.357,0
4.849,34.386,0
4.85,70.824,0
4.851,55.26,0
4.852,12.23,0
4.853,-16.518,0
4.854,-32.082,0
4.855,-36.842,0
4.856,-41.054,0
4.857,-44.899,0
4.858,-41.42,0
4.859,-44.533,0
4.86,-41.603,0
4.861,-39.04,0
4.862,-31.898,0
4.863,-29.701,0
4.864,-27.687,0
4.865,-22.194,0
4.866,-13.954,0
4.867,-12.489,0
4.868,-11.208,0
4.869,-7.729,0
4.87,0.145,0
4.871,-4.799,0
4.872,-5.714,0
4.873,-1.686,0
4.874,-0.954,0
4.875,-0.404,0
4.876,-4.799,0
4.877,-3.151,0
4.878,-1.869,0
4.879,1.244,0
4.88,3.99,0
4.881,-0.221,0
4.882,0.328,0
4.883,3.624,0
4.884,5.821,0
4.885,3.807,0
4.886,-1.137,0
4.887,0.694,0
4.888,-1.137,0
4.889,-1.686,0
4.89,-2.052,0
4.891,-2.418,0
4.892,-2.052,0
4.893,-3.151,0
4.894,-2.052,0
4.895,-0.587,0
4.896,-2.785,0
4.897,-0.954,0
4.898,3.075,0
4.899,11.498,0
4.9,29.991,0
4.901,48.668,0
4.902,65.514,0
4.903,76.5,0
4.904,50.316,0
4.905,3.807,0
4.906,-27.87,0
4.907,-33.546,0
4.908,-49.11,0
4.909,-53.871,0
4.91,-58.083,0
4.911,-54.237,0
4.912,-57.716,0
4.913,-48.195,0
4.914,-45.265,0
4.915,-37.392,0
4.916,-30.25,0
4.917,-23.659,0
4.918,-25.673,0
4.919,-16.518,0
4.92,-11.574,0
4.921,-10.109,0
4.922,-8.827,0
4.923,-7.729,0
4.924,-6.63,0
4.925,-5.714,0
4.926,-2.968,0
4.927,4.54,0
4.928,7.469,0
4.929,8.385,0
4.93,9.117,0
4.931,5.272,0
4.932,8.568,0
4.933,2.892,0
4.934,-0.954,0
4.935,-1.503,0
4.936,2.892,0
4.937,1.244,0
4.938,4.54,0
4.939,2.342,0
4.94,0.328,0
4.941,-0.771,0
4.942,-1.869,0
4.943,-2.052,0
4.944,-0.221,0
4.945,1.61,0
4.946,0.145,0
4.947,0.877,0
4.948,-1.503,0
4.949,3.075,0
4.95,13.329,0
4.951,35.851,0
4.952,65.147,0
4.953,84.74,0
4.954,52.513,0
4.955,13.512,0
4.956,-12.672,0
4.957,-36.476,0
4.958,-40.688,0
4.959,-52.406,0
4.96,-48.927,0
4.961,-52.04,0
4.962,-49.11,0
4.963,-41.237,0
4.964,-38.856,0
4.965,-36.659,0
4.966,-26.588,0
4.967,-24.757,0
4.968,-19.813,0
4.969,-15.419,0
4.97,-11.391,0
4.971,-10.292,0
4.972,-6.996,0
4.973,-4.066,0
4.974,-1.32,0
4.975,-3.7,0
4.976,-2.968,0
4.977,-2.418,0
4.978,0.694,0
4.979,-2.052,0
4.98,1.244,0
4.981,4.356,0
4.982,1.61,0
4.983,2.708,0
4.984,0.877,0
4.985,-0.587,0
4.986,0.145,0
4.987,0.328,0
4.988,0.877,0
4.989,4.173,0
4.99,11.131,0
4.991,26.329,0
4.992,19.737,0
4.993,5.638,0
4.994,-3.517,0
4.995,-8.461,0
4.996,-9.926,0
4.997,-16.701,0
4.998,-14.503,0
4.999,-13.405,0
5,-0.954,0
5.001,17.357,0
5.002,53.795,0
5.003,69.359,0
5.004,36.034,0
5.005,5.821,0
5.006,-13.771,0
5.007,-24.391,0
5.008,-33.913,0
5.009,-36.842,0
5.01,-39.406,0
5.011,-37.025,0
5.012,-39.223,0
5.013,-29.152,0
5.014,-27.321,0
5.015,-28.969,0
5.016,-24.574,0
5.017,-17.799,0
5.018,-14.32,0
5.019,-13.222,0
5.02,-10.292,0
5.021,-9.376,0
5.022,-5.348,0
5.023,-6.081,0
5.024,-1.503,0
5.025,-0.954,0
5.026,1.793,0
5.027,4.173,0
5.028,3.807,0
5.029,-0.771,0
5.03,-2.602,0
5.031,-0.954,0
5.032,1.427,0
5.033,1.061,0
5.034,0.694,0
5.035,-3.517,0
5.036,0.328,0
5.037,0.694,0
5.038,1.976,0
5.039,2.342,0
5.04,-0.221,0
5.041,1.61,0
5.042,2.342,0
5.043,-1.32,0
5.044,1.061,0
5.045,-3.151,0
5.046,0.694,0
5.047,-1.686,0
5.048,-2.052,0
5.049,-3.517,0
5.05,-4.616,0
5.051,1.061,0
5.052,13.512,0
5.053,40.978,0
5.054,68.443,0
5.055,86.205,0
5.056,56.908,0
5.057,13.512,0
5.058,-15.236,0
5.059,-30.8,0
5.06,-35.561,0
5.061,-39.772,0
5.062,-51.491,0
5.063,-48.012,0
5.064,-51.125,0
5.065,-48.195,0
5.066,-45.631,0
5.067,-38.49,0
5.068,-36.293,0
5.069,-30.25,0
5.07,-21.095,0
5.071,-19.447,0
5.072,-17.982,0
5.073,-13.954,0
5.074,-7.912,0
5.075,-4.616,0
5.076,-5.531,0
5.077,-6.447,0
5.078,-2.418,0
5.079,1.427,0
5.08,3.258,0
5.081,5.089,0
5.082,6.737,0
5.083,5.455,0
5.084,5.089,0
5.085,3.99,0
5.086,2.892,0
5.087,3.99,0
5.088,5.455,0
5.089,1.244,0
5.09,0.694,0
5.091,0.145,0
5.092,-0.221,0
5.093,0.145,0
5.094,0.511,0
5.095,2.342,0
5.096,-2.418,0
5.097,-5.531,0
5.098,-6.081,0
5.099,-7.362,0
5.1,-10.109,0
5.101,-4.982,0
5.102,-4.433,0
5.103,5.089,0
5.104,25.597,0
5.105,52.33,0
5.106,55.809,0
5.107,78.331,0
5.108,69.542,0
5.109,29.259,0
5.11,-11.024,0
5.111,-26.588,0
5.112,-40.871,0
5.113,-45.082,0
5.114,-48.927,0
5.115,-52.406,0
5.116,-49.293,0
5.117,-46.364,0
5.118,-43.8,0
5.119,-41.42,0
5.12,-39.223,0
5.121,-33.18,0
5.122,-20.363,0
5.123,-18.715,0
5.124,-20.18,0
5.125,-13.405,0
5.126,-9.926,0
5.127,-8.827,0
5.128,-5.897,0
5.129,-4.982,0
5.13,-2.602,0
5.131,-1.869,0
5.132,1.427,0
5.133,-0.404,0
5.134,8.019,0
5.135,1.976,0
5.136,3.075,0
5.137,0.145,0
5.138,2.892,0
5.139,3.624,0
5.14,5.821,0
5.141,9.117,0
5.142,8.568,0
5.143,4.723,0
5.144,5.089,0
5.145,5.455,0
5.146,5.089,0
5.147,3.258,0
5.148,-0.038,0
5.149,3.807,0
5.15,0.511,0
5.151,-4.982,0
5.152,-6.264,0
5.153,-0.038,0
5.154,13.878,0
5.155,44.09,0
5.156,65.697,0
5.157,85.289,0
5.158,53.063,0
5.159,14.061,0
5.16,-22.56,0
5.161,-36.842,0
5.162,-41.054,0
5.163,-44.899,0
5.164,-48.378,0
5.165,-45.265,0
5.166,-48.195,0
5.167,-45.631,0
5.168,-43.251,0
5.169,-36.659,0
5.17,-34.645,0
5.171,-29.152,0
5.172,-24.208,0
5.173,-16.701,0
5.174,-15.419,0
5.175,-6.996,0
5.176,-5.897,0
5.177,-2.968,0
5.178,3.441,0
5.179,1.061,0
5.18,-1.137,0
5.181,-0.587,0
5.182,-1.137,0
5.183,-1.686,0
5.184,1.61,0
5.185,1.976,0
5.186,4.723,0
5.187,5.821,0
5.188,9.117,0
5.189,2.892,0
5.19,3.807,0
5.191,1.427,0
5.192,6.737,0
5.193,4.906,0
5.194,3.075,0
5.195,4.723,0
5.196,4.356,0
5.197,3.075,0
5.198,3.441,0
5.199,1.61,0
5.2,6.371,0
5.201,1.976,0
5.202,-2.785,0
5.203,-2.235,0
5.204,5.272,0
5.205,22.301,0
5.206,44.273,0
5.207,76.866,0
5.208,55.26,0
5.209,27.794,0
5.21,-4.433,0
5.211,-26.039,0
5.212,-37.758,0
5.213,-41.237,0
5.214,-44.35,0
5.215,-47.279,0
5.216,-44.716,0
5.217,-42.335,0
5.218,-35.744,0
5.219,-33.729,0
5.22,-31.898,0
5.221,-26.955,0
5.222,-25.49,0
5.223,-21.461,0
5.224,-17.982,0
5.225,-12.306,0
5.226,-11.391,0
5.227,-10.475,0
5.228,-6.447,0
5.229,-1.137,0
5.23,-0.587,0
5.231,-2.418,0
5.232,-4.066,0
5.233,-2.785,0
5.234,2.342,0
5.235,9.85,0
5.236,25.047,0
5.237,36.034,0
5.238,13.878,0
5.239,-0.954,0
5.24,-3.517,0
5.241,-10.658,0
5.242,-17.25,0
5.243,-15.236,0
5.244,-13.405,0
5.245,-15.053,0
5.246,-10.658,0
5.247,-9.376,0
5.248,-8.278,0
5.249,-4.982,0
5.25,-7.912,0
5.251,-6.996,0
5.252,-6.264,0
5.253,-4.25,0
5.254,-2.052,0
5.255,-3.883,0
5.256,5.638,0
5.257,26.146,0
5.258,70.641,0
5.259,51.781,0
5.26,11.498,0
5.261,-4.066,0
5.262,-27.87,0
5.263,-32.082,0
5.264,-35.927,0
5.265,-39.406,0
5.266,-36.293,0
5.267,-33.363,0
5.268,-30.8,0
5.269,-28.419,0
5.27,-21.828,0
5.271,-19.813,0
5.272,-17.982,0
5.273,-13.039,0
5.274,-11.574,0
5.275,-7.545,0
5.276,-4.066,0
5.277,-7.362,0
5.278,-8.278,0
5.279,-1.869,0
5.28,-1.137,0
5.281,-1.869,0
5.282,2.708,0
5.283,2.159,0
5.284,2.708,0
5.285,5.089,0
5.286,12.047,0
5.287,12.962,0
5.288,17.54,0
5.289,21.568,0
5.29,25.414,0
5.291,28.709,0
5.292,26.878,0
5.293,21.751,0
5.294,19.92,0
5.295,16.808,0
5.296,12.962,0
5.297,11.681,0
5.298,4.723,0
5.299,-10.475,0
5.3,-21.461,0
5.301,-31.532,0
5.302,-40.688,0
5.303,-48.927,0
5.304,-50.392,0
5.305,-42.885,0
5.306,-22.377,0
5.307,-1.686,0
5.308,27.794,0
5.309,23.949,0
5.31,-29.701,0
5.311,-83.534,0
5.312,-132.42,0
5.313,-164.1,0
5.314,-181.31,0
5.315,-186.44,0
5.316,-200.72,0
5.317,-187.9,0
5.318,-168.31,0
5.319,-143.41,0
5.32,-133.89,0
5.321,-101.3,0
5.322,-62.294,0
5.323,16.441,0
5.324,118.06,0
5.325,158.9,0
5.326,171.35,0
5.327,160.18,0
5.328,129.42,0
5.329,101.4,0
5.33,109.83,0
5.331,102.14,0
5.332,95.177,0
5.333,101.4,0
5.334,118.61,0
5.335,155.24,0
5.336,160,0
5.337,164.21,0
5.338,152.49,0
5.339,134.73,0
5.34,118.61,0
5.341,115.69,0
5.342,102.32,0
5.343,80.345,0
5.344,53.612,0
5.345,28.709,0
5.346,19.188,0
5.347,16.258,0
5.348,24.132,0
5.349,16.991,0
5.35,6.004,0
5.351,-8.095,0
5.352,-17.25,0
5.353,-25.49,0
5.354,-32.997,0
5.355,-30.617,0
5.356,-40.138,0
5.357,-41.237,0
5.358,-33.363,0
5.359,-18.166,0
5.36,10.582,0
5.361,-9.01,0
5.362,-26.771,0
5.363,-69.069,0
5.364,-86.281,0
5.365,-101.84,0
5.366,-116.13,0
5.367,-120.34,0
5.368,-124.18,0
5.369,-120.7,0
5.37,-111.18,0
5.371,-102.39,0
5.372,-94.521,0
5.373,-87.379,0
5.374,-76.393,0
5.375,-70.351,0
5.376,-64.857,0
5.377,-56.618,0
5.378,-46.181,0
5.379,-42.152,0
5.38,-33.729,0
5.381,-25.856,0
5.382,-20.912,0
5.383,-18.166,0
5.384,-17.433,0
5.385,-12.123,0
5.386,-7.545,0
5.387,-5.714,0
5.388,-5.165,0
5.389,-0.587,0
5.39,-0.038,0
5.391,5.089,0
5.392,6.92,0
5.393,6.371,0
5.394,5.821,0
5.395,3.441,0
5.396,7.652,0
5.397,4.906,0
5.398,10.399,0
5.399,8.202,0
5.4,8.751,0
5.401,6.92,0
5.402,6.371,0
5.403,6.737,0
5.404,7.103,0
5.405,8.202,0
5.406,6.004,0
5.407,8.568,0
5.408,14.061,0
5.409,25.597,0
5.41,50.499,0
5.411,68.26,0
5.412,90.782,0
5.413,75.951,0
5.414,35.667,0
5.415,-4.616,0
5.416,-30.8,0
5.417,-35.561,0
5.418,-48.378,0
5.419,-44.533,0
5.42,-48.012,0
5.421,-44.899,0
5.422,-41.969,0
5.423,-34.096,0
5.424,-31.715,0
5.425,-29.518,0
5.426,-23.476,0
5.427,-17.982,0
5.428,-13.039,0
5.429,-8.644,0
5.43,-4.616,0
5.431,-1.137,0
5.432,-0.038,0
5.433,0.877,0
5.434,3.624,0
5.435,2.892,0
5.436,3.624,0
5.437,4.173,0
5.438,3.624,0
5.439,7.469,0
5.44,4.173,0
5.441,8.385,0
5.442,3.258,0
5.443,2.708,0
5.444,0.877,0
5.445,4.723,0
5.446,3.441,0
5.447,3.807,0
5.448,4.906,0
5.449,4.54,0
5.45,3.441,0
5.451,1.427,0
5.452,-1.137,0
5.453,-1.503,0
5.454,2.525,0
5.455,-0.221,0
5.456,0.145,0
5.457,2.342,0
5.458,-2.785,0
5.459,3.441,0
5.46,15.892,0
5.461,43.358,0
5.462,55.077,0
5.463,58.556,0
5.464,55.443,0
5.465,40.611,0
5.466,43.175,0
5.467,45.555,0
5.468,25.597,0
5.469,-9.376,0
5.47,-42.702,0
5.471,-64.308,0
5.472,-68.153,0
5.473,-71.632,0
5.474,-74.745,0
5.475,-71.815,0
5.476,-63.942,0
5.477,-56.801,0
5.478,-50.209,0
5.479,-40.138,0
5.48,-34.645,0
5.481,-19.63,0
5.482,10.582,0
5.483,6.371,0
5.484,-5.348,0
5.485,-15.968,0
5.486,-12.855,0
5.487,-15.785,0
5.488,-7.912,0
5.489,-10.292,0
5.49,-8.095,0
5.491,-6.081,0
5.492,-4.25,0
5.493,3.99,0
5.494,-0.404,0
5.495,0.877,0
5.496,-0.221,0
5.497,3.075,0
5.498,3.99,0
5.499,4.906,0
5.5,2.525,0
5.501,4.723,0
5.502,1.427,0
5.503,5.821,0
5.504,6.371,0
5.505,5.089,0
5.506,3.807,0
5.507,-0.771,0
5.508,0.877,0
5.509,3.99,0
5.51,12.413,0
5.511,13.512,0
5.512,30.541,0
5.513,66.979,0
5.514,61.852,0
5.515,18.822,0
5.516,-9.926,0
5.517,-25.49,0
5.518,-30.25,0
5.519,-34.462,0
5.52,-38.307,0
5.521,-34.828,0
5.522,-31.715,0
5.523,-34.645,0
5.524,-32.082,0
5.525,-29.701,0
5.526,-27.504,0
5.527,-21.461,0
5.528,-19.63,0
5.529,-14.687,0
5.53,-10.292,0
5.531,-6.264,0
5.532,-7.362,0
5.533,-4.066,0
5.534,-3.151,0
5.535,-9.56,0
5.536,-8.827,0
5.537,-6.63,0
5.538,-7.179,0
5.539,-1.503,0
5.54,2.342,0
5.541,-0.954,0
5.542,3.441,0
5.543,7.286,0
5.544,6.92,0
5.545,4.723,0
5.546,0.145,0
5.547,-1.686,0
5.548,-0.038,0
5.549,1.244,0
5.55,-0.954,0
5.551,-2.052,0
5.552,-0.954,0
5.553,-3.517,0
5.554,-3.334,0
5.555,-4.066,0
5.556,-1.137,0
5.557,-2.235,0
5.558,0.328,0
5.559,2.342,0
5.56,2.525,0
5.561,6.737,0
5.562,16.258,0
5.563,36.766,0
5.564,81.261,0
5.565,49.583,0
5.566,9.3,0
5.567,-16.884,0
5.568,-31.166,0
5.569,-43.983,0
5.57,-40.138,0
5.571,-43.617,0
5.572,-40.504,0
5.573,-37.575,0
5.574,-35.011,0
5.575,-32.631,0
5.576,-26.039,0
5.577,-24.025,0
5.578,-18.532,0
5.579,-16.884,0
5.58,-18.349,0
5.581,-14.32,0
5.582,-15.419,0
5.583,-7.545,0
5.584,-8.461,0
5.585,-7.545,0
5.586,-3.517,0
5.587,0.328,0
5.588,-2.968,0
5.589,-1.137,0
5.59,-1.686,0
5.591,-2.052,0
5.592,-3.334,0
5.593,-2.235,0
5.594,-2.602,0
5.595,0.694,0
5.596,-3.883,0
5.597,-0.771,0
5.598,1.976,0
5.599,1.61,0
5.6,1.976,0
5.601,-0.038,0
5.602,-3.517,0
5.603,-7.729,0
5.604,-2.602,0
5.605,0.694,0
5.606,-1.137,0
5.607,-1.686,0
5.608,0.694,0
5.609,1.976,0
5.61,1.61,0
5.611,0.511,0
5.612,6.188,0
5.613,18.639,0
5.614,46.104,0
5.615,73.57,0
5.616,77.049,0
5.617,41.344,0
5.618,-1.686,0
5.619,-30.434,0
5.62,-35.561,0
5.621,-49.843,0
5.622,-45.631,0
5.623,-49.477,0
5.624,-45.998,0
5.625,-42.885,0
5.626,-39.955,0
5.627,-37.392,0
5.628,-30.25,0
5.629,-28.053,0
5.63,-26.039,0
5.631,-27.87,0
5.632,-22.926,0
5.633,-12.489,0
5.634,-13.771,0
5.635,-10.292,0
5.636,-6.996,0
5.637,-2.052,0
5.638,-2.968,0
5.639,1.061,0
5.64,3.258,0
5.641,6.554,0
5.642,3.441,0
5.643,3.99,0
5.644,1.61,0
5.645,1.976,0
5.646,1.61,0
5.647,-0.221,0
5.648,3.075,0
5.649,1.976,0
5.65,-0.587,0
5.651,2.708,0
5.652,-0.038,0
5.653,-0.404,0
5.654,0.694,0
5.655,-0.771,0
5.656,-2.602,0
5.657,1.427,0
5.658,-0.221,0
5.659,-1.503,0
5.66,2.708,0
5.661,-2.052,0
5.662,-1.503,0
5.663,6.004,0
5.664,23.033,0
5.665,49.767,0
5.666,60.387,0
5.667,76.5,0
5.668,55.809,0
5.669,20.836,0
5.67,-12.489,0
5.671,-34.096,0
5.672,-45.814,0
5.673,-56.435,0
5.674,-53.322,0
5.675,-50.392,0
5.676,-47.829,0
5.677,-40.688,0
5.678,-42.885,0
5.679,-36.842,0
5.68,-31.349,0
5.681,-26.405,0
5.682,-22.011,0
5.683,-17.982,0
5.684,-11.94,0
5.685,-13.039,0
5.686,-12.123,0
5.687,-9.376,0
5.688,-8.644,0
5.689,-6.447,0
5.69,-3.151,0
5.691,1.244,0
5.692,0.694,0
5.693,1.976,0
5.694,-0.221,0
5.695,2.525,0
5.696,3.624,0
5.697,6.188,0
5.698,4.723,0
5.699,6.004,0
5.7,4.723,0
5.701,3.258,0
5.702,2.159,0
5.703,3.075,0
5.704,0.328,0
5.705,2.892,0
5.706,1.793,0
5.707,1.61,0
5.708,2.892,0
5.709,1.61,0
5.71,0.145,0
5.711,-2.785,0
5.712,-1.32,0
5.713,1.244,0
5.714,5.272,0
5.715,12.779,0
5.716,29.808,0
5.717,56.542,0
5.718,60.021,0
5.719,43.907,0
5.72,58.739,0
5.721,61.302,0
5.722,34.569,0
5.723,-11.94,0
5.724,-43.617,0
5.725,-60.829,0
5.726,-65.956,0
5.727,-51.674,0
5.728,-30.067,0
5.729,-41.786,0
5.73,-52.406,0
5.731,-55.519,0
5.732,-52.589,0
5.733,-50.026,0
5.734,-42.885,0
5.735,-40.688,0
5.736,-38.673,0
5.737,-33.18,0
5.738,-28.236,0
5.739,-14.687,0
5.74,-12.855,0
5.741,-7.912,0
5.742,-6.447,0
5.743,-5.165,0
5.744,-6.264,0
5.745,-2.968,0
5.746,-0.038,0
5.747,2.708,0
5.748,6.737,0
5.749,10.582,0
5.75,11.131,0
5.751,11.681,0
5.752,7.835,0
5.753,1.244,0
5.754,0.328,0
5.755,4.356,0
5.756,9.667,0
5.757,6.371,0
5.758,6.92,0
5.759,8.568,0
5.76,5.272,0
5.761,7.469,0
5.762,5.455,0
5.763,5.272,0
5.764,3.441,0
5.765,8.934,0
5.766,20.47,0
5.767,45.372,0
5.768,77.599,0
5.769,81.81,0
5.77,46.288,0
5.771,3.258,0
5.772,-13.954,0
5.773,-29.518,0
5.774,-34.279,0
5.775,-47.096,0
5.776,-43.251,0
5.777,-46.73,0
5.778,-43.617,0
5.779,-34.828,0
5.78,-32.265,0
5.781,-29.884,0
5.782,-23.292,0
5.783,-21.278,0
5.784,-15.785,0
5.785,-10.841,0
5.786,-12.306,0
5.787,-8.278,0
5.788,-4.799,0
5.789,-3.7,0
5.79,-0.771,0
5.791,-3.517,0
5.792,-2.785,0
5.793,1.061,0
5.794,0.511,0
5.795,1.061,0
5.796,1.61,0
5.797,0.328,0
5.798,1.61,0
5.799,0.511,0
5.8,-2.052,0
5.801,-0.954,0
5.802,-0.771,0
5.803,-1.503,0
5.804,1.427,0
5.805,-0.404,0
5.806,-3.7,0
5.807,-4.066,0
5.808,-2.968,0
5.809,-4.066,0
5.81,-2.052,0
5.811,1.061,0
5.812,-1.686,0
5.813,0.877,0
5.814,0.877,0
5.815,1.976,0
5.816,6.554,0
5.817,16.808,0
5.818,39.33,0
5.819,61.852,0
5.82,82.542,0
5.821,58.373,0
5.822,22.667,0
5.823,-10.658,0
5.824,-32.265,0
5.825,-43.983,0
5.826,-47.462,0
5.827,-50.575,0
5.828,-53.505,0
5.829,-45.631,0
5.83,-43.251,0
5.831,-36.659,0
5.832,-34.645,0
5.833,-32.814,0
5.834,-31.166,0
5.835,-26.771,0
5.836,-19.997,0
5.837,-16.518,0
5.838,-13.222,0
5.839,-16.151,0
5.84,-7.729,0
5.841,-2.052,0
5.842,-4.982,0
5.843,-0.404,0
5.844,-1.137,0
5.845,-0.404,0
5.846,0.145,0
5.847,1.976,0
5.848,0.328,0
5.849,2.708,0
5.85,3.075,0
5.851,5.821,0
5.852,1.61,0
5.853,3.258,0
5.854,1.976,0
5.855,1.61,0
5.856,5.455,0
5.857,3.075,0
5.858,0.877,0
5.859,-0.221,0
5.86,2.342,0
5.861,-2.418,0
5.862,4.54,0
5.863,1.793,0
5.864,1.061,0
5.865,-4.982,0
5.866,-2.785,0
5.867,7.469,0
5.868,29.991,0
5.869,59.288,0
5.87,78.88,0
5.871,53.978,0
5.872,11.681,0
5.873,-5.531,0
5.874,-31.715,0
5.875,-36.476,0
5.876,-40.688,0
5.877,-36.842,0
5.878,-40.321,0
5.879,-43.434,0
5.88,-40.504,0
5.881,-32.631,0
5.882,-30.25,0
5.883,-23.659,0
5.884,-21.645,0
5.885,-19.813,0
5.886,-18.166,0
5.887,-13.771,0
5.888,-9.743,0
5.889,-8.644,0
5.89,-5.348,0
5.891,-4.433,0
5.892,-3.517,0
5.893,-1.137,0
5.894,1.061,0
5.895,2.892,0
5.896,-0.221,0
5.897,-0.771,0
5.898,2.525,0
5.899,1.244,0
5.9,-3.334,0
5.901,-5.165,0
5.902,-9.01,0
5.903,-3.517,0
5.904,0.328,0
5.905,-1.503,0
5.906,0.328,0
5.907,0.877,0
5.908,1.244,0
5.909,1.61,0
5.91,-0.404,0
5.911,1.427,0
5.912,0.328,0
5.913,-1.686,0
5.914,-2.968,0
5.915,-1.137,0
5.916,0.145,0
5.917,-2.052,0
5.918,2.159,0
5.919,11.681,0
5.92,32.188,0
5.921,76.683,0
5.922,57.823,0
5.923,17.54,0
5.924,-8.644,0
5.925,-32.448,0
5.926,-36.659,0
5.927,-40.504,0
5.928,-43.983,0
5.929,-34.462,0
5.93,-37.392,0
5.931,-34.828,0
5.932,-37.208,0
5.933,-30.617,0
5.934,-28.603,0
5.935,-23.109,0
5.936,-24.757,0
5.937,-20.363,0
5.938,-13.588,0
5.939,-12.489,0
5.94,-4.616,0
5.941,-7.545,0
5.942,-2.968,0
5.943,-0.587,0
5.944,1.61,0
5.945,3.441,0
5.946,1.61,0
5.947,-1.137,0
5.948,-1.503,0
5.949,-0.221,0
5.95,2.525,0
5.951,-2.418,0
5.952,-2.968,0
5.953,-4.799,0
5.954,-4.25,0
5.955,-2.968,0
5.956,-4.25,0
5.957,1.976,0
5.958,-0.771,0
5.959,-1.503,0
5.96,2.342,0
5.961,1.793,0
5.962,3.624,0
5.963,1.976,0
5.964,0.694,0
5.965,-0.587,0
5.966,-2.602,0
5.967,-2.785,0
5.968,-3.883,0
5.969,-0.587,0
5.97,1.427,0
5.971,-1.137,0
5.972,4.356,0
5.973,15.892,0
5.974,37.499,0
5.975,10.765,0
5.976,7.286,0
5.977,23.399,0
5.978,50.133,0
5.979,60.753,0
5.98,70.274,0
5.981,43.541,0
5.982,4.173,0
5.983,-32.448,0
5.984,-46.73,0
5.985,-59.547,0
5.986,-55.702,0
5.987,-52.223,0
5.988,-55.336,0
5.989,-52.406,0
5.99,-49.843,0
5.991,-47.462,0
5.992,-40.871,0
5.993,-34.828,0
5.994,-29.335,0
5.995,-21.095,0
5.996,-19.63,0
5.997,-18.349,0
5.998,-12.306,0
5.999,-9.01,0
6,-6.081,0
6.001,-5.165,0
6.002,-5.897,0
6.003,-2.052,0
6.004,2.525,0
6.005,1.976,0
6.006,3.624,0
6.007,1.244,0
6.008,-0.954,0
6.009,2.892,0
6.01,4.173,0
6.011,6.371,0
6.012,3.624,0
6.013,6.188,0
6.014,2.892,0
6.015,6.737,0
6.016,3.441,0
6.017,1.244,0
6.018,0.877,0
6.019,1.244,0
6.02,6.92,0
6.021,19.371,0
6.022,46.837,0
6.023,82.359,0
6.024,68.077,0
6.025,37.865,0
6.026,2.342,0
6.027,-21.461,0
6.028,-34.279,0
6.029,-45.998,0
6.03,-42.519,0
6.031,-45.631,0
6.032,-42.702,0
6.033,-40.138,0
6.034,-32.997,0
6.035,-30.8,0
6.036,-24.757,0
6.037,-22.926,0
6.038,-21.278,0
6.039,-16.884,0
6.04,-15.602,0
6.041,-9.56,0
6.042,-6.264,0
6.043,-3.334,0
6.044,-6.081,0
6.045,-3.7,0
6.046,-1.503,0
6.047,-0.954,0
6.048,0.877,0
6.049,1.427,0
6.05,1.061,0
6.051,0.694,0
6.052,-0.404,0
6.053,-0.038,0
6.054,0.328,0
6.055,1.061,0
6.056,-1.503,0
6.057,0.328,0
6.058,3.624,0
6.059,0.511,0
6.06,-3.334,0
6.061,-2.052,0
6.062,0.145,0
6.063,1.244,0
6.064,2.342,0
6.065,4.173,0
6.066,-0.404,0
6.067,-2.235,0
6.068,2.159,0
6.069,6.004,0
6.07,7.652,0
6.071,15.16,0
6.072,32.188,0
6.073,63.866,0
6.074,85.472,0
6.075,105.06,0
6.076,87.303,0
6.077,51.598,0
6.078,8.568,0
6.079,-20.18,0
6.08,-35.744,0
6.081,-40.504,0
6.082,-53.322,0
6.083,-65.041,0
6.084,-75.661,0
6.085,-85.182,0
6.086,-82.252,0
6.087,-84.816,0
6.088,-77.675,0
6.089,-66.688,0
6.09,-48.561,0
6.091,-36.476,0
6.092,-47.462,0
6.093,-61.562,0
6.094,-70.717,0
6.095,-95.619,0
6.096,-113.38,0
6.097,-122.9,0
6.098,-131.69,0
6.099,-139.56,0
6.1,-156.41,0
6.101,-158.61,0
6.102,-144.51,0
6.103,-128.03,0
6.104,-112.65,0
6.105,-82.436,0
6.106,-17.433,0
6.107,85.289,0
6.108,126.12,0
6.109,163.47,0
6.11,174.65,0
6.111,143.88,0
6.112,115.87,0
6.113,107.44,0
6.114,99.754,0
6.115,106.71,0
6.116,112.94,0
6.117,130.15,0
6.118,145.71,0
6.119,169.52,0
6.12,166.41,0
6.121,162.19,0
6.122,166.04,0
6.123,155.42,0
6.124,171.53,0
6.125,180.32,0
6.126,172.45,0
6.127,136.01,0
6.128,57.274,0
6.129,0.877,0
6.13,-9.376,0
6.131,-18.715,0
6.132,-27.138,0
6.133,-34.828,0
6.134,-55.702,0
6.135,-61.928,0
6.136,-67.604,0
6.137,-62.477,0
6.138,-57.716,0
6.139,-61.928,0
6.14,-65.773,0
6.141,-69.252,0
6.142,-72.365,0
6.143,-63.576,0
6.144,-61.012,0
6.145,-63.393,0
6.146,-69.984,0
6.147,-67.97,0
6.148,-73.463,0
6.149,-75.111,0
6.15,-76.576,0
6.151,-77.858,0
6.152,-74.379,0
6.153,-71.083,0
6.154,-68.153,0
6.155,-67.238,0
6.156,-61.562,0
6.157,-56.251,0
6.158,-50.026,0
6.159,-47.646,0
6.16,-42.335,0
6.161,-34.828,0
6.162,-29.884,0
6.163,-23.476,0
6.164,-24.208,0
6.165,-22.011,0
6.166,-17.433,0
6.167,-16.884,0
6.168,-14.137,0
6.169,-10.841,0
6.17,-8.644,0
6.171,-7.179,0
6.172,-2.602,0
6.173,6.92,0
6.174,27.428,0
6.175,71.922,0
6.176,78.148,0
6.177,49.4,0
6.178,12.779,0
6.179,-11.024,0
6.18,-23.842,0
6.181,-27.687,0
6.182,-31.166,0
6.183,-28.053,0
6.184,-30.983,0
6.185,-33.546,0
6.186,-26.405,0
6.187,-24.208,0
6.188,-18.166,0
6.189,-16.334,0
6.19,-11.391,0
6.191,-12.855,0
6.192,-6.081,0
6.193,-2.602,0
6.194,3.075,0
6.195,0.145,0
6.196,1.061,0
6.197,1.793,0
6.198,3.99,0
6.199,10.216,0
6.2,4.54,0
6.201,6.737,0
6.202,8.568,0
6.203,9.117,0
6.204,6.371,0
6.205,5.089,0
6.206,9.3,0
6.207,8.751,0
6.208,10.033,0
6.209,4.906,0
6.21,6.737,0
6.211,3.624,0
6.212,4.173,0
6.213,1.793,0
6.214,1.427,0
6.215,0.328,0
6.216,2.159,0
6.217,2.525,0
6.218,7.103,0
6.219,17.357,0
6.22,36.949,0
6.221,12.779,0
6.222,4.54,0
6.223,1.427,0
6.224,-7.362,0
6.225,-4.799,0
6.226,12.047,0
6.227,40.794,0
6.228,52.513,0
6.229,63.133,0
6.23,53.612,0
6.231,21.019,0
6.232,-17.982,0
6.233,-44.167,0
6.234,-48.927,0
6.235,-61.745,0
6.236,-57.899,0
6.237,-54.42,0
6.238,-57.533,0
6.239,-48.744,0
6.24,-40.871,0
6.241,-33.729,0
6.242,-31.532,0
6.243,-29.518,0
6.244,-24.025,0
6.245,-22.377,0
6.246,-11.94,0
6.247,-13.222,0
6.248,-4.799,0
6.249,-12.672,0
6.25,-11.757,0
6.251,-1.503,0
6.252,2.525,0
6.253,3.624,0
6.254,6.92,0
6.255,6.004,0
6.256,10.582,0
6.257,9.85,0
6.258,7.652,0
6.259,12.23,0
6.26,11.681,0
6.261,6.554,0
6.262,9.85,0
6.263,5.455,0
6.264,4.906,0
6.265,4.54,0
6.266,4.173,0
6.267,4.54,0
6.268,4.906,0
6.269,1.61,0
6.27,0.511,0
6.271,0.877,0
6.272,-4.616,0
6.273,-3.517,0
6.274,-2.785,0
6.275,7.469,0
6.276,23.949,0
6.277,39.33,0
6.278,61.485,0
6.279,82.176,0
6.28,63.5,0
6.281,27.062,0
6.282,-20.18,0
6.283,-26.405,0
6.284,-43.617,0
6.285,-38.49,0
6.286,-43.251,0
6.287,-47.462,0
6.288,-51.308,0
6.289,-40.688,0
6.29,-43.8,0
6.291,-35.011,0
6.292,-32.448,0
6.293,-30.067,0
6.294,-23.476,0
6.295,-17.433,0
6.296,-15.602,0
6.297,-13.954,0
6.298,-6.447,0
6.299,-7.729,0
6.3,-6.63,0
6.301,-9.926,0
6.302,-4.982,0
6.303,-4.066,0
6.304,1.61,0
6.305,-2.235,0
6.306,-1.686,0
6.307,1.427,0
6.308,1.976,0
6.309,-0.404,0
6.31,0.877,0
6.311,1.976,0
6.312,0.877,0
6.313,1.976,0
6.314,2.159,0
6.315,0.877,0
6.316,3.258,0
6.317,2.525,0
6.318,-1.686,0
6.319,-2.235,0
6.32,2.892,0
6.321,-0.404,0
6.322,0.145,0
6.323,0.694,0
6.324,-2.052,0
6.325,-0.771,0
6.326,6.188,0
6.327,11.131,0
6.328,25.047,0
6.329,55.26,0
6.33,68.077,0
6.331,56.358,0
6.332,24.132,0
6.333,-14.87,0
6.334,-30.434,0
6.335,-44.716,0
6.336,-48.927,0
6.337,-45.082,0
6.338,-48.561,0
6.339,-45.448,0
6.34,-42.519,0
6.341,-34.645,0
6.342,-32.265,0
6.343,-30.067,0
6.344,-24.025,0
6.345,-18.532,0
6.346,-16.884,0
6.347,-15.419,0
6.348,-8.644,0
6.349,-9.743,0
6.35,-6.447,0
6.351,-7.362,0
6.352,-2.785,0
6.353,-5.165,0
6.354,0.145,0
6.355,-0.404,0
6.356,2.708,0
6.357,4.356,0
6.358,1.976,0
6.359,1.61,0
6.36,0.511,0
6.361,2.342,0
6.362,4.906,0
6.363,2.892,0
6.364,1.61,0
6.365,4.54,0
6.366,1.976,0
6.367,1.61,0
6.368,-1.137,0
6.369,0.694,0
6.37,2.525,0
6.371,1.793,0
6.372,-0.771,0
6.373,-3.334,0
6.374,-4.066,0
6.375,-2.785,0
6.376,-2.052,0
6.377,1.427,0
6.378,8.385,0
6.379,23.583,0
6.38,52.33,0
6.381,56.175,0
6.382,52.696,0
6.383,68.81,0
6.384,48.119,0
6.385,7.835,0
6.386,-32.448,0
6.387,-48.012,0
6.388,-62.294,0
6.389,-58.083,0
6.39,-61.928,0
6.391,-58.449,0
6.392,-61.562,0
6.393,-52.772,0
6.394,-50.209,0
6.395,-43.068,0
6.396,-36.476,0
6.397,-30.434,0
6.398,-24.94,0
6.399,-19.997,0
6.4,-15.602,0
6.401,-14.32,0
6.402,-8.278,0
6.403,-7.179,0
6.404,-2.235,0
6.405,-3.151,0
6.406,0.877,0
6.407,1.61,0
6.408,6.188,0
6.409,4.356,0
6.41,4.906,0
6.411,7.286,0
6.412,5.089,0
6.413,6.188,0
6.414,4.356,0
6.415,5.455,0
6.416,4.723,0
6.417,6.004,0
6.418,1.976,0
6.419,1.427,0
6.42,2.708,0
6.421,3.075,0
6.422,3.441,0
6.423,2.342,0
6.424,0.511,0
6.425,0.328,0
6.426,0.145,0
6.427,0.328,0
6.428,4.356,0
6.429,12.779,0
6.43,31.273,0
6.431,71.556,0
6.432,77.232,0
6.433,51.048,0
6.434,8.019,0
6.435,-20.729,0
6.436,-36.293,0
6.437,-41.054,0
6.438,-45.265,0
6.439,-41.42,0
6.44,-44.899,0
6.441,-41.786,0
6.442,-38.856,0
6.443,-30.983,0
6.444,-33.363,0
6.445,-26.771,0
6.446,-24.757,0
6.447,-15.602,0
6.448,-20.546,0
6.449,-16.151,0
6.45,-17.433,0
6.451,-16.334,0
6.452,-13.039,0
6.453,-6.081,0
6.454,-5.165,0
6.455,-4.433,0
6.456,-3.7,0
6.457,-0.404,0
6.458,5.272,0
6.459,-0.038,0
6.46,-0.587,0
6.461,1.244,0
6.462,6.371,0
6.463,4.54,0
6.464,11.498,0
6.465,25.414,0
6.466,39.513,0
6.467,12.047,0
6.468,0.328,0
6.469,-3.151,0
6.47,-12.672,0
6.471,-15.602,0
6.472,-18.166,0
6.473,-15.785,0
6.474,-13.588,0
6.475,-15.602,0
6.476,-13.771,0
6.477,-10.841,0
6.478,-5.897,0
6.479,7.652,0
6.48,9.483,0
6.481,34.386,0
6.482,80.895,0
6.483,62.035,0
6.484,21.751,0
6.485,-14.87,0
6.486,-29.152,0
6.487,-41.969,0
6.488,-45.814,0
6.489,-42.335,0
6.49,-39.223,0
6.491,-36.293,0
6.492,-33.729,0
6.493,-31.349,0
6.494,-29.152,0
6.495,-23.109,0
6.496,-24.94,0
6.497,-19.997,0
6.498,-15.602,0
6.499,-14.32,0
6.5,-10.841,0
6.501,-5.165,0
6.502,-8.095,0
6.503,-5.348,0
6.504,-1.32,0
6.505,0.877,0
6.506,1.427,0
6.507,3.258,0
6.508,2.708,0
6.509,5.089,0
6.51,1.976,0
6.511,3.99,0
6.512,4.356,0
6.513,5.455,0
6.514,6.188,0
6.515,1.976,0
6.516,1.427,0
6.517,3.075,0
6.518,1.793,0
6.519,-1.32,0
6.52,-0.221,0
6.521,0.877,0
6.522,-0.221,0
6.523,0.511,0
6.524,0.328,0
6.525,0.145,0
6.526,-1.32,0
6.527,-4.25,0
6.528,0.145,0
6.529,1.244,0
6.53,6.737,0
6.531,18.272,0
6.532,43.175,0
6.533,68.077,0
6.534,71.19,0
6.535,44.457,0
6.536,-2.052,0
6.537,-20.912,0
6.538,-38.124,0
6.539,-43.251,0
6.54,-48.012,0
6.541,-43.8,0
6.542,-47.646,0
6.543,-44.167,0
6.544,-41.054,0
6.545,-38.124,0
6.546,-30.25,0
6.547,-27.87,0
6.548,-25.673,0
6.549,-19.63,0
6.55,-14.137,0
6.551,-12.489,0
6.552,-11.024,0
6.553,-9.743,0
6.554,-8.644,0
6.555,-5.348,0
6.556,-2.418,0
6.557,-5.165,0
6.558,-2.785,0
6.559,1.061,0
6.56,-0.771,0
6.561,-2.602,0
6.562,-0.954,0
6.563,-2.235,0
6.564,2.892,0
6.565,1.061,0
6.566,0.511,0
6.567,-1.137,0
6.568,0.145,0
6.569,0.511,0
6.57,1.61,0
6.571,4.173,0
6.572,-0.587,0
6.573,-0.038,0
6.574,3.807,0
6.575,3.441,0
6.576,1.244,0
6.577,1.61,0
6.578,1.976,0
6.579,0.145,0
6.58,-3.151,0
6.581,3.075,0
6.582,16.991,0
6.583,47.203,0
6.584,68.81,0
6.585,72.655,0
6.586,33.287,0
6.587,-3.334,0
6.588,-27.138,0
6.589,-39.955,0
6.59,-43.8,0
6.591,-47.279,0
6.592,-44.167,0
6.593,-41.237,0
6.594,-43.8,0
6.595,-36.659,0
6.596,-30.067,0
6.597,-28.053,0
6.598,-26.222,0
6.599,-24.574,0
6.6,-20.18,0
6.601,-16.151,0
6.602,-17.25,0
6.603,-9.376,0
6.604,-8.461,0
6.605,-5.714,0
6.606,-4.982,0
6.607,-4.25,0
6.608,-2.418,0
6.609,-1.869,0
6.61,0.877,0
6.611,1.244,0
6.612,3.441,0
6.613,3.075,0
6.614,1.244,0
6.615,-1.32,0
6.616,3.258,0
6.617,5.089,0
6.618,1.976,0
6.619,3.624,0
6.62,2.342,0
6.621,1.976,0
6.622,-0.771,0
6.623,0.328,0
6.624,1.427,0
6.625,0.694,0
6.626,0.877,0
6.627,-0.404,0
6.628,3.075,0
6.629,0.694,0
6.63,2.342,0
6.631,-4.616,0
6.632,8.568,0
6.633,25.047,0
6.634,53.795,0
6.635,73.387,0
6.636,69.908,0
6.637,40.611,0
6.638,-2.785,0
6.639,-31.532,0
6.64,-36.659,0
6.641,-41.42,0
6.642,-45.631,0
6.643,-49.477,0
6.644,-45.998,0
6.645,-42.885,0
6.646,-39.955,0
6.647,-32.082,0
6.648,-29.701,0
6.649,-27.504,0
6.65,-21.461,0
6.651,-19.63,0
6.652,-17.982,0
6.653,-13.588,0
6.654,-12.306,0
6.655,-6.264,0
6.656,-7.362,0
6.657,-2.418,0
6.658,0.328,0
6.659,-2.052,0
6.66,1.793,0
6.661,2.342,0
6.662,1.793,0
6.663,1.244,0
6.664,2.525,0
6.665,5.638,0
6.666,6.737,0
6.667,4.173,0
6.668,-1.32,0
6.669,-2.052,0
6.67,-3.883,0
6.671,-4.433,0
6.672,-0.587,0
6.673,-0.221,0
6.674,4.906,0
6.675,0.328,0
6.676,-4.066,0
6.677,-6.813,0
6.678,-5.531,0
6.679,-2.418,0
6.68,-1.32,0
6.681,-3.517,0
6.682,-5.348,0
6.683,0.145,0
6.684,11.681,0
6.685,36.583,0
6.686,61.485,0
6.687,77.599,0
6.688,68.81,0
6.689,28.526,0
6.69,-11.757,0
6.691,-37.941,0
6.692,-42.702,0
6.693,-46.913,0
6.694,-50.758,0
6.695,-47.279,0
6.696,-44.167,0
6.697,-41.237,0
6.698,-38.673,0
6.699,-31.532,0
6.7,-29.335,0
6.701,-27.321,0
6.702,-25.49,0
6.703,-17.25,0
6.704,-18.715,0
6.705,-14.687,0
6.706,-11.208,0
6.707,-5.531,0
6.708,-4.616,0
6.709,-0.038,0
6.71,12.413,0
6.711,36.217,0
6.712,33.104,0
6.713,18.272,0
6.714,4.906,0
6.715,-2.235,0
6.716,-13.222,0
6.717,-11.208,0
6.718,-13.039,0
6.719,-14.687,0
6.72,-13.222,0
6.721,-11.94,0
6.722,-10.841,0
6.723,-9.743,0
6.724,-4.799,0
6.725,-3.883,0
6.726,-3.151,0
6.727,-0.954,0
6.728,2.342,0
6.729,4.173,0
6.73,5.821,0
6.731,3.441,0
6.732,0.145,0
6.733,0.511,0
6.734,6.737,0
6.735,20.653,0
6.736,50.865,0
6.737,72.472,0
6.738,52.879,0
6.739,35.118,0
6.74,-0.587,0
6.741,-24.391,0
6.742,-37.208,0
6.743,-41.054,0
6.744,-44.533,0
6.745,-47.646,0
6.746,-44.716,0
6.747,-36.842,0
6.748,-39.223,0
6.749,-28.236,0
6.75,-26.222,0
6.751,-31.715,0
6.752,-26.771,0
6.753,-19.264,0
6.754,-15.236,0
6.755,-14.137,0
6.756,-8.461,0
6.757,-5.531,0
6.758,0.877,0
6.759,1.61,0
6.76,0.877,0
6.761,2.708,0
6.762,-0.404,0
6.763,2.342,0
6.764,2.708,0
6.765,0.511,0
6.766,0.877,0
6.767,1.244,0
6.768,2.342,0
6.769,3.075,0
6.77,1.793,0
6.771,-0.587,0
6.772,-3.883,0
6.773,-9.01,0
6.774,-8.461,0
6.775,-6.63,0
6.776,-3.883,0
6.777,-3.517,0
6.778,1.61,0
6.779,2.159,0
6.78,5.272,0
6.781,4.723,0
6.782,3.441,0
6.783,0.145,0
6.784,2.342,0
6.785,8.568,0
6.786,22.484,0
6.787,52.696,0
6.788,65.514,0
6.789,85.106,0
6.79,60.204,0
6.791,17.906,0
6.792,-22.377,0
6.793,-37.941,0
6.794,-42.702,0
6.795,-46.913,0
6.796,-50.758,0
6.797,-47.279,0
6.798,-44.167,0
6.799,-41.237,0
6.8,-38.673,0
6.801,-36.293,0
6.802,-29.701,0
6.803,-23.659,0
6.804,-18.166,0
6.805,-16.518,0
6.806,-15.053,0
6.807,-8.278,0
6.808,-7.179,0
6.809,-12.855,0
6.81,-7.912,0
6.811,-6.996,0
6.812,-9.376,0
6.813,-4.066,0
6.814,-0.771,0
6.815,4.906,0
6.816,2.708,0
6.817,0.877,0
6.818,2.708,0
6.819,3.258,0
6.82,-0.038,0
6.821,-0.404,0
6.822,-3.151,0
6.823,-4.25,0
6.824,-3.883,0
6.825,-0.587,0
6.826,-0.221,0
6.827,-0.587,0
6.828,0.511,0
6.829,3.075,0
6.83,5.089,0
6.831,3.258,0
6.832,4.54,0
6.833,1.427,0
6.834,-3.517,0
6.835,-1.503,0
6.836,4.173,0
6.837,16.625,0
6.838,44.09,0
6.839,71.556,0
6.84,39.33,0
6.841,9.117,0
6.842,-18.349,0
6.843,-28.969,0
6.844,-38.49,0
6.845,-41.42,0
6.846,-38.856,0
6.847,-36.476,0
6.848,-34.279,0
6.849,-28.236,0
6.85,-30.067,0
6.851,-25.124,0
6.852,-20.729,0
6.853,-22.011,0
6.854,-18.532,0
6.855,-12.855,0
6.856,-11.94,0
6.857,-7.362,0
6.858,-6.63,0
6.859,-2.785,0
6.86,-4.616,0
6.861,-1.503,0
6.862,-4.25,0
6.863,-0.954,0
6.864,-1.32,0
6.865,-0.221,0
6.866,0.877,0
6.867,-1.686,0
6.868,-1.869,0
6.869,-2.602,0
6.87,-2.785,0
6.871,-1.32,0
6.872,-1.137,0
6.873,-2.052,0
6.874,0.694,0
6.875,2.525,0
6.876,1.427,0
6.877,-1.869,0
6.878,-3.151,0
6.879,-1.137,0
6.88,0.694,0
6.881,-1.137,0
6.882,2.159,0
6.883,-2.052,0
6.884,-0.404,0
6.885,-3.517,0
6.886,3.075,0
6.887,11.498,0
6.888,28.526,0
6.889,60.204,0
6.89,90.416,0
6.891,102.14,0
6.892,77.232,0
6.893,34.935,0
6.894,6.188,0
6.895,-9.376,0
6.896,-23.659,0
6.897,-36.476,0
6.898,-32.631,0
6.899,-36.11,0
6.9,-39.223,0
6.901,-54.054,0
6.902,-56.618,0
6.903,-63.759,0
6.904,-65.956,0
6.905,-67.97,0
6.906,-66.139,0
6.907,-61.195,0
6.908,-47.646,0
6.909,-31.166,0
6.91,-37.758,0
6.911,-47.829,0
6.912,-64.308,0
6.913,-79.689,0
6.914,-101.84,0
6.915,-116.68,0
6.916,-124.55,0
6.917,-131.69,0
6.918,-147.07,0
6.919,-145.06,0
6.92,-135.9,0
6.921,-114.3,0
6.922,-105.51,0
6.923,-81.337,0
6.924,-45.631,0
6.925,25.963,0
6.926,118.43,0
6.927,155.78,0
6.928,166.95,0
6.929,156.7,0
6.93,128.69,0
6.931,103.42,0
6.932,95.726,0
6.933,88.768,0
6.934,82.542,0
6.935,88.219,0
6.936,107.08,0
6.937,133.26,0
6.938,147.54,0
6.939,169.15,0
6.94,188.74,0
6.941,192.22,0
6.942,182.7,0
6.943,162.01,0
6.944,169.88,0
6.945,153.04,0
6.946,119.9,0
6.947,48.302,0
6.948,-2.968,0
6.949,-30.983,0
6.95,-39.406,0
6.951,-47.096,0
6.952,-67.97,0
6.953,-74.196,0
6.954,-68.52,0
6.955,-84.083,0
6.956,-60.28,0
6.957,-30.067,0
6.958,-49.66,0
6.959,-74.562,0
6.96,-84.083,0
6.961,-81.154,0
6.962,-73.28,0
6.963,-75.661,0
6.964,-77.858,0
6.965,-75.844,0
6.966,-74.013,0
6.967,-72.365,0
6.968,-76.759,0
6.969,-75.478,0
6.97,-76.576,0
6.971,-75.478,0
6.972,-68.52,0
6.973,-65.773,0
6.974,-60.097,0
6.975,-54.787,0
6.976,-51.491,0
6.977,-41.969,0
6.978,-37.941,0
6.979,-34.462,0
6.98,-31.166,0
6.981,-24.208,0
6.982,-21.461,0
6.983,-19.081,0
6.984,-15.236,0
6.985,-14.687,0
6.986,-10.292,0
6.987,-10.841,0
6.988,-4.616,0
6.989,2.892,0
6.99,12.047,0
6.991,30.541,0
6.992,60.021,0
6.993,71.739,0
6.994,68.26,0
6.995,84.374,0
6.996,75.584,0
6.997,35.301,0
6.998,-16.701,0
6.999,-37.575,0
7,-56.435,0
7.001,-50.758,0
7.002,-55.885,0
7.003,-60.646,0
7.004,-56.435,0
7.005,-52.589,0
7.006,-41.969,0
7.007,-38.856,0
7.008,-30.067,0
7.009,-22.194,0
7.01,-15.053,0
7.011,-8.461,0
7.012,-6.447,0
7.013,-0.954,0
7.014,0.694,0
7.015,2.159,0
7.016,3.441,0
7.017,6.92,0
7.018,5.821,0
7.019,12.779,0
7.02,10.033,0
7.021,10.765,0
7.022,11.498,0
7.023,17.723,0
7.024,15.343,0
7.025,14.61,0
7.026,11.314,0
7.027,13.146,0
7.028,11.498,0
7.029,13.878,0
7.03,8.751,0
7.031,5.455,0
7.032,3.624,0
7.033,4.173,0
7.034,2.892,0
7.035,1.61,0
7.036,2.708,0
7.037,3.075,0
7.038,6.737,0
7.039,8.568,0
7.04,13.146,0
7.041,23.399,0
7.042,45.921,0
7.043,81.627,0
7.044,86.388,0
7.045,47.386,0
7.046,10.765,0
7.047,-13.039,0
7.048,-34.645,0
7.049,-38.49,0
7.05,-49.11,0
7.051,-45.998,0
7.052,-48.927,0
7.053,-41.054,0
7.054,-38.673,0
7.055,-36.476,0
7.056,-30.434,0
7.057,-28.603,0
7.058,-20.363,0
7.059,-15.968,0
7.06,-14.687,0
7.061,-11.208,0
7.062,-10.109,0
7.063,-7.179,0
7.064,-6.264,0
7.065,-2.235,0
7.066,-1.503,0
7.067,-0.954,0
7.068,-5.348,0
7.069,-2.602,0
7.07,-0.221,0
7.071,0.145,0
7.072,2.892,0
7.073,1.061,0
7.074,2.892,0
7.075,0.877,0
7.076,1.61,0
7.077,4.54,0
7.078,1.061,0
7.079,3.258,0
7.08,0.511,0
7.081,5.455,0
7.082,2.159,0
7.083,2.708,0
7.084,1.061,0
7.085,-2.235,0
7.086,-5.348,0
7.087,-2.602,0
7.088,-2.968,0
7.089,-3.517,0
7.09,-1.686,0
7.091,2.892,0
7.092,13.146,0
7.093,35.667,0
7.094,77.965,0
7.095,49.217,0
7.096,12.596,0
7.097,-20.729,0
7.098,-24.94,0
7.099,-36.659,0
7.1,-33.18,0
7.101,-36.293,0
7.102,-33.363,0
7.103,-35.927,0
7.104,-33.546,0
7.105,-26.955,0
7.106,-24.94,0
7.107,-26.771,0
7.108,-21.828,0
7.109,-20.363,0
7.11,-21.645,0
7.111,-18.166,0
7.112,-14.87,0
7.113,-9.926,0
7.114,-10.841,0
7.115,-10.109,0
7.116,-9.376,0
7.117,-4.799,0
7.118,-5.348,0
7.119,-0.221,0
7.12,-0.771,0
7.121,2.342,0
7.122,2.892,0
7.123,0.511,0
7.124,2.708,0
7.125,3.807,0
7.126,1.244,0
7.127,-0.587,0
7.128,0.877,0
7.129,3.99,0
7.13,1.244,0
7.131,0.145,0
7.132,-0.954,0
7.133,3.624,0
7.134,13.878,0
7.135,36.4,0
7.136,72.105,0
7.137,48.302,0
7.138,9.3,0
7.139,-16.884,0
7.14,-23.292,0
7.141,-37.575,0
7.142,-33.363,0
7.143,-13.771,0
7.144,18.456,0
7.145,40.062,0
7.146,51.781,0
7.147,19.554,0
7.148,-19.447,0
7.149,-45.631,0
7.15,-59.914,0
7.151,-64.125,0
7.152,-60.28,0
7.153,-56.801,0
7.154,-53.688,0
7.155,-44.899,0
7.156,-42.335,0
7.157,-39.955,0
7.158,-28.969,0
7.159,-22.926,0
7.16,-17.433,0
7.161,-9.193,0
7.162,-7.729,0
7.163,-0.954,0
7.164,2.525,0
7.165,1.427,0
7.166,2.342,0
7.167,5.089,0
7.168,9.117,0
7.169,9.85,0
7.17,9.3,0
7.171,9.85,0
7.172,11.498,0
7.173,12.779,0
7.174,11.498,0
7.175,7.652,0
7.176,6.371,0
7.177,4.173,0
7.178,3.807,0
7.179,6.371,0
7.18,4.54,0
7.181,5.272,0
7.182,4.54,0
7.183,1.61,0
7.184,-0.221,0
7.185,-1.32,0
7.186,-2.052,0
7.187,-1.869,0
7.188,-3.7,0
7.189,-5.897,0
7.19,-4.066,0
7.191,0.145,0
7.192,3.624,0
7.193,4.906,0
7.194,2.159,0
7.195,2.525,0
7.196,-0.771,0
7.197,-6.264,0
7.198,-2.418,0
7.199,-4.25,0
7.2,-1.137,0
7.201,7.286,0
7.202,23.399,0
7.203,34.386,0
7.204,12.23,0
7.205,3.441,0
7.206,22.118,0
7.207,58.556,0
7.208,63.683,0
7.209,20.653,0
7.21,-8.095,0
7.211,-34.279,0
7.212,-48.561,0
7.213,-52.772,0
7.214,-48.927,0
7.215,-52.406,0
7.216,-49.293,0
7.217,-46.364,0
7.218,-38.49,0
7.219,-36.11,0
7.22,-29.518,0
7.221,-27.504,0
7.222,-29.335,0
7.223,-21.095,0
7.224,-16.701,0
7.225,-15.419,0
7.226,-9.376,0
7.227,-6.081,0
7.228,-1.137,0
7.229,5.272,0
7.23,2.892,0
7.231,3.624,0
7.232,-0.954,0
7.233,2.159,0
7.234,3.807,0
7.235,0.511,0
7.236,1.793,0
7.237,2.892,0
7.238,2.525,0
7.239,1.427,0
7.24,3.441,0
7.241,3.258,0
7.242,-0.587,0
7.243,0.145,0
7.244,3.624,0
7.245,11.131,0
7.246,28.16,0
7.247,64.598,0
7.248,80.162,0
7.249,46.837,0
7.25,7.835,0
7.251,-18.349,0
7.252,-32.631,0
7.253,-45.448,0
7.254,-41.603,0
7.255,-45.082,0
7.256,-41.969,0
7.257,-39.04,0
7.258,-36.476,0
7.259,-34.096,0
7.26,-31.898,0
7.261,-21.828,0
7.262,-19.997,0
7.263,-18.349,0
7.264,-16.884,0
7.265,-15.602,0
7.266,-7.179,0
7.267,-6.081,0
7.268,-6.996,0
7.269,-6.081,0
7.27,-2.052,0
7.271,-1.32,0
7.272,-3.151,0
7.273,-4.982,0
7.274,1.244,0
7.275,0.511,0
7.276,-1.686,0
7.277,0.145,0
7.278,3.258,0
7.279,3.807,0
7.28,0.511,0
7.281,5.638,0
7.282,6.188,0
7.283,8.019,0
7.284,2.892,0
7.285,-1.686,0
7.286,-2.235,0
7.287,-1.686,0
7.288,-1.32,0
7.289,-1.686,0
7.29,-0.587,0
7.291,1.976,0
7.292,-1.32,0
7.293,3.075,0
7.294,-0.771,0
7.295,6.737,0
7.296,23.766,0
7.297,50.499,0
7.298,68.26,0
7.299,71.373,0
7.3,32.738,0
7.301,-3.883,0
7.302,-27.687,0
7.303,-40.504,0
7.304,-44.35,0
7.305,-47.829,0
7.306,-44.716,0
7.307,-41.786,0
7.308,-44.35,0
7.309,-41.969,0
7.31,-35.377,0
7.311,-29.335,0
7.312,-27.504,0
7.313,-22.56,0
7.314,-21.095,0
7.315,-14.32,0
7.316,-15.419,0
7.317,-9.743,0
7.318,-10.658,0
7.319,-6.081,0
7.32,-8.461,0
7.321,-3.151,0
7.322,-3.7,0
7.323,0.694,0
7.324,0.145,0
7.325,0.511,0
7.326,0.877,0
7.327,1.976,0
7.328,2.342,0
7.329,3.441,0
7.33,0.694,0
7.331,0.328,0
7.332,-0.771,0
7.333,-0.038,0
7.334,0.694,0
7.335,1.427,0
7.336,-2.052,0
7.337,0.328,0
7.338,-0.038,0
7.339,2.708,0
7.34,2.342,0
7.341,0.511,0
7.342,0.328,0
7.343,-1.503,0
7.344,1.61,0
7.345,0.328,0
7.346,0.145,0
7.347,3.441,0
7.348,10.399,0
7.349,25.597,0
7.35,58.739,0
7.351,34.935,0
7.352,-4.066,0
7.353,-30.25,0
7.354,-35.011,0
7.355,-47.829,0
7.356,-43.983,0
7.357,-47.462,0
7.358,-44.35,0
7.359,-35.561,0
7.36,-38.124,0
7.361,-35.744,0
7.362,-29.152,0
7.363,-23.109,0
7.364,-21.278,0
7.365,-19.63,0
7.366,-18.166,0
7.367,-14.137,0
7.368,-13.039,0
7.369,-11.94,0
7.37,-4.982,0
7.371,-7.729,0
7.372,-5.348,0
7.373,-3.151,0
7.374,1.427,0
7.375,1.976,0
7.376,3.624,0
7.377,1.244,0
7.378,3.441,0
7.379,6.188,0
7.38,1.976,0
7.381,1.427,0
7.382,-0.954,0
7.383,1.244,0
7.384,3.99,0
7.385,1.427,0
7.386,-2.602,0
7.387,-2.235,0
7.388,-2.602,0
7.389,1.244,0
7.39,-2.052,0
7.391,0.145,0
7.392,-3.7,0
7.393,-0.404,0
7.394,-1.686,0
7.395,-1.32,0
7.396,-4.066,0
7.397,1.61,0
7.398,14.061,0
7.399,41.527,0
7.4,77.049,0
7.401,53.246,0
7.402,23.033,0
7.403,-12.489,0
7.404,-26.771,0
7.405,-39.589,0
7.406,-35.744,0
7.407,-39.223,0
7.408,-42.335,0
7.409,-39.406,0
7.41,-36.842,0
7.411,-29.701,0
7.412,-23.109,0
7.413,-25.124,0
7.414,-19.63,0
7.415,-17.982,0
7.416,-16.518,0
7.417,-15.236,0
7.418,-11.757,0
7.419,-10.658,0
7.42,-7.729,0
7.421,-6.813,0
7.422,-4.433,0
7.423,-2.235,0
7.424,-1.686,0
7.425,-2.235,0
7.426,2.892,0
7.427,1.061,0
7.428,-0.771,0
7.429,3.075,0
7.43,0.694,0
7.431,4.906,0
7.432,1.061,0
7.433,-0.221,0
7.434,-2.418,0
7.435,-2.785,0
7.436,-1.686,0
7.437,-3.517,0
7.438,-4.25,0
7.439,-0.038,0
7.44,-1.869,0
7.441,-1.32,0
7.442,-1.686,0
7.443,-2.052,0
7.444,-3.151,0
7.445,-1.32,0
7.446,-4.982,0
7.447,0.511,0
7.448,12.047,0
7.449,30.357,0
7.45,13.512,0
7.451,-1.869,0
7.452,0.145,0
7.453,27.611,0
7.454,55.077,0
7.455,58.556,0
7.456,22.85,0
7.457,-10.475,0
7.458,-32.082,0
7.459,-43.8,0
7.46,-47.279,0
7.461,-44.167,0
7.462,-41.237,0
7.463,-43.8,0
7.464,-41.42,0
7.465,-39.223,0
7.466,-33.18,0
7.467,-31.349,0
7.468,-26.405,0
7.469,-24.94,0
7.47,-18.166,0
7.471,-17.067,0
7.472,-13.771,0
7.473,-10.841,0
7.474,-9.926,0
7.475,-2.418,0
7.476,-1.503,0
7.477,-0.587,0
7.478,-1.32,0
7.479,-0.587,0
7.48,-0.038,0
7.481,4.356,0
7.482,7.103,0
7.483,5.821,0
7.484,3.624,0
7.485,2.525,0
7.486,5.089,0
7.487,1.793,0
7.488,3.807,0
7.489,1.244,0
7.49,0.145,0
7.491,-1.32,0
7.492,-0.038,0
7.493,1.793,0
7.494,-1.686,0
7.495,1.61,0
7.496,1.976,0
7.497,3.075,0
7.498,3.441,0
7.499,6.92,0
7.5,13.878,0
7.501,29.076,0
7.502,62.218,0
7.503,57.457,0
7.504,18.456,0
7.505,-7.729,0
7.506,-22.011,0
7.507,-34.828,0
7.508,-46.547,0
7.509,-43.068,0
7.51,-46.181,0
7.511,-43.251,0
7.512,-40.688,0
7.513,-38.307,0
7.514,-27.321,0
7.515,-29.335,0
7.516,-20.18,0
7.517,-18.532,0
7.518,-17.067,0
7.519,-13.039,0
7.52,-9.56,0
7.521,-6.264,0
7.522,-1.32,0
7.523,-0.404,0
7.524,-2.785,0
7.525,1.061,0
7.526,0.511,0
7.527,1.061,0
7.528,-1.686,0
7.529,-2.968,0
7.53,-4.25,0
7.531,-5.348,0
7.532,0.328,0
7.533,-2.052,0
7.534,-5.897,0
7.535,-4.066,0
7.536,-0.954,0
7.537,-2.602,0
7.538,-2.968,0
7.539,1.244,0
7.54,0.694,0
7.541,1.061,0
7.542,-0.221,0
7.543,5.272,0
7.544,3.075,0
7.545,2.525,0
7.546,-0.587,0
7.547,-0.038,0
7.548,-0.587,0
7.549,-0.954,0
7.55,6.004,0
7.551,21.202,0
7.552,54.344,0
7.553,78.148,0
7.554,73.937,0
7.555,46.471,0
7.556,7.103,0
7.557,-19.081,0
7.558,-33.363,0
7.559,-37.575,0
7.56,-49.293,0
7.561,-45.814,0
7.562,-42.702,0
7.563,-39.772,0
7.564,-42.335,0
7.565,-39.955,0
7.566,-33.363,0
7.567,-31.349,0
7.568,-25.856,0
7.569,-24.208,0
7.57,-16.701,0
7.571,-17.982,0
7.572,-11.94,0
7.573,-10.841,0
7.574,-9.926,0
7.575,-9.01,0
7.576,-6.63,0
7.577,-5.897,0
7.578,-6.447,0
7.579,-0.771,0
7.58,1.427,0
7.581,3.258,0
7.582,6.371,0
7.583,4.723,0
7.584,2.342,0
7.585,-0.771,0
7.586,0.328,0
7.587,-0.771,0
7.588,1.061,0
7.589,0.328,0
7.59,-0.404,0
7.591,0.328,0
7.592,-2.785,0
7.593,-1.686,0
7.594,-1.32,0
7.595,3.441,0
7.596,3.99,0
7.597,3.441,0
7.598,2.159,0
7.599,2.342,0
7.6,-0.771,0
7.601,5.455,0
7.602,19.371,0
7.603,49.583,0
7.604,79.796,0
7.605,52.33,0
7.606,12.962,0
7.607,-13.222,0
7.608,-27.504,0
7.609,-31.715,0
7.61,-35.561,0
7.611,-39.04,0
7.612,-42.152,0
7.613,-39.223,0
7.614,-36.659,0
7.615,-34.279,0
7.616,-27.687,0
7.617,-21.645,0
7.618,-19.813,0
7.619,-14.87,0
7.62,-16.334,0
7.621,-12.306,0
7.622,-13.405,0
7.623,-10.109,0
7.624,-9.193,0
7.625,-4.616,0
7.626,-3.883,0
7.627,-1.686,0
7.628,-2.235,0
7.629,-0.404,0
7.63,-0.954,0
7.631,1.427,0
7.632,0.145,0
7.633,0.511,0
7.634,-1.32,0
7.635,-0.221,0
7.636,-0.404,0
7.637,1.427,0
7.638,0.694,0
7.639,1.793,0
7.64,4.723,0
7.641,3.624,0
7.642,3.99,0
7.643,7.286,0
7.644,8.568,0
7.645,11.314,0
7.646,13.146,0
7.647,18.639,0
7.648,19.371,0
7.649,22.667,0
7.65,24.315,0
7.651,24.864,0
7.652,33.287,0
7.653,44.457,0
7.654,66.979,0
7.655,83.092,0
7.656,86.021,0
7.657,45.738,0
7.658,-17.799,0
7.659,-43.068,0
7.66,-81.52,0
7.661,-88.478,0
7.662,-94.704,0
7.663,-100.38,0
7.664,-84.816,0
7.665,-70.534,0
7.666,-66.322,0
7.667,-70.167,0
7.668,-80.788,0
7.669,-96.901,0
7.67,-111.73,0
7.671,-130.41,0
7.672,-142.49,0
7.673,-153.48,0
7.674,-151.47,0
7.675,-156.96,0
7.676,-141.94,0
7.677,-123.82,0
7.678,-116.68,0
7.679,-96.718,0
7.68,-67.238,0
7.681,-8.095,0
7.682,118.98,0
7.683,173.55,0
7.684,190.03,0
7.685,175.01,0
7.686,161.46,0
7.687,124.11,0
7.688,112.94,0
7.689,102.68,0
7.69,74.669,0
7.691,83.092,0
7.692,90.782,0
7.693,125.75,0
7.694,157.43,0
7.695,163.11,0
7.696,147.54,0
7.697,123.74,0
7.698,110.92,0
7.699,99.205,0
7.7,95.726,0
7.701,79.247,0
7.702,56.725,0
7.703,36.034,0
7.704,43.907,0
7.705,70.641,0
7.706,81.261,0
7.707,84.374,0
7.708,51.781,0
7.709,4.173,0
7.71,-27.504,0
7.711,-44.716,0
7.712,-60.28,0
7.713,-74.562,0
7.714,-61.745,0
7.715,-73.463,0
7.716,-84.083,0
7.717,-87.196,0
7.718,-84.267,0
7.719,-76.393,0
7.72,-78.773,0
7.721,-76.576,0
7.722,-70.534,0
7.723,-72.365,0
7.724,-77.309,0
7.725,-78.773,0
7.726,-82.802,0
7.727,-81.703,0
7.728,-78.407,0
7.729,-75.478,0
7.73,-65.224,0
7.731,-61.195,0
7.732,-57.716,0
7.733,-52.04,0
7.734,-45.082,0
7.735,-42.335,0
7.736,-36.659,0
7.737,-31.349,0
7.738,-29.518,0
7.739,-26.405,0
7.74,-23.659,0
7.741,-17.067,0
7.742,-8.644,0
7.743,-7.545,0
7.744,-6.63,0
7.745,-5.714,0
7.746,-6.447,0
7.747,-5.714,0
7.748,-3.883,0
7.749,-0.771,0
7.75,-2.418,0
7.751,-2.785,0
7.752,-1.32,0
7.753,1.793,0
7.754,8.019,0
7.755,21.935,0
7.756,52.147,0
7.757,91.148,0
7.758,75.584,0
7.759,42.259,0
7.76,3.258,0
7.761,-12.306,0
7.762,-17.067,0
7.763,-29.884,0
7.764,-26.039,0
7.765,-29.518,0
7.766,-32.631,0
7.767,-29.701,0
7.768,-27.138,0
7.769,-24.757,0
7.77,-22.56,0
7.771,-20.546,0
7.772,-15.053,0
7.773,-13.405,0
7.774,-9.01,0
7.775,-7.729,0
7.776,-4.25,0
7.777,-0.954,0
7.778,-0.038,0
7.779,4.54,0
7.78,5.272,0
7.781,1.427,0
7.782,3.258,0
7.783,6.371,0
7.784,4.723,0
7.785,7.103,0
7.786,9.3,0
7.787,3.807,0
7.788,1.61,0
7.789,3.441,0
7.79,3.99,0
7.791,7.835,0
7.792,4.54,0
7.793,4.906,0
7.794,5.272,0
7.795,7.103,0
7.796,7.469,0
7.797,4.173,0
7.798,1.976,0
7.799,1.61,0
7.8,-0.221,0
7.801,-1.32,0
7.802,0.145,0
7.803,3.807,0
7.804,2.525,0
7.805,6.554,0
7.806,14.977,0
7.807,33.47,0
7.808,73.753,0
7.809,79.43,0
7.81,42.809,0
7.811,-0.221,0
7.812,-17.433,0
7.813,-32.997,0
7.814,-47.279,0
7.815,-43.068,0
7.816,-46.913,0
7.817,-50.392,0
7.818,-47.279,0
7.819,-38.49,0
7.82,-35.927,0
7.821,-28.786,0
7.822,-22.194,0
7.823,-20.18,0
7.824,-18.349,0
7.825,-16.701,0
7.826,-12.306,0
7.827,-11.024,0
7.828,-7.545,0
7.829,-6.447,0
7.83,-5.531,0
7.831,-2.785,0
7.832,1.244,0
7.833,0.511,0
7.834,-1.32,0
7.835,-1.869,0
7.836,-0.221,0
7.837,1.061,0
7.838,4.173,0
7.839,3.807,0
7.84,1.976,0
7.841,1.61,0
7.842,1.793,0
7.843,3.624,0
7.844,2.892,0
7.845,3.075,0
7.846,6.371,0
7.847,-0.587,0
7.848,4.356,0
7.849,1.61,0
7.85,-0.771,0
7.851,-1.503,0
7.852,-2.052,0
7.853,-1.503,0
7.854,-2.052,0
7.855,0.694,0
7.856,8.202,0
7.857,13.878,0
7.858,29.076,0
7.859,62.218,0
7.86,57.457,0
7.861,18.456,0
7.862,-18.166,0
7.863,-32.448,0
7.864,-36.659,0
7.865,-40.504,0
7.866,-43.983,0
7.867,-40.871,0
7.868,-37.941,0
7.869,-40.504,0
7.87,-33.363,0
7.871,-31.166,0
7.872,-29.152,0
7.873,-23.659,0
7.874,-22.011,0
7.875,-20.546,0
7.876,-21.828,0
7.877,-15.785,0
7.878,-10.109,0
7.879,-7.179,0
7.88,-4.433,0
7.881,-2.052,0
7.882,-1.32,0
7.883,-3.151,0
7.884,-1.32,0
7.885,-4.066,0
7.886,-1.686,0
7.887,-1.32,0
7.888,-0.221,0
7.889,-2.052,0
7.89,1.976,0
7.891,0.694,0
7.892,0.328,0
7.893,-0.038,0
7.894,4.173,0
7.895,0.328,0
7.896,3.624,0
7.897,-0.587,0
7.898,-2.235,0
7.899,0.145,0
7.9,3.258,0
7.901,-0.587,0
7.902,-3.883,0
7.903,-5.165,0
7.904,-0.587,0
7.905,-2.052,0
7.906,-0.221,0
7.907,8.202,0
7.908,26.695,0
7.909,56.175,0
7.91,83.641,0
7.911,65.88,0
7.912,23.583,0
7.913,-5.165,0
7.914,-20.729,0
7.915,-35.011,0
7.916,-47.829,0
7.917,-43.983,0
7.918,-47.462,0
7.919,-44.35,0
7.92,-41.42,0
7.921,-33.546,0
7.922,-31.166,0
7.923,-24.574,0
7.924,-22.56,0
7.925,-17.067,0
7.926,-15.419,0
7.927,-11.024,0
7.928,-9.743,0
7.929,-8.644,0
7.93,-7.545,0
7.931,-4.616,0
7.932,-1.869,0
7.933,-1.137,0
7.934,1.061,0
7.935,-0.771,0
7.936,-0.221,0
7.937,-0.771,0
7.938,2.525,0
7.939,9.483,0
7.94,24.681,0
7.941,22.484,0
7.942,8.385,0
7.943,-4.433,0
7.944,-6.081,0
7.945,-10.475,0
7.946,-11.757,0
7.947,-12.855,0
7.948,-13.954,0
7.949,-14.87,0
7.95,-12.123,0
7.951,-14.503,0
7.952,-12.306,0
7.953,-16.884,0
7.954,-12.489,0
7.955,-7.362,0
7.956,-8.644,0
7.957,-2.418,0
7.958,5.089,0
7.959,20.287,0
7.96,53.429,0
7.961,77.232,0
7.962,81.444,0
7.963,45.921,0
7.964,2.892,0
7.965,-25.856,0
7.966,-41.42,0
7.967,-46.181,0
7.968,-50.392,0
7.969,-46.547,0
7.97,-43.068,0
7.971,-39.955,0
7.972,-37.025,0
7.973,-29.152,0
7.974,-26.771,0
7.975,-24.574,0
7.976,-18.532,0
7.977,-16.701,0
7.978,-11.757,0
7.979,-10.292,0
7.98,-11.574,0
7.981,-5.531,0
7.982,-6.63,0
7.983,-5.714,0
7.984,-4.799,0
7.985,-4.066,0
7.986,-1.869,0
7.987,-2.418,0
7.988,3.258,0
7.989,5.455,0
7.99,3.624,0
7.991,3.075,0
7.992,3.624,0
7.993,-0.954,0
7.994,-0.404,0
7.995,1.244,0
7.996,1.61,0
7.997,1.976,0
7.998,2.342,0
7.999,2.708,0
8,2.342,0
8.001,1.61,0
8.002,0.877,0
8.003,2.159,0
8.004,1.61,0
8.005,1.061,0
8.006,0.145,0
8.007,-2.785,0
8.008,-3.7,0
8.009,-1.686,0
8.01,3.807,0
8.011,15.343,0
8.012,40.245,0
8.013,58.006,0
8.014,15.709,0
8.015,-13.039,0
8.016,-28.603,0
8.017,-33.363,0
8.018,-46.181,0
8.019,-42.335,0
8.02,-45.814,0
8.021,-42.702,0
8.022,-33.913,0
8.023,-31.349,0
8.024,-33.729,0
8.025,-27.138,0
8.026,-25.124,0
8.027,-19.63,0
8.028,-17.982,0
8.029,-19.447,0
8.03,-12.672,0
8.031,-6.63,0
8.032,-7.729,0
8.033,-2.785,0
8.034,-3.7,0
8.035,-2.968,0
8.036,-0.771,0
8.037,-1.32,0
8.038,0.511,0
8.039,-1.137,0
8.04,-2.418,0
8.041,-2.785,0
8.042,1.061,0
8.043,3.441,0
8.044,1.244,0
8.045,0.145,0
8.046,-0.954,0
8.047,-2.785,0
8.048,0.511,0
8.049,2.708,0
8.05,0.694,0
8.051,-3.517,0
8.052,-2.968,0
8.053,-3.334,0
8.054,-2.968,0
8.055,-3.334,0
8.056,-0.771,0
8.057,0.328,0
8.058,0.145,0
8.059,-1.32,0
