0,3.15,0
0.001,4.981,0
0.002,9.559,0
0.003,19.813,0
0.004,42.335,0
0.005,64.857,0
0.006,32.264,0
0.007,-6.738,0
0.008,-22.302,0
0.009,-27.062,0
0.01,-31.274,0
0.011,-27.428,0
0.012,-30.907,0
0.013,-27.795,0
0.014,-24.865,0
0.015,-16.991,0
0.016,-19.372,0
0.017,-12.78,0
0.018,-10.766,0
0.019,-8.935,0
0.02,-7.287,0
0.021,-2.892,0
0.022,-4.174,0
0.023,1.868,0
0.024,5.164,0
0.025,6.08,0
0.026,3.333,0
0.027,4.066,0
0.028,9.376,0
0.029,0.404,0
0.03,1.502,0
0.031,4.798,0
0.032,5.714,0
0.033,2.967,0
0.034,0.587,0
0.035,4.432,0
0.036,1.136,0
0.037,1.685,0
0.038,4.432,0
0.039,7.728,0
0.04,9.925,0
0.041,3.699,0
0.042,4.615,0
0.043,5.347,0
0.044,4.615,0
0.045,1.319,0
0.046,0.77,0
0.047,-0.878,0
0.048,-2.16,0
0.049,0.037,0
0.05,-0.329,0
0.051,-1.244,0
0.052,-0.878,0
0.053,-1.244,0
0.054,-2.709,0
0.055,-3.442,0
0.056,0.037,0
0.057,1.319,0
0.058,-0.695,0
0.059,2.784,0
0.06,9.742,0
0.061,24.94,0
0.062,22.742,0
0.063,4.615,0
0.064,2.235,0
0.065,22.193,0
0.066,19.63,0
0.067,41.602,0
0.068,50.391,0
0.069,20.911,0
0.07,-22.485,0
0.071,-39.697,0
0.072,-44.823,0
0.073,-40.063,0
0.074,-35.851,0
0.075,-32.006,0
0.076,-35.485,0
0.077,-25.964,0
0.078,-23.034,0
0.079,-15.16,0
0.08,-12.78,0
0.081,-10.583,0
0.082,-4.54,0
0.083,-2.709,0
0.084,2.235,0
0.085,3.699,0
0.086,4.981,0
0.087,3.883,0
0.088,4.981,0
0.089,5.897,0
0.09,14.32,0
0.091,11.024,0
0.092,11.939,0
0.093,9.193,0
0.094,13.221,0
0.095,9.376,0
0.096,7.545,0
0.097,10.657,0
0.098,10.108,0
0.099,8.826,0
0.1,11.024,0
0.101,7.178,0
0.102,6.812,0
0.103,2.235,0
0.104,10.474,0
0.105,25.306,0
0.106,51.49,0
0.107,69.251,0
0.108,39.954,0
0.109,20.362,0
0.11,-11.865,0
0.111,-24.682,0
0.112,-36.401,0
0.113,-32.922,0
0.114,-36.034,0
0.115,-33.105,0
0.116,-30.541,0
0.117,-28.161,0
0.118,-17.175,0
0.119,-11.132,0
0.12,-9.301,0
0.121,-7.653,0
0.122,-9.118,0
0.123,-5.09,0
0.124,-1.611,0
0.125,4.066,0
0.126,6.995,0
0.127,9.742,0
0.128,7.362,0
0.129,6.629,0
0.13,6.08,0
0.131,2.967,0
0.132,5.714,0
0.133,4.432,0
0.134,5.714,0
0.135,6.08,0
0.136,4.249,0
0.137,3.15,0
0.138,3.333,0
0.139,1.502,0
0.14,5.531,0
0.141,4.981,0
0.142,6.263,0
0.143,5.897,0
0.144,6.263,0
0.145,5.164,0
0.146,4.066,0
0.147,3.333,0
0.148,-0.329,0
0.149,4.249,0
0.15,4.798,0
0.151,6.446,0
0.152,4.066,0
0.153,0.22,0
0.154,1.502,0
0.155,-4.723,0
0.156,9.193,0
0.157,39.405,0
0.158,61.011,0
0.159,41.419,0
0.16,2.052,0
0.161,-13.512,0
0.162,-27.795,0
0.163,-32.006,0
0.164,-28.161,0
0.165,-31.64,0
0.166,-28.527,0
0.167,-19.738,0
0.168,-17.175,0
0.169,-14.794,0
0.17,-16.991,0
0.171,-10.949,0
0.172,-9.118,0
0.173,-4.174,0
0.174,0.22,0
0.175,1.502,0
0.176,4.981,0
0.177,1.685,0
0.178,2.601,0
0.179,5.347,0
0.18,-0.329,0
0.181,4.981,0
0.182,1.685,0
0.183,3.516,0
0.184,5.164,0
0.185,1.868,0
0.186,-0.329,0
0.187,-1.427,0
0.188,1.136,0
0.189,2.235,0
0.19,6.263,0
0.191,10.108,0
0.192,8.826,0
0.193,6.629,0
0.194,9.376,0
0.195,3.699,0
0.196,-0.329,0
0.197,0.404,0
0.198,3.699,0
0.199,1.868,0
0.2,2.418,0
0.201,1.136,0
0.202,1.502,0
0.203,-0.512,0
0.204,0.953,0
0.205,2.052,0
0.206,7.545,0
0.207,19.08,0
0.208,43.983,0
0.209,54.603,0
0.21,18.897,0
0.211,-4.906,0
0.212,-26.513,0
0.213,-30.358,0
0.214,-33.837,0
0.215,-30.724,0
0.216,-27.795,0
0.217,-19.921,0
0.218,-17.541,0
0.219,-15.344,0
0.22,-17.358,0
0.221,-11.865,0
0.222,-6.921,0
0.223,-2.526,0
0.224,-1.244,0
0.225,2.235,0
0.226,3.333,0
0.227,2.418,0
0.228,5.164,0
0.229,2.784,0
0.23,3.516,0
0.231,4.066,0
0.232,8.46,0
0.233,7.911,0
0.234,3.333,0
0.235,0.22,0
0.236,1.868,0
0.237,0.587,0
0.238,1.868,0
0.239,-0.146,0
0.24,1.685,0
0.241,2.784,0
0.242,2.601,0
0.243,0.77,0
0.244,4.798,0
0.245,2.052,0
0.246,2.418,0
0.247,-1.794,0
0.248,0.953,0
0.249,0.587,0
0.25,2.784,0
0.251,3.15,0
0.252,-1.794,0
0.253,-3.625,0
0.254,-0.512,0
0.255,-1.977,0
0.256,1.868,0
0.257,9.376,0
0.258,26.405,0
0.259,53.138,0
0.26,63.758,0
0.261,66.871,0
0.262,22.376,0
0.263,-21.935,0
0.264,-27.612,0
0.265,-43.176,0
0.266,-38.415,0
0.267,-34.203,0
0.268,-30.358,0
0.269,-26.879,0
0.27,-23.766,0
0.271,-20.837,0
0.272,-12.963,0
0.273,-10.583,0
0.274,-8.385,0
0.275,-6.371,0
0.276,-0.878,0
0.277,0.77,0
0.278,5.164,0
0.279,1.136,0
0.28,-2.343,0
0.281,3.333,0
0.282,4.249,0
0.283,5.164,0
0.284,2.784,0
0.285,8.094,0
0.286,8.643,0
0.287,6.812,0
0.288,6.263,0
0.289,7.545,0
0.29,7.911,0
0.291,8.277,0
0.292,6.446,0
0.293,5.347,0
0.294,6.08,0
0.295,4.249,0
0.296,0.22,0
0.297,2.967,0
0.298,4.249,0
0.299,3.883,0
0.3,2.784,0
0.301,-0.695,0
0.302,-0.329,0
0.303,-1.427,0
0.304,-2.526,0
0.305,-2.892,0
0.306,10.474,0
0.307,15.052,0
0.308,25.306,0
0.309,8.826,0
0.31,-2.16,0
0.311,-4.174,0
0.312,4.981,0
0.313,23.292,0
0.314,35.377,0
0.315,46.363,0
0.316,40.321,0
0.317,12.855,0
0.318,-30.541,0
0.319,-47.753,0
0.32,-52.88,0
0.321,-48.119,0
0.322,-52.331,0
0.323,-32.739,0
0.324,-29.26,0
0.325,-26.147,0
0.326,-17.358,0
0.327,-14.794,0
0.328,-7.653,0
0.329,-5.456,0
0.33,-7.47,0
0.331,-1.977,0
0.332,2.967,0
0.333,4.432,0
0.334,3.15,0
0.335,9.193,0
0.336,5.897,0
0.337,8.826,0
0.338,9.742,0
0.339,10.474,0
0.34,11.207,0
0.341,6.629,0
0.342,11.024,0
0.343,11.573,0
0.344,12.855,0
0.345,8.643,0
0.346,5.897,0
0.347,5.531,0
0.348,6.812,0
0.349,4.798,0
0.35,10.474,0
0.351,8.094,0
0.352,8.826,0
0.353,4.249,0
0.354,3.699,0
0.355,2.052,0
0.356,3.333,0
0.357,3.883,0
0.358,6.995,0
0.359,13.221,0
0.36,27.137,0
0.361,37.208,0
0.362,53.687,0
0.363,60.279,0
0.364,30.067,0
0.365,-8.935,0
0.366,-35.119,0
0.367,-39.88,0
0.368,-44.091,0
0.369,-47.936,0
0.37,-37.316,0
0.371,-34.203,0
0.372,-25.414,0
0.373,-22.851,0
0.374,-15.71,0
0.375,-13.512,0
0.376,-11.498,0
0.377,-2.343,0
0.378,-0.695,0
0.379,0.77,0
0.38,2.052,0
0.381,5.531,0
0.382,6.629,0
0.383,7.545,0
0.384,6.629,0
0.385,2.601,0
0.386,0.404,0
0.387,2.235,0
0.388,1.685,0
0.389,2.235,0
0.39,0.953,0
0.391,3.15,0
0.392,2.052,0
0.393,3.883,0
0.394,2.784,0
0.395,0.77,0
0.396,0.953,0
0.397,4.981,0
0.398,8.826,0
0.399,1.319,0
0.4,4.615,0
0.401,5.531,0
0.402,6.446,0
0.403,4.066,0
0.404,7.911,0
0.405,6.08,0
0.406,6.629,0
0.407,4.981,0
0.408,-0.512,0
0.409,-3.808,0
0.41,1.319,0
0.411,11.573,0
0.412,34.095,0
0.413,43.616,0
0.414,46.546,0
0.415,38.673,0
0.416,31.531,0
0.417,24.94,0
0.418,14.869,0
0.419,9.376,0
0.42,14.32,0
0.421,-8.202,0
0.422,-5.09,0
0.423,-2.16,0
0.424,-4.723,0
0.425,-26.696,0
0.426,-59.289,0
0.427,-72.106,0
0.428,-75.951,0
0.429,-65.331,0
0.43,-62.219,0
0.431,-53.429,0
0.432,-45.556,0
0.433,-28.71,0
0.434,-26.513,0
0.435,-12.414,0
0.436,-6.921,0
0.437,-5.273,0
0.438,-0.878,0
0.439,8.643,0
0.44,12.122,0
0.441,17.799,0
0.442,12.855,0
0.443,13.77,0
0.444,17.799,0
0.445,18.531,0
0.446,16.7,0
0.447,17.249,0
0.448,18.897,0
0.449,20.179,0
0.45,17.066,0
0.451,18.165,0
0.452,23.109,0
0.453,18.531,0
0.454,17.982,0
0.455,10.657,0
0.456,7.728,0
0.457,6.812,0
0.458,6.08,0
0.459,6.08,0
0.46,8.277,0
0.461,17.249,0
0.462,35.743,0
0.463,54.42,0
0.464,71.265,0
0.465,42.518,0
0.466,15.052,0
0.467,-17.175,0
0.468,-29.992,0
0.469,-33.837,0
0.47,-30.358,0
0.471,-27.245,0
0.472,-30.175,0
0.473,-22.302,0
0.474,-19.921,0
0.475,-22.118,0
0.476,-16.076,0
0.477,-17.907,0
0.478,-16.259,0
0.479,-11.865,0
0.48,-10.583,0
0.481,-4.54,0
0.482,1.136,0
0.483,2.052,0
0.484,-2.526,0
0.485,6.629,0
0.486,5.531,0
0.487,8.826,0
0.488,11.756,0
0.489,9.01,0
0.49,4.981,0
0.491,5.714,0
0.492,7.545,0
0.493,6.995,0
0.494,1.868,0
0.495,0.037,0
0.496,-0.512,0
0.497,-3.259,0
0.498,0.037,0
0.499,4.249,0
0.5,2.601,0
0.501,-0.695,0
0.502,3.516,0
0.503,1.868,0
0.504,4.249,0
0.505,6.446,0
0.506,0.22,0
0.507,4.798,0
0.508,4.066,0
0.509,3.333,0
0.51,5.347,0
0.511,4.798,0
0.512,14.32,0
0.513,23.841,0
0.514,42.335,0
0.515,50.208,0
0.516,57.349,0
0.517,24.207,0
0.518,-18.823,0
0.519,-36.034,0
0.52,-41.161,0
0.521,-45.922,0
0.522,-41.711,0
0.523,-37.865,0
0.524,-34.386,0
0.525,-31.274,0
0.526,-22.485,0
0.527,-25.048,0
0.528,-22.668,0
0.529,-11.681,0
0.53,-5.639,0
0.531,-3.808,0
0.532,1.136,0
0.533,-0.329,0
0.534,0.953,0
0.535,9.376,0
0.536,8.277,0
0.537,9.193,0
0.538,10.108,0
0.539,12.489,0
0.54,10.291,0
0.541,8.46,0
0.542,5.347,0
0.543,8.094,0
0.544,6.812,0
0.545,3.699,0
0.546,1.685,0
0.547,-0.146,0
0.548,-1.977,0
0.549,-1.244,0
0.55,-1.061,0
0.551,2.967,0
0.552,11.39,0
0.553,24.94,0
0.554,23.109,0
0.555,8.094,0
0.556,2.052,0
0.557,0.22,0
0.558,-1.427,0
0.559,-2.892,0
0.56,-4.174,0
0.561,-6.371,0
0.562,-7.47,0
0.563,0.404,0
0.564,11.573,0
0.565,34.095,0
0.566,56.617,0
0.567,29.884,0
0.568,-2.343,0
0.569,-15.16,0
0.57,-26.879,0
0.571,-30.358,0
0.572,-33.471,0
0.573,-24.682,0
0.574,-22.118,0
0.575,-19.738,0
0.576,-17.541,0
0.577,-11.498,0
0.578,-9.667,0
0.579,-4.723,0
0.58,-6.188,0
0.581,0.587,0
0.582,-2.892,0
0.583,4.981,0
0.584,5.897,0
0.585,4.981,0
0.586,0.953,0
0.587,1.685,0
0.588,-1.611,0
0.589,1.502,0
0.59,3.15,0
0.591,6.446,0
0.592,4.249,0
0.593,4.615,0
0.594,2.052,0
0.595,6.08,0
0.596,-1.427,0
0.597,1.868,0
0.598,-3.075,0
0.599,3.333,0
0.6,-0.695,0
0.601,0.037,0
0.602,3.333,0
0.603,5.164,0
0.604,5.714,0
0.605,6.995,0
0.606,9.193,0
0.607,11.207,0
0.608,10.108,0
0.609,9.742,0
0.61,7.728,0
0.611,4.615,0
0.612,4.615,0
0.613,5.714,0
0.614,11.39,0
0.615,23.841,0
0.616,40.321,0
0.617,42.518,0
0.618,52.589,0
0.619,39.771,0
0.62,14.869,0
0.621,-24.499,0
0.622,-40.063,0
0.623,-44.823,0
0.624,-40.612,0
0.625,-44.457,0
0.626,-40.978,0
0.627,-31.457,0
0.628,-22.668,0
0.629,-20.104,0
0.63,-12.963,0
0.631,-10.766,0
0.632,-8.752,0
0.633,-6.921,0
0.634,-5.273,0
0.635,-0.878,0
0.636,0.404,0
0.637,3.883,0
0.638,0.587,0
0.639,3.516,0
0.64,4.432,0
0.641,5.164,0
0.642,4.432,0
0.643,6.263,0
0.644,5.714,0
0.645,2.967,0
0.646,5.347,0
0.647,6.629,0
0.648,9.376,0
0.649,9.742,0
0.65,11.573,0
0.651,10.841,0
0.652,9.01,0
0.653,6.08,0
0.654,6.446,0
0.655,4.615,0
0.656,5.347,0
0.657,4.066,0
0.658,0.037,0
0.659,-2.709,0
0.66,0.587,0
0.661,1.868,0
0.662,-0.146,0
0.663,4.615,0
0.664,10.291,0
0.665,22.742,0
0.666,42.884,0
0.667,61.561,0
0.668,83.533,0
0.669,56.8,0
0.67,39.039,0
0.671,3.333,0
0.672,-10.949,0
0.673,-15.16,0
0.674,-19.006,0
0.675,-22.485,0
0.676,-19.372,0
0.677,-28.161,0
0.678,-41.528,0
0.679,-48.669,0
0.68,-50.866,0
0.681,-56.908,0
0.682,-51.415,0
0.683,-46.471,0
0.684,-38.964,0
0.685,-23.949,0
0.686,-25.964,0
0.687,-31.457,0
0.688,-46.471,0
0.689,-60.571,0
0.69,-80.712,0
0.691,-94.079,0
0.692,-106.16,0
0.693,-112.76,0
0.694,-126.86,0
0.695,-132.35,0
0.696,-130.7,0
0.697,-111.11,0
0.698,-103.23,0
0.699,-91.149,0
0.7,-71.191,0
0.701,-30.907,0
0.702,55.701,0
0.703,142.86,0
0.704,176.55,0
0.705,186.81,0
0.706,158.79,0
0.707,133.52,0
0.708,110.45,0
0.709,103.49,0
0.71,84.632,0
0.711,90.308,0
0.712,95.435,0
0.713,119.24,0
0.714,134.99,0
0.715,130.78,0
0.716,142.49,0
0.717,145.97,0
0.718,149.09,0
0.719,152.01,0
0.72,159.89,0
0.721,123.45,0
0.722,55.152,0
0.723,8.46,0
0.724,0.037,0
0.725,-7.653,0
0.726,-0.695,0
0.727,-6.921,0
0.728,-12.597,0
0.729,-28.161,0
0.73,-32.922,0
0.731,-37.133,0
0.732,-48.852,0
0.733,-45.373,0
0.734,-42.26,0
0.735,-51.049,0
0.736,-58.923,0
0.737,-61.303,0
0.738,-54.711,0
0.739,-52.697,0
0.74,-47.204,0
0.741,-55.444,0
0.742,-53.979,0
0.743,-58.007,0
0.744,-59.106,0
0.745,-62.402,0
0.746,-61.486,0
0.747,-64.233,0
0.748,-61.852,0
0.749,-51.781,0
0.75,-53.063,0
0.751,-44.64,0
0.752,-45.739,0
0.753,-40.795,0
0.754,-36.218,0
0.755,-30.541,0
0.756,-29.809,0
0.757,-26.513,0
0.758,-23.4,0
0.759,-16.076,0
0.76,-15.16,0
0.761,-12.414,0
0.762,-11.681,0
0.763,-7.836,0
0.764,-11.132,0
0.765,-5.639,0
0.766,-2.526,0
0.767,5.897,0
0.768,24.39,0
0.769,53.87,0
0.77,65.589,0
0.771,33.363,0
0.772,-5.639,0
0.773,-21.203,0
0.774,-25.964,0
0.775,-30.175,0
0.776,-26.33,0
0.777,-22.851,0
0.778,-19.738,0
0.779,-16.808,0
0.78,-14.245,0
0.781,-7.104,0
0.782,-0.512,0
0.783,-2.526,0
0.784,2.967,0
0.785,1.319,0
0.786,5.714,0
0.787,9.742,0
0.788,13.221,0
0.789,18.897,0
0.79,19.813,0
0.791,17.066,0
0.792,17.799,0
0.793,13.953,0
0.794,9.376,0
0.795,12.489,0
0.796,15.235,0
0.797,16.517,0
0.798,23.475,0
0.799,38.673,0
0.8,23.292,0
0.801,9.193,0
0.802,0.037,0
0.803,-4.906,0
0.804,-9.301,0
0.805,-5.273,0
0.806,-4.174,0
0.807,-3.075,0
0.808,1.868,0
0.809,0.953,0
0.81,1.685,0
0.811,-0.512,0
0.812,-2.343,0
0.813,2.052,0
0.814,3.699,0
0.815,3.333,0
0.816,0.22,0
0.817,-1.061,0
0.818,2.784,0
0.819,10.291,0
0.82,27.32,0
0.821,49.293,0
0.822,58.082,0
0.823,39.405,0
0.824,12.672,0
0.825,-19.555,0
0.826,-32.372,0
0.827,-28.527,0
0.828,-39.147,0
0.829,-29.626,0
0.83,-32.555,0
0.831,-24.682,0
0.832,-22.302,0
0.833,-20.104,0
0.834,-14.062,0
0.835,-12.231,0
0.836,-7.287,0
0.837,-2.892,0
0.838,3.883,0
0.839,4.981,0
0.84,8.277,0
0.841,7.362,0
0.842,6.446,0
0.843,12.122,0
0.844,12.855,0
0.845,11.024,0
0.846,7.911,0
0.847,4.066,0
0.848,2.784,0
0.849,4.981,0
0.85,1.136,0
0.851,-0.146,0
0.852,2.052,0
0.853,5.897,0
0.854,-1.611,0
0.855,-0.512,0
0.856,-1.427,0
0.857,6.995,0
0.858,12.672,0
0.859,7.728,0
0.86,3.15,0
0.861,5.531,0
0.862,3.333,0
0.863,2.784,0
0.864,2.235,0
0.865,2.784,0
0.866,1.502,0
0.867,3.15,0
0.868,3.516,0
0.869,9.742,0
0.87,23.658,0
0.871,45.814,0
0.872,60.645,0
0.873,52.772,0
0.874,16.334,0
0.875,-20.287,0
0.876,-34.57,0
0.877,-38.781,0
0.878,-42.626,0
0.879,-39.147,0
0.88,-36.034,0
0.881,-33.105,0
0.882,-25.231,0
0.883,-18.09,0
0.884,-11.498,0
0.885,-5.456,0
0.886,-3.625,0
0.887,-5.273,0
0.888,-3.808,0
0.889,0.22,0
0.89,6.263,0
0.891,5.164,0
0.892,4.249,0
0.893,3.333,0
0.894,5.714,0
0.895,4.981,0
0.896,3.15,0
0.897,0.037,0
0.898,-0.512,0
0.899,2.784,0
0.9,2.418,0
0.901,6.263,0
0.902,3.883,0
0.903,4.249,0
0.904,3.15,0
0.905,5.714,0
0.906,3.883,0
0.907,5.897,0
0.908,2.235,0
0.909,5.531,0
0.91,6.812,0
0.911,5.714,0
0.912,9.193,0
0.913,4.981,0
0.914,2.235,0
0.915,-0.146,0
0.916,2.052,0
0.917,-0.695,0
0.918,0.22,0
0.919,1.319,0
0.92,6.812,0
0.921,18.348,0
0.922,43.25,0
0.923,46.729,0
0.924,56.251,0
0.925,23.658,0
0.926,2.052,0
0.927,-25.414,0
0.928,-43.176,0
0.929,-46.288,0
0.93,-43.359,0
0.931,-40.795,0
0.932,-33.654,0
0.933,-31.457,0
0.934,-25.414,0
0.935,-19.921,0
0.936,-14.977,0
0.937,-10.583,0
0.938,-3.808,0
0.939,-2.709,0
0.94,0.587,0
0.941,5.531,0
0.942,4.615,0
0.943,6.995,0
0.944,9.193,0
0.945,9.742,0
0.946,10.291,0
0.947,4.066,0
0.948,9.742,0
0.949,10.474,0
0.95,12.305,0
0.951,9.193,0
0.952,8.643,0
0.953,7.362,0
0.954,10.474,0
0.955,9.376,0
0.956,3.699,0
0.957,6.08,0
0.958,5.347,0
0.959,5.897,0
0.96,7.728,0
0.961,7.178,0
0.962,2.601,0
0.963,3.15,0
0.964,2.601,0
0.965,3.883,0
0.966,1.685,0
0.967,0.587,0
0.968,-3.625,0
0.969,1.685,0
0.97,2.235,0
0.971,3.516,0
0.972,10.474,0
0.973,25.672,0
0.974,50.025,0
0.975,53.138,0
0.976,32.447,0
0.977,-2.526,0
0.978,-26.33,0
0.979,-39.147,0
0.98,-42.992,0
0.981,-39.513,0
0.982,-36.401,0
0.983,-27.612,0
0.984,-30.175,0
0.985,-23.034,0
0.986,-20.837,0
0.987,-14.794,0
0.988,-12.963,0
0.989,-11.315,0
0.99,-6.921,0
0.991,-2.892,0
0.992,0.587,0
0.993,-0.512,0
0.994,4.432,0
0.995,5.347,0
0.996,9.376,0
0.997,4.066,0
0.998,3.516,0
0.999,2.967,0
1,5.714,0
1.001,6.995,0
1.002,11.207,0
1.003,7.362,0
1.004,8.643,0
1.005,10.841,0
1.006,8.826,0
1.007,6.995,0
1.008,3.699,0
1.009,6.446,0
1.01,2.235,0
1.011,2.784,0
1.012,2.418,0
1.013,2.784,0
1.014,-2.709,0
1.015,-0.512,0
1.016,2.784,0
1.017,3.333,0
1.018,2.784,0
1.019,1.502,0
1.02,0.953,0
1.021,4.066,0
1.022,10.291,0
1.023,24.207,0
1.024,54.42,0
1.025,67.237,0
1.026,39.771,0
1.027,0.404,0
1.028,-25.781,0
1.029,-30.541,0
1.03,-26.33,0
1.031,-38.049,0
1.032,-27.428,0
1.033,-30.541,0
1.034,-27.612,0
1.035,-19.738,0
1.036,-17.358,0
1.037,-15.16,0
1.038,-13.146,0
1.039,-3.991,0
1.04,-5.639,0
1.041,-4.174,0
1.042,-2.892,0
1.043,13.221,0
1.044,28.602,0
1.045,34.644,0
1.046,10.841,0
1.047,1.319,0
1.048,-1.611,0
1.049,-4.174,0
1.05,-6.554,0
1.051,0.037,0
1.052,-1.977,0
1.053,7.178,0
1.054,8.826,0
1.055,4.432,0
1.056,5.714,0
1.057,4.615,0
1.058,1.319,0
1.059,0.404,0
1.06,-0.512,0
1.061,-4.54,0
1.062,-5.273,0
1.063,-3.442,0
1.064,-1.611,0
1.065,1.136,0
1.066,1.502,0
1.067,-1.611,0
1.068,-0.512,0
1.069,0.587,0
1.07,-1.244,0
1.071,0.953,0
1.072,1.685,0
1.073,5.897,0
1.074,15.418,0
1.075,35.926,0
1.076,50.758,0
1.077,53.321,0
1.078,31.348,0
1.079,-1.244,0
1.08,-22.851,0
1.081,-42.443,0
1.082,-38.964,0
1.083,-48.486,0
1.084,-39.697,0
1.085,-37.133,0
1.086,-29.992,0
1.087,-27.795,0
1.088,-17.724,0
1.089,-12.231,0
1.09,-7.287,0
1.091,-5.822,0
1.092,-1.794,0
1.093,-5.273,0
1.094,0.404,0
1.095,1.319,0
1.096,2.235,0
1.097,6.263,0
1.098,8.46,0
1.099,7.911,0
1.1,7.362,0
1.101,6.812,0
1.102,10.108,0
1.103,7.911,0
1.104,5.164,0
1.105,7.728,0
1.106,8.826,0
1.107,8.094,0
1.108,9.925,0
1.109,5.897,0
1.11,5.347,0
1.111,4.981,0
1.112,5.347,0
1.113,5.714,0
1.114,8.277,0
1.115,6.446,0
1.116,3.15,0
1.117,1.868,0
1.118,1.502,0
1.119,1.136,0
1.12,0.037,0
1.121,-0.695,0
1.122,0.22,0
1.123,0.404,0
1.124,4.432,0
1.125,12.855,0
1.126,31.348,0
1.127,55.518,0
1.128,26.221,0
1.129,-9.301,0
1.13,-23.583,0
1.131,-27.795,0
1.132,-31.64,0
1.133,-28.161,0
1.134,-31.274,0
1.135,-28.344,0
1.136,-20.47,0
1.137,-18.09,0
1.138,-15.893,0
1.139,-9.85,0
1.14,-4.357,0
1.141,-6.005,0
1.142,-1.611,0
1.143,-2.892,0
1.144,0.587,0
1.145,-0.512,0
1.146,2.418,0
1.147,-0.329,0
1.148,-2.709,0
1.149,-0.512,0
1.15,1.319,0
1.151,4.432,0
1.152,9.559,0
1.153,9.01,0
1.154,9.559,0
1.155,9.01,0
1.156,7.728,0
1.157,2.601,0
1.158,8.826,0
1.159,4.798,0
1.16,5.531,0
1.161,4.981,0
1.162,5.531,0
1.163,4.981,0
1.164,-2.526,0
1.165,-1.427,0
1.166,-4.357,0
1.167,-1.611,0
1.168,-0.878,0
1.169,-3.075,0
1.17,-3.625,0
1.171,-1.794,0
1.172,-0.146,0
1.173,3.883,0
1.174,2.601,0
1.175,9.559,0
1.176,24.757,0
1.177,44.715,0
1.178,47.279,0
1.179,59.364,0
1.18,35.01,0
1.181,-0.695,0
1.182,-24.499,0
1.183,-37.316,0
1.184,-49.035,0
1.185,-45.556,0
1.186,-36.034,0
1.187,-38.964,0
1.188,-31.091,0
1.189,-23.949,0
1.19,-21.752,0
1.191,-15.71,0
1.192,-10.217,0
1.193,-5.273,0
1.194,-0.878,0
1.195,-2.16,0
1.196,-1.061,0
1.197,2.235,0
1.198,3.15,0
1.199,4.066,0
1.2,9.742,0
1.201,11.939,0
1.202,10.108,0
1.203,9.559,0
1.204,7.911,0
1.205,9.193,0
1.206,9.559,0
1.207,7.545,0
1.208,10.108,0
1.209,6.812,0
1.21,7.911,0
1.211,6.812,0
1.212,7.178,0
1.213,3.883,0
1.214,-0.329,0
1.215,3.516,0
1.216,0.22,0
1.217,-1.061,0
1.218,0.037,0
1.219,4.249,0
1.22,4.798,0
1.221,4.432,0
1.222,1.319,0
1.223,2.418,0
1.224,3.15,0
1.225,4.249,0
1.226,9.742,0
1.227,21.278,0
1.228,32.813,0
1.229,52.406,0
1.23,60.279,0
1.231,28.602,0
1.232,-10.4,0
1.233,-25.964,0
1.234,-40.246,0
1.235,-44.457,0
1.236,-48.302,0
1.237,-37.682,0
1.238,-34.57,0
1.239,-25.781,0
1.24,-17.907,0
1.241,-20.287,0
1.242,-9.301,0
1.243,-7.287,0
1.244,-5.456,0
1.245,-7.104,0
1.246,-2.709,0
1.247,1.319,0
1.248,2.418,0
1.249,-0.878,0
1.25,6.08,0
1.251,5.164,0
1.252,9.193,0
1.253,6.995,0
1.254,8.826,0
1.255,9.376,0
1.256,11.024,0
1.257,6.446,0
1.258,6.995,0
1.259,6.446,0
1.26,8.826,0
1.261,10.108,0
1.262,6.263,0
1.263,6.629,0
1.264,6.995,0
1.265,5.897,0
1.266,6.263,0
1.267,3.699,0
1.268,2.967,0
1.269,1.685,0
1.27,2.967,0
1.271,6.446,0
1.272,6.812,0
1.273,3.699,0
1.274,-0.878,0
1.275,-0.512,0
1.276,1.319,0
1.277,9.742,0
1.278,28.236,0
1.279,46.912,0
1.28,58.997,0
1.281,48.011,0
1.282,17.799,0
1.283,-21.203,0
1.284,-36.767,0
1.285,-41.528,0
1.286,-37.316,0
1.287,-33.471,0
1.288,-29.992,0
1.289,-13.879,0
1.29,6.812,0
1.291,4.249,0
1.292,-7.836,0
1.293,-14.428,0
1.294,-20.47,0
1.295,-22.302,0
1.296,-30.541,0
1.297,-32.006,0
1.298,-25.231,0
1.299,-16.808,0
1.3,-11.132,0
1.301,2.052,0
1.302,7.545,0
1.303,9.193,0
1.304,13.587,0
1.305,12.305,0
1.306,15.784,0
1.307,16.883,0
1.308,17.799,0
1.309,15.052,0
1.31,12.672,0
1.311,13.404,0
1.312,13.953,0
1.313,4.432,0
1.314,3.15,0
1.315,2.052,0
1.316,0.953,0
1.317,-1.977,0
1.318,2.601,0
1.319,1.868,0
1.32,1.136,0
1.321,2.967,0
1.322,4.798,0
1.323,2.052,0
1.324,0.77,0
1.325,0.404,0
1.326,1.685,0
1.327,6.263,0
1.328,8.094,0
1.329,16.517,0
1.33,35.01,0
1.331,32.447,0
1.332,49.293,0
1.333,51.49,0
1.334,25.306,0
1.335,-14.062,0
1.336,-29.626,0
1.337,-43.908,0
1.338,-39.697,0
1.339,-43.542,0
1.34,-32.922,0
1.341,-36.034,0
1.342,-27.245,0
1.343,-19.372,0
1.344,-16.991,0
1.345,-10.4,0
1.346,-4.357,0
1.347,-2.526,0
1.348,-0.878,0
1.349,0.587,0
1.35,-0.695,0
1.351,2.784,0
1.352,6.08,0
1.353,3.15,0
1.354,5.897,0
1.355,3.516,0
1.356,4.249,0
1.357,6.08,0
1.358,9.193,0
1.359,10.841,0
1.36,9.559,0
1.361,7.362,0
1.362,6.995,0
1.363,7.362,0
1.364,4.798,0
1.365,4.615,0
1.366,6.446,0
1.367,6.263,0
1.368,4.798,0
1.369,4.615,0
1.37,1.685,0
1.371,2.784,0
1.372,4.615,0
1.373,3.516,0
1.374,0.77,0
1.375,1.868,0
1.376,3.699,0
1.377,4.615,0
1.378,1.319,0
1.379,8.277,0
1.38,23.475,0
1.381,52.222,0
1.382,56.068,0
1.383,23.841,0
1.384,-6.371,0
1.385,-25.964,0
1.386,-29.443,0
1.387,-32.555,0
1.388,-29.626,0
1.389,-27.062,0
1.39,-24.682,0
1.391,-18.09,0
1.392,-16.076,0
1.393,-14.245,0
1.394,-9.301,0
1.395,-4.906,0
1.396,-8.935,0
1.397,-5.456,0
1.398,-2.16,0
1.399,-1.244,0
1.4,-0.329,0
1.401,2.052,0
1.402,2.784,0
1.403,2.235,0
1.404,2.784,0
1.405,6.629,0
1.406,9.01,0
1.407,7.728,0
1.408,3.883,0
1.409,1.502,0
1.41,3.699,0
1.411,4.798,0
1.412,4.432,0
1.413,1.136,0
1.414,2.235,0
1.415,2.601,0
1.416,-0.695,0
1.417,3.15,0
1.418,6.446,0
1.419,4.249,0
1.42,3.883,0
1.421,2.784,0
1.422,3.15,0
1.423,-1.427,0
1.424,0.404,0
1.425,3.516,0
1.426,4.066,0
1.427,3.699,0
1.428,1.685,0
1.429,2.052,0
1.43,8.277,0
1.431,22.193,0
1.432,36.292,0
1.433,60.096,0
1.434,30.799,0
1.435,-4.723,0
1.436,-28.527,0
1.437,-32.739,0
1.438,-28.893,0
1.439,-25.414,0
1.44,-28.527,0
1.441,-25.597,0
1.442,-23.034,0
1.443,-20.654,0
1.444,-14.062,0
1.445,-8.019,0
1.446,-9.85,0
1.447,-4.906,0
1.448,-0.512,0
1.449,-1.794,0
1.45,-0.695,0
1.451,2.601,0
1.452,7.545,0
1.453,6.629,0
1.454,7.362,0
1.455,8.094,0
1.456,8.643,0
1.457,8.094,0
1.458,9.742,0
1.459,11.024,0
1.46,11.39,0
1.461,8.643,0
1.462,6.08,0
1.463,3.516,0
1.464,6.812,0
1.465,3.699,0
1.466,1.685,0
1.467,0.587,0
1.468,2.418,0
1.469,-2.16,0
1.47,-5.456,0
1.471,-1.061,0
1.472,0.587,0
1.473,-1.794,0
1.474,0.404,0
1.475,1.502,0
1.476,-0.329,0
1.477,-0.695,0
1.478,-1.427,0
1.479,-0.512,0
1.48,-2.343,0
1.481,1.685,0
1.482,10.108,0
1.483,28.602,0
1.484,36.475,0
1.485,48.56,0
1.486,50.758,0
1.487,20.545,0
1.488,-18.456,0
1.489,-34.02,0
1.49,-38.781,0
1.491,-42.992,0
1.492,-39.147,0
1.493,-35.668,0
1.494,-32.555,0
1.495,-29.626,0
1.496,-21.752,0
1.497,-19.372,0
1.498,-12.78,0
1.499,-6.738,0
1.5,-1.244,0
1.501,0.404,0
1.502,1.868,0
1.503,0.587,0
1.504,4.066,0
1.505,5.164,0
1.506,6.08,0
1.507,10.657,0
1.508,8.277,0
1.509,7.545,0
1.51,10.841,0
1.511,11.39,0
1.512,7.545,0
1.513,4.249,0
1.514,2.052,0
1.515,4.798,0
1.516,10.474,0
1.517,9.742,0
1.518,9.01,0
1.519,5.714,0
1.52,8.826,0
1.521,4.981,0
1.522,6.263,0
1.523,6.629,0
1.524,5.531,0
1.525,5.897,0
1.526,2.601,0
1.527,6.446,0
1.528,0.953,0
1.529,-1.244,0
1.53,0.953,0
1.531,4.249,0
1.532,3.699,0
1.533,-0.146,0
1.534,2.235,0
1.535,8.277,0
1.536,20.728,0
1.537,18.897,0
1.538,3.883,0
1.539,9.925,0
1.54,26.405,0
1.541,32.996,0
1.542,30.982,0
1.543,25.489,0
1.544,37.025,0
1.545,20.545,0
1.546,-12.597,0
1.547,-45.922,0
1.548,-50.134,0
1.549,-46.288,0
1.55,-35.668,0
1.551,-32.555,0
1.552,-17.724,0
1.553,-9.85,0
1.554,-2.709,0
1.555,8.277,0
1.556,10.291,0
1.557,12.122,0
1.558,13.77,0
1.559,9.376,0
1.56,13.404,0
1.561,7.362,0
1.562,-7.47,0
1.563,-17.541,0
1.564,-23.034,0
1.565,-31.274,0
1.566,-38.781,0
1.567,-32.006,0
1.568,-23.583,0
1.569,-13.329,0
1.57,-6.554,0
1.571,-12.597,0
1.572,-29.626,0
1.573,-46.471,0
1.574,-61.852,0
1.575,-84.008,0
1.576,-98.84,0
1.577,-117.52,0
1.578,-124.66,0
1.579,-144.62,0
1.58,-147.18,0
1.581,-145.53,0
1.582,-128.69,0
1.583,-113.31,0
1.584,-83.093,0
1.585,-18.09,0
1.586,84.632,0
1.587,180.21,0
1.588,192.66,0
1.589,158.97,0
1.59,128.21,0
1.591,100.2,0
1.592,74.927,0
1.593,82.618,0
1.594,75.66,0
1.595,81.885,0
1.596,99.097,0
1.597,114.66,0
1.598,138.47,0
1.599,142.68,0
1.6,138.83,0
1.601,128.21,0
1.602,105.69,0
1.603,96.9,0
1.604,94.337,0
1.605,82.252,0
1.606,62.293,0
1.607,38.123,0
1.608,28.602,0
1.609,31.531,0
1.61,28.968,0
1.611,21.827,0
1.612,15.235,0
1.613,-2.892,0
1.614,-10.033,0
1.615,-7.836,0
1.616,-21.935,0
1.617,-27.428,0
1.618,-22.485,0
1.619,-32.922,0
1.62,-42.443,0
1.621,-43.542,0
1.622,-44.64,0
1.623,-43.725,0
1.624,-42.809,0
1.625,-48.486,0
1.626,-52.331,0
1.627,-54.162,0
1.628,-59.838,0
1.629,-65.148,0
1.63,-64.599,0
1.631,-66.43,0
1.632,-63.5,0
1.633,-60.754,0
1.634,-53.246,0
1.635,-36.218,0
1.636,-29.076,0
1.637,-0.329,0
1.638,11.39,0
1.639,-13.512,0
1.64,-49.218,0
1.641,-63.5,0
1.642,-59.289,0
1.643,-63.134,0
1.644,-59.655,0
1.645,-50.134,0
1.646,-47.204,0
1.647,-39.33,0
1.648,-32.189,0
1.649,-21.203,0
1.65,-19.189,0
1.651,-13.696,0
1.652,-8.752,0
1.653,-1.244,0
1.654,2.784,0
1.655,6.263,0
1.656,2.967,0
1.657,3.883,0
1.658,14.136,0
1.659,12.855,0
1.66,13.953,0
1.661,12.855,0
1.662,9.925,0
1.663,14.503,0
1.664,12.122,0
1.665,11.39,0
1.666,13.221,0
1.667,13.77,0
1.668,15.418,0
1.669,10.841,0
1.67,11.39,0
1.671,10.841,0
1.672,12.122,0
1.673,10.841,0
1.674,15.418,0
1.675,11.024,0
1.676,10.474,0
1.677,13.77,0
1.678,9.559,0
1.679,10.108,0
1.68,8.826,0
1.681,10.108,0
1.682,8.094,0
1.683,10.474,0
1.684,10.841,0
1.685,16.334,0
1.686,27.869,0
1.687,52.772,0
1.688,56.251,0
1.689,59.364,0
1.69,26.771,0
1.691,-12.231,0
1.692,-27.795,0
1.693,-32.555,0
1.694,-36.767,0
1.695,-32.922,0
1.696,-29.443,0
1.697,-32.555,0
1.698,-29.626,0
1.699,-21.752,0
1.7,-14.611,0
1.701,-12.414,0
1.702,-6.371,0
1.703,-4.54,0
1.704,-2.892,0
1.705,7.545,0
1.706,3.516,0
1.707,6.995,0
1.708,10.291,0
1.709,9.376,0
1.71,15.784,0
1.711,13.404,0
1.712,11.207,0
1.713,7.911,0
1.714,4.798,0
1.715,2.052,0
1.716,8.643,0
1.717,7.728,0
1.718,5.347,0
1.719,3.15,0
1.72,4.981,0
1.721,3.15,0
1.722,3.699,0
1.723,6.995,0
1.724,4.798,0
1.725,-0.695,0
1.726,4.615,0
1.727,10.841,0
1.728,8.46,0
1.729,4.615,0
1.73,2.784,0
1.731,-2.892,0
1.732,-2.16,0
1.733,-1.611,0
1.734,-0.512,0
1.735,-1.061,0
1.736,7.362,0
1.737,25.855,0
1.738,50.025,0
1.739,59.547,0
1.74,26.954,0
1.741,-3.259,0
1.742,-22.851,0
1.743,-26.33,0
1.744,-29.443,0
1.745,-26.513,0
1.746,-34.386,0
1.747,-22.302,0
1.748,-20.104,0
1.749,-22.118,0
1.75,-16.625,0
1.751,-11.681,0
1.752,-10.217,0
1.753,-6.188,0
1.754,-7.287,0
1.755,0.587,0
1.756,1.502,0
1.757,0.587,0
1.758,2.967,0
1.759,3.699,0
1.76,5.531,0
1.761,4.981,0
1.762,4.432,0
1.763,7.728,0
1.764,8.094,0
1.765,6.995,0
1.766,3.516,0
1.767,5.714,0
1.768,4.615,0
1.769,5.714,0
1.77,3.883,0
1.771,-0.695,0
1.772,2.601,0
1.773,3.15,0
1.774,5.897,0
1.775,1.319,0
1.776,0.77,0
1.777,3.516,0
1.778,1.136,0
1.779,-0.146,0
1.78,-2.892,0
1.781,2.784,0
1.782,15.235,0
1.783,9.742,0
1.784,-5.273,0
1.785,-9.301,0
1.786,-7.287,0
1.787,-5.456,0
1.788,9.559,0
1.789,19.63,0
1.79,39.771,0
1.791,53.138,0
1.792,26.405,0
1.793,-5.822,0
1.794,-27.428,0
1.795,-39.147,0
1.796,-42.626,0
1.797,-39.513,0
1.798,-36.584,0
1.799,-34.02,0
1.8,-26.879,0
1.801,-20.287,0
1.802,-18.273,0
1.803,-12.78,0
1.804,-11.132,0
1.805,-3.625,0
1.806,0.404,0
1.807,3.883,0
1.808,7.178,0
1.809,10.108,0
1.81,12.855,0
1.811,7.178,0
1.812,7.911,0
1.813,9.742,0
1.814,7.911,0
1.815,11.756,0
1.816,4.249,0
1.817,7.545,0
1.818,8.46,0
1.819,5.714,0
1.82,6.446,0
1.821,1.136,0
1.822,7.362,0
1.823,6.629,0
1.824,4.432,0
1.825,7.728,0
1.826,7.178,0
1.827,7.728,0
1.828,5.347,0
1.829,3.15,0
1.83,7.728,0
1.831,2.052,0
1.832,5.897,0
1.833,-3.075,0
1.834,-1.977,0
1.835,1.319,0
1.836,5.347,0
1.837,2.418,0
1.838,8.826,0
1.839,21.278,0
1.84,45.081,0
1.841,67.603,0
1.842,40.87,0
1.843,1.502,0
1.844,-14.062,0
1.845,-28.344,0
1.846,-32.555,0
1.847,-36.401,0
1.848,-32.922,0
1.849,-29.809,0
1.85,-21.02,0
1.851,-18.456,0
1.852,-16.076,0
1.853,-9.484,0
1.854,-11.498,0
1.855,-6.005,0
1.856,-10.949,0
1.857,-0.512,0
1.858,3.516,0
1.859,2.418,0
1.86,3.516,0
1.861,4.432,0
1.862,3.516,0
1.863,2.784,0
1.864,0.587,0
1.865,1.136,0
1.866,4.249,0
1.867,-3.075,0
1.868,6.08,0
1.869,2.601,0
1.87,3.699,0
1.871,4.615,0
1.872,3.699,0
1.873,6.08,0
1.874,8.277,0
1.875,6.446,0
1.876,2.052,0
1.877,-0.695,0
1.878,-3.075,0
1.879,-0.878,0
1.88,1.868,0
1.881,7.545,0
1.882,5.164,0
1.883,1.319,0
1.884,0.77,0
1.885,0.22,0
1.886,-2.526,0
1.887,0.22,0
1.888,6.812,0
1.889,17.066,0
1.89,26.588,0
1.891,45.081,0
1.892,63.758,0
1.893,56.617,0
1.894,23.475,0
1.895,-9.85,0
1.896,-31.457,0
1.897,-35.302,0
1.898,-38.781,0
1.899,-41.894,0
1.9,-33.105,0
1.901,-30.541,0
1.902,-28.161,0
1.903,-21.569,0
1.904,-15.527,0
1.905,-10.033,0
1.906,-1.794,0
1.907,-3.259,0
1.908,-1.977,0
1.909,4.066,0
1.91,-1.611,0
1.911,-0.695,0
1.912,2.052,0
1.913,4.432,0
1.914,5.164,0
1.915,6.995,0
1.916,6.446,0
1.917,5.897,0
1.918,5.531,0
1.919,9.742,0
1.92,5.897,0
1.921,10.474,0
1.922,6.08,0
1.923,9.925,0
1.924,11.207,0
1.925,10.841,0
1.926,13.587,0
1.927,11.756,0
1.928,6.263,0
1.929,5.531,0
1.93,2.235,0
1.931,2.784,0
1.932,-4.54,0
1.933,-3.625,0
1.934,0.953,0
1.935,1.685,0
1.936,-0.512,0
1.937,-1.061,0
1.938,-0.512,0
1.939,0.037,0
1.94,8.46,0
1.941,26.954,0
1.942,45.631,0
1.943,62.476,0
1.944,51.49,0
1.945,21.278,0
1.946,-17.724,0
1.947,-33.288,0
1.948,-38.049,0
1.949,-42.26,0
1.95,-38.415,0
1.951,-34.936,0
1.952,-31.823,0
1.953,-28.893,0
1.954,-21.02,0
1.955,-13.879,0
1.956,-11.681,0
1.957,-5.639,0
1.958,-3.808,0
1.959,1.136,0
1.96,2.601,0
1.961,6.629,0
1.962,5.531,0
1.963,4.432,0
1.964,3.516,0
1.965,0.77,0
1.966,1.502,0
1.967,6.812,0
1.968,3.516,0
1.969,7.911,0
1.97,2.784,0
1.971,6.08,0
1.972,13.038,0
1.973,10.291,0
1.974,4.615,0
1.975,6.812,0
1.976,10.108,0
1.977,3.15,0
1.978,0.404,0
1.979,2.784,0
1.98,2.052,0
1.981,1.502,0
1.982,2.052,0
1.983,3.699,0
1.984,3.333,0
1.985,3.699,0
1.986,-0.878,0
1.987,-2.709,0
1.988,-1.061,0
1.989,-3.442,0
1.99,-3.808,0
1.991,3.15,0
1.992,18.348,0
1.993,47.095,0
1.994,50.941,0
1.995,61.561,0
1.996,39.039,0
1.997,0.404,0
1.998,-25.781,0
1.999,-40.063,0
2,-44.274,0
2.001,-40.429,0
2.002,-36.95,0
2.003,-33.837,0
2.004,-25.048,0
2.005,-22.485,0
2.006,-20.104,0
2.007,-13.512,0
2.008,-11.498,0
2.009,-6.005,0
2.01,-7.653,0
2.011,-0.146,0
2.012,3.883,0
2.013,4.981,0
2.014,6.08,0
2.015,6.995,0
2.016,4.249,0
2.017,6.629,0
2.018,5.897,0
2.019,6.446,0
2.02,9.559,0
2.021,9.01,0
2.022,11.39,0
2.023,4.432,0
2.024,7.362,0
2.025,6.446,0
2.026,17.249,0
2.027,30.799,0
2.028,36.292,0
2.029,14.686,0
2.03,-0.146,0
2.031,-2.709,0
2.032,-5.09,0
2.033,-7.287,0
2.034,-9.301,0
2.035,-3.808,0
2.036,-8.752,0
2.037,-4.357,0
2.038,-3.075,0
2.039,-4.174,0
2.04,-3.442,0
2.041,-4.54,0
2.042,10.657,0
2.043,30.616,0
2.044,60.096,0
2.045,56.251,0
2.046,24.024,0
2.047,-14.977,0
2.048,-20.104,0
2.049,-24.865,0
2.05,-29.076,0
2.051,-25.231,0
2.052,-28.71,0
2.053,-19.189,0
2.054,-16.259,0
2.055,-8.385,0
2.056,-6.005,0
2.057,-3.808,0
2.058,-9.85,0
2.059,-0.695,0
2.06,-2.343,0
2.061,2.052,0
2.062,3.333,0
2.063,9.376,0
2.064,3.699,0
2.065,10.657,0
2.066,6.08,0
2.067,2.052,0
2.068,-0.146,0
2.069,-7.653,0
2.07,-2.709,0
2.071,3.699,0
2.072,7.728,0
2.073,6.995,0
2.074,6.446,0
2.075,8.277,0
2.076,4.432,0
2.077,4.798,0
2.078,3.516,0
2.079,6.263,0
2.08,6.629,0
2.081,4.798,0
2.082,1.502,0
2.083,-1.611,0
2.084,-0.512,0
2.085,2.052,0
2.086,1.685,0
2.087,1.868,0
2.088,3.15,0
2.089,7.178,0
2.09,3.333,0
2.091,-1.977,0
2.092,1.319,0
2.093,8.277,0
2.094,23.475,0
2.095,43.433,0
2.096,45.997,0
2.097,53.138,0
2.098,42.152,0
2.099,11.939,0
2.1,-27.062,0
2.101,-32.189,0
2.102,-46.471,0
2.103,-42.26,0
2.104,-38.415,0
2.105,-34.936,0
2.106,-25.414,0
2.107,-22.485,0
2.108,-19.921,0
2.109,-22.302,0
2.11,-15.71,0
2.111,-9.667,0
2.112,-0.512,0
2.113,4.432,0
2.114,2.967,0
2.115,6.995,0
2.116,3.516,0
2.117,6.812,0
2.118,7.728,0
2.119,3.15,0
2.12,2.418,0
2.121,6.263,0
2.122,5.714,0
2.123,7.545,0
2.124,4.798,0
2.125,7.178,0
2.126,9.376,0
2.127,8.277,0
2.128,5.714,0
2.129,6.08,0
2.13,4.615,0
2.131,2.784,0
2.132,4.615,0
2.133,4.066,0
2.134,2.967,0
2.135,3.883,0
2.136,1.136,0
2.137,3.699,0
2.138,7.728,0
2.139,1.136,0
2.14,0.22,0
2.141,0.953,0
2.142,6.08,0
2.143,0.77,0
2.144,11.024,0
2.145,33.546,0
2.146,56.068,0
2.147,58.997,0
2.148,34.827,0
2.149,-0.878,0
2.15,-24.682,0
2.151,-37.499,0
2.152,-33.654,0
2.153,-37.133,0
2.154,-34.02,0
2.155,-31.091,0
2.156,-23.217,0
2.157,-16.076,0
2.158,-5.09,0
2.159,-7.104,0
2.16,-1.611,0
2.161,-3.259,0
2.162,-1.794,0
2.163,-0.512,0
2.164,0.587,0
2.165,-0.512,0
2.166,4.432,0
2.167,3.516,0
2.168,5.897,0
2.169,5.164,0
2.17,5.714,0
2.171,8.826,0
2.172,4.981,0
2.173,3.699,0
2.174,4.066,0
2.175,10.291,0
2.176,5.714,0
2.177,6.446,0
2.178,5.714,0
2.179,5.164,0
2.18,0.77,0
2.181,1.319,0
2.182,-1.061,0
2.183,2.052,0
2.184,3.15,0
2.185,4.249,0
2.186,1.685,0
2.187,3.699,0
2.188,2.418,0
2.189,-1.061,0
2.19,-2.343,0
2.191,-0.329,0
2.192,1.502,0
2.193,2.418,0
2.194,2.784,0
2.195,7.362,0
2.196,17.615,0
2.197,40.137,0
2.198,62.659,0
2.199,53.87,0
2.2,18.897,0
2.201,-14.428,0
2.202,-36.034,0
2.203,-39.88,0
2.204,-43.359,0
2.205,-40.246,0
2.206,-37.316,0
2.207,-29.443,0
2.208,-27.062,0
2.209,-20.47,0
2.21,-14.428,0
2.211,-16.259,0
2.212,-8.019,0
2.213,-6.554,0
2.214,-2.526,0
2.215,-1.427,0
2.216,4.249,0
2.217,5.164,0
2.218,6.08,0
2.219,2.052,0
2.22,9.01,0
2.221,4.432,0
2.222,8.46,0
2.223,6.263,0
2.224,12.489,0
2.225,16.517,0
2.226,11.207,0
2.227,6.629,0
2.228,4.798,0
2.229,5.347,0
2.23,-0.146,0
2.231,-0.878,0
2.232,0.953,0
2.233,-0.878,0
2.234,2.967,0
2.235,4.249,0
2.236,2.967,0
2.237,5.714,0
2.238,0.77,0
2.239,1.319,0
2.24,1.868,0
2.241,1.319,0
2.242,3.699,0
2.243,6.812,0
2.244,0.953,0
2.245,1.319,0
2.246,6.995,0
2.247,19.447,0
2.248,43.25,0
2.249,65.772,0
2.25,33.179,0
2.251,-5.822,0
2.252,-21.386,0
2.253,-35.668,0
2.254,-39.88,0
2.255,-36.034,0
2.256,-32.555,0
2.257,-29.443,0
2.258,-20.654,0
2.259,-18.09,0
2.26,-10.949,0
2.261,-8.752,0
2.262,-6.738,0
2.263,-8.569,0
2.264,-3.625,0
2.265,3.883,0
2.266,2.601,0
2.267,-0.878,0
2.268,0.22,0
2.269,7.178,0
2.27,2.601,0
2.271,3.333,0
2.272,14.869,0
2.273,36.475,0
2.274,33.546,0
2.275,14.869,0
2.276,7.728,0
2.277,-3.259,0
2.278,-5.273,0
2.279,-3.442,0
2.28,-8.385,0
2.281,-3.991,0
2.282,-10.766,0
2.283,-4.723,0
2.284,-5.822,0
2.285,-2.892,0
2.286,-5.639,0
2.287,-1.611,0
2.288,-0.878,0
2.289,-1.427,0
2.29,0.404,0
2.291,4.249,0
2.292,4.615,0
2.293,2.418,0
2.294,0.404,0
2.295,0.22,0
2.296,5.897,0
2.297,9.925,0
2.298,21.461,0
2.299,43.067,0
2.3,51.856,0
2.301,43.983,0
2.302,41.602,0
2.303,35.01,0
2.304,12.855,0
2.305,-13.879,0
2.306,-38.781,0
2.307,-48.302,0
2.308,-51.232,0
2.309,-43.359,0
2.31,-45.739,0
2.311,-43.542,0
2.312,-33.471,0
2.313,-31.64,0
2.314,-20.104,0
2.315,-12.597,0
2.316,-11.315,0
2.317,-7.836,0
2.318,-6.738,0
2.319,0.22,0
2.32,8.643,0
2.321,9.742,0
2.322,4.798,0
2.323,9.376,0
2.324,10.108,0
2.325,10.841,0
2.326,11.39,0
2.327,11.939,0
2.328,13.587,0
2.329,10.291,0
2.33,9.01,0
2.331,4.432,0
2.332,4.981,0
2.333,7.728,0
2.334,11.024,0
2.335,7.911,0
2.336,4.066,0
2.337,11.573,0
2.338,5.897,0
2.339,6.812,0
2.34,0.404,0
2.341,4.432,0
2.342,0.587,0
2.343,2.418,0
2.344,2.967,0
2.345,1.319,0
2.346,-1.977,0
2.347,1.319,0
2.348,8.277,0
2.349,21.461,0
2.35,45.264,0
2.351,54.786,0
2.352,51.856,0
2.353,16.883,0
2.354,-16.442,0
2.355,-29.26,0
2.356,-33.105,0
2.357,-36.584,0
2.358,-33.471,0
2.359,-30.541,0
2.36,-27.978,0
2.361,-25.597,0
2.362,-19.006,0
2.363,-21.02,0
2.364,-11.865,0
2.365,-13.512,0
2.366,-9.118,0
2.367,-2.343,0
2.368,1.136,0
2.369,6.812,0
2.37,7.728,0
2.371,10.474,0
2.372,14.503,0
2.373,13.77,0
2.374,15.601,0
2.375,13.77,0
2.376,14.32,0
2.377,11.024,0
2.378,5.897,0
2.379,6.446,0
2.38,5.897,0
2.381,2.052,0
2.382,-1.244,0
2.383,1.868,0
2.384,-3.625,0
2.385,0.22,0
2.386,2.052,0
2.387,3.883,0
2.388,4.432,0
2.389,9.01,0
2.39,5.897,0
2.391,5.347,0
2.392,2.052,0
2.393,3.333,0
2.394,0.587,0
2.395,1.685,0
2.396,2.052,0
2.397,0.22,0
2.398,-4.357,0
2.399,5.897,0
2.4,25.489,0
2.401,33.363,0
2.402,40.504,0
2.403,55.885,0
2.404,37.757,0
2.405,1.319,0
2.406,-35.302,0
2.407,-40.063,0
2.408,-44.274,0
2.409,-48.119,0
2.41,-44.64,0
2.411,-35.119,0
2.412,-26.33,0
2.413,-18.456,0
2.414,-16.076,0
2.415,-13.879,0
2.416,-7.836,0
2.417,-2.343,0
2.418,-0.695,0
2.419,-2.16,0
2.42,-3.442,0
2.421,2.601,0
2.422,1.502,0
2.423,0.587,0
2.424,3.333,0
2.425,5.714,0
2.426,9.559,0
2.427,11.39,0
2.428,13.221,0
2.429,11.573,0
2.43,9.193,0
2.431,3.15,0
2.432,5.531,0
2.433,10.841,0
2.434,9.01,0
2.435,5.897,0
2.436,4.249,0
2.437,8.826,0
2.438,13.221,0
2.439,11.573,0
2.44,4.066,0
2.441,9.742,0
2.442,8.826,0
2.443,4.249,0
2.444,6.629,0
2.445,7.362,0
2.446,5.531,0
2.447,-0.146,0
2.448,-4.174,0
2.449,-1.977,0
2.45,8.277,0
2.451,24.757,0
2.452,35.743,0
2.453,57.899,0
2.454,25.306,0
2.455,3.699,0
2.456,-23.766,0
2.457,-34.386,0
2.458,-37.499,0
2.459,-40.429,0
2.46,-37.865,0
2.461,-35.485,0
2.462,-28.893,0
2.463,-26.879,0
2.464,-17.724,0
2.465,-19.372,0
2.466,-11.865,0
2.467,-10.583,0
2.468,-4.54,0
2.469,-5.639,0
2.47,-0.695,0
2.471,2.052,0
2.472,4.432,0
2.473,5.164,0
2.474,5.714,0
2.475,8.826,0
2.476,6.08,0
2.477,8.46,0
2.478,10.657,0
2.479,11.756,0
2.48,16.7,0
2.481,17.249,0
2.482,17.799,0
2.483,24.024,0
2.484,26.405,0
2.485,28.602,0
2.486,30.433,0
2.487,28.602,0
2.488,24.757,0
2.489,23.475,0
2.49,20.362,0
2.491,17.615,0
2.492,11.939,0
2.493,6.263,0
2.494,-5.273,0
2.495,-20.287,0
2.496,-30.358,0
2.497,-35.851,0
2.498,-40.795,0
2.499,-36.401,0
2.5,-28.893,0
2.501,-13.879,0
2.502,8.277,0
2.503,11.207,0
2.504,3.333,0
2.505,-33.105,0
2.506,-80.346,0
2.507,-124.66,0
2.508,-141.87,0
2.509,-157.43,0
2.51,-162.19,0
2.511,-183.8,0
2.512,-179.96,0
2.513,-162.19,0
2.514,-139.67,0
2.515,-124.84,0
2.516,-84.557,0
2.517,-21.02,0
2.518,72.181,0
2.519,159.34,0
2.52,170.51,0
2.521,160.25,0
2.522,132.24,0
2.523,123.82,0
2.524,100.75,0
2.525,107.7,0
2.526,101.48,0
2.527,107.15,0
2.528,122.72,0
2.529,137,0
2.53,149.82,0
2.531,153.66,0
2.532,150.18,0
2.533,134.07,0
2.534,113.38,0
2.535,105.51,0
2.536,103.13,0
2.537,87.745,0
2.538,65.589,0
2.539,38.856,0
2.54,35.377,0
2.541,32.264,0
2.542,35.194,0
2.543,27.32,0
2.544,10.474,0
2.545,-4.906,0
2.546,-19.006,0
2.547,-20.837,0
2.548,-32.372,0
2.549,-27.978,0
2.55,-30.541,0
2.551,-42.809,0
2.552,-44.457,0
2.553,-30.907,0
2.554,-3.442,0
2.555,16.151,0
2.556,-8.752,0
2.557,-51.049,0
2.558,-68.261,0
2.559,-83.825,0
2.56,-88.586,0
2.561,-92.797,0
2.562,-96.642,0
2.563,-93.163,0
2.564,-90.051,0
2.565,-81.261,0
2.566,-78.698,0
2.567,-71.557,0
2.568,-60.571,0
2.569,-58.556,0
2.57,-49.401,0
2.571,-41.161,0
2.572,-30.724,0
2.573,-26.696,0
2.574,-18.273,0
2.575,-14.977,0
2.576,-10.033,0
2.577,-7.287,0
2.578,-4.906,0
2.579,-5.639,0
2.58,-3.808,0
2.581,-0.695,0
2.582,4.432,0
2.583,1.136,0
2.584,4.249,0
2.585,2.601,0
2.586,7.178,0
2.587,7.728,0
2.588,11.573,0
2.589,9.193,0
2.59,7.911,0
2.591,9.925,0
2.592,10.291,0
2.593,11.39,0
2.594,6.812,0
2.595,8.643,0
2.596,8.094,0
2.597,8.643,0
2.598,7.362,0
2.599,9.559,0
2.6,5.714,0
2.601,6.08,0
2.602,9.376,0
2.603,16.334,0
2.604,19.263,0
2.605,33.179,0
2.606,63.392,0
2.607,50.574,0
2.608,15.052,0
2.609,-8.752,0
2.61,-21.569,0
2.611,-25.414,0
2.612,-21.935,0
2.613,-25.048,0
2.614,-22.118,0
2.615,-19.555,0
2.616,-12.414,0
2.617,-10.217,0
2.618,-8.202,0
2.619,-6.371,0
2.62,-1.427,0
2.621,0.037,0
2.622,4.066,0
2.623,2.967,0
2.624,10.841,0
2.625,9.925,0
2.626,10.841,0
2.627,6.812,0
2.628,7.545,0
2.629,5.714,0
2.63,3.883,0
2.631,6.629,0
2.632,6.263,0
2.633,6.629,0
2.634,7.728,0
2.635,7.362,0
2.636,4.798,0
2.637,4.615,0
2.638,5.347,0
2.639,6.08,0
2.64,7.545,0
2.641,6.995,0
2.642,4.432,0
2.643,2.601,0
2.644,4.066,0
2.645,2.235,0
2.646,1.502,0
2.647,4.615,0
2.648,2.601,0
2.649,3.699,0
2.65,1.136,0
2.651,1.868,0
2.652,-0.512,0
2.653,0.22,0
2.654,4.249,0
2.655,12.672,0
2.656,31.165,0
2.657,60.645,0
2.658,48.927,0
2.659,9.559,0
2.66,-16.625,0
2.661,-30.907,0
2.662,-35.119,0
2.663,-31.274,0
2.664,-27.795,0
2.665,-30.907,0
2.666,-27.978,0
2.667,-20.104,0
2.668,-17.724,0
2.669,-15.527,0
2.67,-13.512,0
2.671,-11.681,0
2.672,-3.442,0
2.673,0.953,0
2.674,4.981,0
2.675,1.502,0
2.676,4.798,0
2.677,3.883,0
2.678,6.629,0
2.679,7.362,0
2.68,6.629,0
2.681,9.925,0
2.682,8.094,0
2.683,9.742,0
2.684,10.108,0
2.685,5.897,0
2.686,5.347,0
2.687,2.052,0
2.688,4.249,0
2.689,0.404,0
2.69,3.699,0
2.691,1.502,0
2.692,3.516,0
2.693,3.883,0
2.694,2.784,0
2.695,2.052,0
2.696,-1.061,0
2.697,-1.427,0
2.698,0.404,0
2.699,3.699,0
2.7,-0.878,0
2.701,2.235,0
2.702,-1.611,0
2.703,0.953,0
2.704,-0.329,0
2.705,6.629,0
2.706,21.827,0
2.707,46.18,0
2.708,62.293,0
2.709,53.504,0
2.71,24.024,0
2.711,-11.498,0
2.712,-25.781,0
2.713,-38.598,0
2.714,-42.443,0
2.715,-38.964,0
2.716,-35.851,0
2.717,-32.922,0
2.718,-30.358,0
2.719,-23.217,0
2.72,-16.625,0
2.721,-14.611,0
2.722,-5.456,0
2.723,-7.104,0
2.724,-2.709,0
2.725,-6.738,0
2.726,1.685,0
2.727,4.981,0
2.728,4.066,0
2.729,3.15,0
2.73,5.531,0
2.731,4.798,0
2.732,8.094,0
2.733,4.981,0
2.734,3.333,0
2.735,4.615,0
2.736,7.728,0
2.737,6.629,0
2.738,10.841,0
2.739,3.516,0
2.74,6.446,0
2.741,3.699,0
2.742,7.728,0
2.743,14.686,0
2.744,13.77,0
2.745,9.742,0
2.746,5.897,0
2.747,2.601,0
2.748,5.714,0
2.749,1.868,0
2.75,0.587,0
2.751,-6.371,0
2.752,-11.315,0
2.753,-8.569,0
2.754,-9.301,0
2.755,-5.273,0
2.756,-3.075,0
2.757,-1.244,0
2.758,0.587,0
2.759,4.432,0
2.76,4.066,0
2.761,2.784,0
2.762,3.883,0
2.763,6.446,0
2.764,11.939,0
2.765,23.475,0
2.766,21.827,0
2.767,8.277,0
2.768,10.108,0
2.769,28.419,0
2.77,30.799,0
2.771,28.602,0
2.772,14.503,0
2.773,27.32,0
2.774,32.264,0
2.775,9.742,0
2.776,-32.555,0
2.777,-49.767,0
2.778,-54.894,0
2.779,-50.134,0
2.78,-54.345,0
2.781,-50.5,0
2.782,-39.88,0
2.783,-30.358,0
2.784,-27.428,0
2.785,-14.062,0
2.786,-6.921,0
2.787,-9.118,0
2.788,0.953,0
2.789,6.446,0
2.79,1.502,0
2.791,11.939,0
2.792,7.911,0
2.793,11.39,0
2.794,14.686,0
2.795,11.756,0
2.796,10.841,0
2.797,14.869,0
2.798,11.024,0
2.799,9.193,0
2.8,8.643,0
2.801,10.291,0
2.802,5.714,0
2.803,10.108,0
2.804,11.756,0
2.805,6.812,0
2.806,6.446,0
2.807,8.643,0
2.808,14.869,0
2.809,28.785,0
2.81,58.997,0
2.811,54.786,0
2.812,11.39,0
2.813,-17.358,0
2.814,-32.922,0
2.815,-28.161,0
2.816,-32.372,0
2.817,-28.527,0
2.818,-25.048,0
2.819,-21.935,0
2.82,-19.006,0
2.821,-16.442,0
2.822,-14.062,0
2.823,-7.47,0
2.824,-5.456,0
2.825,-7.287,0
2.826,0.953,0
2.827,-0.512,0
2.828,3.516,0
2.829,2.418,0
2.83,1.319,0
2.831,2.235,0
2.832,1.319,0
2.833,-1.061,0
2.834,1.136,0
2.835,-0.695,0
2.836,2.418,0
2.837,1.868,0
2.838,8.46,0
2.839,11.207,0
2.84,8.826,0
2.841,6.629,0
2.842,0.404,0
2.843,-1.977,0
2.844,1.868,0
2.845,0.037,0
2.846,3.15,0
2.847,1.502,0
2.848,-0.878,0
2.849,4.249,0
2.85,-0.329,0
2.851,1.502,0
2.852,4.249,0
2.853,1.868,0
2.854,-0.329,0
2.855,3.516,0
2.856,0.953,0
2.857,3.333,0
2.858,10.291,0
2.859,17.249,0
2.86,31.165,0
2.861,61.378,0
2.862,39.771,0
2.863,4.249,0
2.864,-19.555,0
2.865,-23.766,0
2.866,-35.485,0
2.867,-32.006,0
2.868,-28.893,0
2.869,-25.964,0
2.87,-23.4,0
2.871,-16.259,0
2.872,-14.062,0
2.873,-16.076,0
2.874,-6.921,0
2.875,-8.569,0
2.876,-4.174,0
2.877,-0.146,0
2.878,-1.244,0
2.879,-2.343,0
2.88,0.587,0
2.881,-0.329,0
2.882,2.052,0
2.883,1.319,0
2.884,-1.977,0
2.885,-1.427,0
2.886,1.319,0
2.887,1.685,0
2.888,2.967,0
2.889,4.066,0
2.89,2.967,0
2.891,3.333,0
2.892,4.066,0
2.893,0.953,0
2.894,1.319,0
2.895,0.953,0
2.896,1.319,0
2.897,2.052,0
2.898,3.883,0
2.899,4.066,0
2.9,4.615,0
2.901,7.911,0
2.902,5.714,0
2.903,6.08,0
2.904,8.643,0
2.905,5.347,0
2.906,-0.146,0
2.907,0.22,0
2.908,-0.512,0
2.909,9.742,0
2.91,26.221,0
2.911,41.602,0
2.912,47.645,0
2.913,56.8,0
2.914,31.898,0
2.915,-7.47,0
2.916,-33.654,0
2.917,-38.415,0
2.918,-42.626,0
2.919,-38.781,0
2.92,-42.26,0
2.921,-32.739,0
2.922,-29.809,0
2.923,-21.935,0
2.924,-19.555,0
2.925,-12.963,0
2.926,-10.949,0
2.927,-9.118,0
2.928,-4.174,0
2.929,0.22,0
2.93,1.502,0
2.931,4.981,0
2.932,3.883,0
2.933,4.798,0
2.934,5.714,0
2.935,6.446,0
2.936,8.643,0
2.937,11.939,0
2.938,10.108,0
2.939,8.46,0
2.94,13.038,0
2.941,11.207,0
2.942,8.46,0
2.943,9.742,0
2.944,6.629,0
2.945,2.052,0
2.946,2.601,0
2.947,2.052,0
2.948,0.77,0
2.949,3.883,0
2.95,6.629,0
2.951,8.46,0
2.952,5.897,0
2.953,3.15,0
2.954,0.587,0
2.955,-0.512,0
2.956,0.22,0
2.957,0.404,0
2.958,0.953,0
2.959,3.883,0
2.96,9.559,0
2.961,22.01,0
2.962,42.152,0
2.963,60.828,0
2.964,48.743,0
2.965,15.601,0
2.966,-27.428,0
2.967,-33.105,0
2.968,-38.232,0
2.969,-33.471,0
2.97,-37.682,0
2.971,-33.837,0
2.972,-23.217,0
2.973,-20.104,0
2.974,-17.175,0
2.975,-9.301,0
2.976,-6.921,0
2.977,-4.723,0
2.978,-6.738,0
2.979,-1.244,0
2.98,-2.892,0
2.981,1.502,0
2.982,2.784,0
2.983,6.263,0
2.984,5.164,0
2.985,4.249,0
2.986,1.502,0
2.987,3.883,0
2.988,6.08,0
2.989,7.911,0
2.99,11.024,0
2.991,8.277,0
2.992,8.643,0
2.993,7.362,0
2.994,5.347,0
2.995,7.178,0
2.996,4.615,0
2.997,3.15,0
2.998,3.883,0
2.999,3.15,0
3,1.685,0
3.001,1.136,0
3.002,2.418,0
3.003,1.502,0
3.004,2.967,0
3.005,-0.512,0
3.006,-0.146,0
3.007,4.066,0
3.008,2.418,0
3.009,6.08,0
3.01,13.587,0
3.011,30.616,0
3.012,13.77,0
3.013,-1.611,0
3.014,-7.653,0
3.015,5.164,0
3.016,30.067,0
3.017,47.828,0
3.018,50.941,0
3.019,18.348,0
3.02,-20.654,0
3.021,-36.218,0
3.022,-40.978,0
3.023,-45.19,0
3.024,-41.344,0
3.025,-30.724,0
3.026,-33.837,0
3.027,-25.048,0
3.028,-22.485,0
3.029,-20.104,0
3.03,-9.118,0
3.031,-3.075,0
3.032,-4.906,0
3.033,3.333,0
3.034,1.868,0
3.035,3.15,0
3.036,2.052,0
3.037,5.347,0
3.038,8.277,0
3.039,11.024,0
3.04,13.404,0
3.041,12.672,0
3.042,10.841,0
3.043,11.39,0
3.044,5.164,0
3.045,2.784,0
3.046,6.629,0
3.047,3.333,0
3.048,6.446,0
3.049,9.193,0
3.05,5.897,0
3.051,5.531,0
3.052,1.685,0
3.053,2.052,0
3.054,2.418,0
3.055,-2.16,0
3.056,2.235,0
3.057,0.587,0
3.058,1.868,0
3.059,0.587,0
3.06,3.15,0
3.061,5.897,0
3.062,10.108,0
3.063,18.531,0
3.064,37.025,0
3.065,61.195,0
3.066,58.082,0
3.067,31.348,0
3.068,-15.16,0
3.069,-34.02,0
3.07,-39.697,0
3.071,-44.823,0
3.072,-40.063,0
3.073,-35.851,0
3.074,-32.006,0
3.075,-28.527,0
3.076,-19.006,0
3.077,-16.076,0
3.078,-13.512,0
3.079,-6.371,0
3.08,-4.174,0
3.081,-6.188,0
3.082,-0.695,0
3.083,0.953,0
3.084,-0.512,0
3.085,0.77,0
3.086,4.249,0
3.087,9.925,0
3.088,6.995,0
3.089,9.742,0
3.09,7.362,0
3.091,9.559,0
3.092,10.108,0
3.093,10.657,0
3.094,5.531,0
3.095,4.981,0
3.096,1.868,0
3.097,3.516,0
3.098,3.883,0
3.099,4.249,0
3.1,1.502,0
3.101,1.136,0
3.102,-1.427,0
3.103,3.15,0
3.104,4.981,0
3.105,5.531,0
3.106,6.08,0
3.107,2.784,0
3.108,4.981,0
3.109,5.347,0
3.11,3.516,0
3.111,0.953,0
3.112,-1.611,0
3.113,2.967,0
3.114,13.221,0
3.115,35.743,0
3.116,58.265,0
3.117,55.335,0
3.118,20.362,0
3.119,-12.963,0
3.12,-34.57,0
3.121,-38.415,0
3.122,-41.894,0
3.123,-38.781,0
3.124,-35.851,0
3.125,-27.978,0
3.126,-20.837,0
3.127,-18.639,0
3.128,-16.625,0
3.129,-11.132,0
3.13,-9.484,0
3.131,-5.09,0
3.132,-3.808,0
3.133,-0.329,0
3.134,2.967,0
3.135,5.897,0
3.136,8.643,0
3.137,4.615,0
3.138,5.347,0
3.139,9.925,0
3.14,9.376,0
3.141,6.629,0
3.142,6.263,0
3.143,4.981,0
3.144,3.883,0
3.145,6.446,0
3.146,4.615,0
3.147,6.08,0
3.148,5.347,0
3.149,5.531,0
3.15,7.728,0
3.151,3.516,0
3.152,2.967,0
3.153,3.516,0
3.154,4.798,0
3.155,3.516,0
3.156,3.883,0
3.157,2.052,0
3.158,2.418,0
3.159,0.953,0
3.16,2.784,0
3.161,1.502,0
3.162,3.883,0
3.163,0.404,0
3.164,4.981,0
3.165,14.503,0
3.166,35.01,0
3.167,43.8,0
3.168,46.363,0
3.169,53.504,0
3.17,38.123,0
3.171,7.911,0
3.172,-39.697,0
3.173,-45.922,0
3.174,-51.598,0
3.175,-46.471,0
3.176,-41.711,0
3.177,-37.499,0
3.178,-33.654,0
3.179,-23.034,0
3.18,-19.921,0
3.181,-16.991,0
3.182,-14.428,0
3.183,-12.048,0
3.184,-9.85,0
3.185,-7.836,0
3.186,-2.343,0
3.187,-0.695,0
3.188,3.699,0
3.189,7.728,0
3.19,8.826,0
3.191,12.122,0
3.192,11.207,0
3.193,12.122,0
3.194,12.855,0
3.195,10.657,0
3.196,10.108,0
3.197,13.221,0
3.198,11.573,0
3.199,8.277,0
3.2,8.643,0
3.201,11.39,0
3.202,5.714,0
3.203,4.981,0
3.204,5.714,0
3.205,1.136,0
3.206,6.812,0
3.207,4.615,0
3.208,7.911,0
3.209,7.362,0
3.21,14.686,0
3.211,9.742,0
3.212,12.489,0
3.213,7.545,0
3.214,3.516,0
3.215,11.939,0
3.216,26.771,0
3.217,40.87,0
3.218,50.025,0
3.219,61.561,0
3.22,39.039,0
3.221,-9.667,0
3.222,-30.541,0
3.223,-36.767,0
3.224,-42.443,0
3.225,-47.57,0
3.226,-42.809,0
3.227,-29.992,0
3.228,-33.837,0
3.229,-30.358,0
3.23,-20.837,0
3.231,-17.907,0
3.232,-15.344,0
3.233,-12.963,0
3.234,-6.371,0
3.235,-0.329,0
3.236,-2.16,0
3.237,-0.512,0
3.238,0.953,0
3.239,2.235,0
3.24,5.714,0
3.241,6.812,0
3.242,7.728,0
3.243,10.474,0
3.244,9.742,0
3.245,5.897,0
3.246,5.347,0
3.247,8.46,0
3.248,7.911,0
3.249,4.615,0
3.25,4.249,0
3.251,4.615,0
3.252,7.178,0
3.253,5.347,0
3.254,5.531,0
3.255,9.742,0
3.256,19.263,0
3.257,31.531,0
3.258,9.925,0
3.259,1.136,0
3.26,-6.738,0
3.261,-9.118,0
3.262,-6.921,0
3.263,-8.935,0
3.264,-7.836,0
3.265,-9.667,0
3.266,5.347,0
3.267,19.447,0
3.268,21.278,0
3.269,46.18,0
3.27,49.659,0
3.271,27.137,0
3.272,-11.498,0
3.273,-27.062,0
3.274,-31.823,0
3.275,-44.64,0
3.276,-32.922,0
3.277,-36.401,0
3.278,-26.879,0
3.279,-23.949,0
3.28,-21.386,0
3.281,-19.006,0
3.282,-8.019,0
3.283,-6.005,0
3.284,-4.174,0
3.285,0.77,0
3.286,2.235,0
3.287,9.01,0
3.288,7.911,0
3.289,6.812,0
3.29,7.728,0
3.291,8.643,0
3.292,9.376,0
3.293,10.108,0
3.294,6.812,0
3.295,7.362,0
3.296,12.489,0
3.297,13.038,0
3.298,14.869,0
3.299,17.615,0
3.3,17.249,0
3.301,20.362,0
3.302,18.348,0
3.303,23.292,0
3.304,27.869,0
3.305,27.32,0
3.306,27.869,0
3.307,24.573,0
3.308,23.292,0
3.309,17.066,0
3.31,14.32,0
3.311,13.587,0
3.312,5.164,0
3.313,-9.667,0
3.314,-19.738,0
3.315,-25.414,0
3.316,-34.57,0
3.317,-36.218,0
3.318,-31.823,0
3.319,-11.315,0
3.32,21.278,0
3.321,8.46,0
3.322,-27.062,0
3.323,-50.866,0
3.324,-81.078,0
3.325,-100.67,0
3.326,-111.29,0
3.327,-120.81,0
3.328,-135.64,0
3.329,-149.01,0
3.33,-151.39,0
3.331,-149.19,0
3.332,-135.09,0
3.333,-118.61,0
3.334,-116.42,0
3.335,-94.262,0
3.336,-67.529,0
3.337,-13.879,0
3.338,101.66,0
3.339,151.28,0
3.34,166.3,0
3.341,179.85,0
3.342,142.49,0
3.343,131.32,0
3.344,100.56,0
3.345,91.224,0
3.346,82.801,0
3.347,75.111,0
3.348,95.985,0
3.349,102.21,0
3.35,119.42,0
3.351,124.55,0
3.352,129.31,0
3.353,116.49,0
3.354,104.77,0
3.355,101.3,0
3.356,91.773,0
3.357,94.703,0
3.358,76.026,0
3.359,49.293,0
3.36,31.531,0
3.361,34.644,0
3.362,31.715,0
3.363,34.278,0
3.364,22.193,0
3.365,11.207,0
3.366,-3.442,0
3.367,-5.456,0
3.368,-10.949,0
3.369,-12.597,0
3.37,9.925,0
3.371,13.038,0
3.372,10.108,0
3.373,2.235,0
3.374,-24.499,0
3.375,-63.866,0
3.376,-90.051,0
3.377,-104.33,0
3.378,-100.12,0
3.379,-96.276,0
3.38,-99.755,0
3.381,-96.642,0
3.382,-93.713,0
3.383,-91.149,0
3.384,-84.008,0
3.385,-77.416,0
3.386,-75.402,0
3.387,-62.585,0
3.388,-51.049,0
3.389,-46.655,0
3.39,-42.626,0
3.391,-29.076,0
3.392,-27.245,0
3.393,-19.006,0
3.394,-17.541,0
3.395,-16.259,0
3.396,-12.78,0
3.397,-11.681,0
3.398,-6.738,0
3.399,-7.653,0
3.4,-3.625,0
3.401,-1.427,0
3.402,-1.977,0
3.403,3.699,0
3.404,7.545,0
3.405,8.094,0
3.406,7.545,0
3.407,9.193,0
3.408,8.826,0
3.409,10.108,0
3.41,8.094,0
3.411,9.193,0
3.412,9.559,0
3.413,9.742,0
3.414,10.474,0
3.415,9.742,0
3.416,9.193,0
3.417,6.812,0
3.418,8.277,0
3.419,11.207,0
3.42,17.432,0
3.421,31.348,0
3.422,61.561,0
3.423,65.772,0
3.424,38.306,0
3.425,-1.061,0
3.426,-27.245,0
3.427,-32.006,0
3.428,-36.218,0
3.429,-32.372,0
3.43,-28.893,0
3.431,-19.372,0
3.432,-22.302,0
3.433,-19.738,0
3.434,-12.597,0
3.435,-6.005,0
3.436,-3.991,0
3.437,-2.16,0
3.438,2.784,0
3.439,1.319,0
3.44,8.094,0
3.441,11.573,0
3.442,10.474,0
3.443,11.39,0
3.444,8.643,0
3.445,7.911,0
3.446,8.643,0
3.447,9.193,0
3.448,7.362,0
3.449,10.108,0
3.45,6.812,0
3.451,9.01,0
3.452,5.164,0
3.453,6.446,0
3.454,7.728,0
3.455,8.094,0
3.456,9.193,0
3.457,5.897,0
3.458,9.742,0
3.459,10.108,0
3.46,5.897,0
3.461,6.446,0
3.462,7.728,0
3.463,3.516,0
3.464,0.77,0
3.465,-0.512,0
3.466,0.77,0
3.467,4.615,0
3.468,3.15,0
3.469,0.77,0
3.47,-1.427,0
3.471,4.798,0
3.472,18.714,0
3.473,48.927,0
3.474,61.744,0
3.475,34.278,0
3.476,-5.09,0
3.477,-31.274,0
3.478,-36.034,0
3.479,-40.246,0
3.48,-36.401,0
3.481,-32.922,0
3.482,-36.034,0
3.483,-27.245,0
3.484,-24.682,0
3.485,-17.541,0
3.486,-10.949,0
3.487,-8.935,0
3.488,-3.442,0
3.489,-5.09,0
3.49,-0.695,0
3.491,3.333,0
3.492,4.432,0
3.493,3.333,0
3.494,2.418,0
3.495,3.333,0
3.496,9.01,0
3.497,9.742,0
3.498,9.193,0
3.499,9.742,0
3.5,6.995,0
3.501,14.503,0
3.502,31.531,0
3.503,29.151,0
3.504,4.798,0
3.505,1.685,0
3.506,-1.244,0
3.507,-3.808,0
3.508,-6.188,0
3.509,-3.991,0
3.51,-6.005,0
3.511,-4.174,0
3.512,-2.526,0
3.513,-3.991,0
3.514,-2.709,0
3.515,-1.611,0
3.516,-2.709,0
3.517,0.22,0
3.518,1.136,0
3.519,-1.977,0
3.52,-1.244,0
3.521,10.291,0
3.522,21.827,0
3.523,32.264,0
3.524,52.772,0
3.525,61.561,0
3.526,32.081,0
3.527,-3.442,0
3.528,-27.245,0
3.529,-31.457,0
3.53,-43.176,0
3.531,-39.697,0
3.532,-36.584,0
3.533,-33.654,0
3.534,-25.781,0
3.535,-18.639,0
3.536,-16.442,0
3.537,-10.4,0
3.538,-8.569,0
3.539,-3.625,0
3.54,0.77,0
3.541,-3.259,0
3.542,0.22,0
3.543,1.319,0
3.544,0.404,0
3.545,4.981,0
3.546,5.714,0
3.547,7.911,0
3.548,6.08,0
3.549,4.249,0
3.55,5.897,0
3.551,8.277,0
3.552,4.066,0
3.553,2.418,0
3.554,5.714,0
3.555,5.347,0
3.556,6.446,0
3.557,7.545,0
3.558,7.911,0
3.559,8.643,0
3.56,8.826,0
3.561,5.347,0
3.562,4.066,0
3.563,4.432,0
3.564,1.868,0
3.565,2.967,0
3.566,0.953,0
3.567,2.235,0
3.568,1.502,0
3.569,-0.695,0
3.57,-1.977,0
3.571,2.235,0
3.572,7.911,0
3.573,19.447,0
3.574,44.349,0
3.575,62.11,0
3.576,26.405,0
3.577,-6.921,0
3.578,-19.738,0
3.579,-31.457,0
3.58,-27.978,0
3.581,-31.091,0
3.582,-28.161,0
3.583,-25.597,0
3.584,-18.456,0
3.585,-16.259,0
3.586,-14.245,0
3.587,-8.752,0
3.588,-3.808,0
3.589,-2.343,0
3.59,-1.061,0
3.591,-2.16,0
3.592,1.136,0
3.593,4.066,0
3.594,3.15,0
3.595,2.418,0
3.596,1.685,0
3.597,-0.146,0
3.598,2.967,0
3.599,4.615,0
3.6,2.235,0
3.601,1.868,0
3.602,0.77,0
3.603,2.601,0
3.604,2.967,0
3.605,6.263,0
3.606,4.981,0
3.607,4.615,0
3.608,7.178,0
3.609,6.08,0
3.61,4.615,0
3.611,3.333,0
3.612,4.066,0
3.613,1.502,0
3.614,1.868,0
3.615,2.601,0
3.616,2.418,0
3.617,1.685,0
3.618,-1.427,0
3.619,2.418,0
3.62,5.714,0
3.621,3.883,0
3.622,4.249,0
3.623,10.474,0
3.624,24.39,0
3.625,54.603,0
3.626,50.391,0
3.627,14.869,0
3.628,-18.456,0
3.629,-22.668,0
3.63,-26.513,0
3.631,-29.992,0
3.632,-26.879,0
3.633,-23.949,0
3.634,-26.513,0
3.635,-24.133,0
3.636,-17.541,0
3.637,-15.527,0
3.638,-10.033,0
3.639,-5.09,0
3.64,-3.625,0
3.641,-2.343,0
3.642,-1.244,0
3.643,4.432,0
3.644,3.516,0
3.645,4.432,0
3.646,5.164,0
3.647,5.897,0
3.648,4.066,0
3.649,4.615,0
3.65,5.164,0
3.651,3.883,0
3.652,3.516,0
3.653,5.531,0
3.654,3.699,0
3.655,5.531,0
3.656,6.263,0
3.657,8.094,0
3.658,6.812,0
3.659,7.362,0
3.66,5.897,0
3.661,3.699,0
3.662,-0.512,0
3.663,2.601,0
3.664,0.953,0
3.665,-0.329,0
3.666,-1.611,0
3.667,1.136,0
3.668,1.502,0
3.669,0.404,0
3.67,-1.611,0
3.671,2.601,0
3.672,-1.244,0
3.673,-0.695,0
3.674,7.728,0
3.675,13.77,0
3.676,30.799,0
3.677,37.94,0
3.678,40.137,0
3.679,34.095,0
3.68,28.602,0
3.681,17.066,0
3.682,12.672,0
3.683,24.94,0
3.684,0.037,0
3.685,-32.189,0
3.686,-53.796,0
3.687,-65.514,0
3.688,-62.035,0
3.689,-52.514,0
3.69,-43.725,0
3.691,-41.161,0
3.692,-34.02,0
3.693,-27.428,0
3.694,-13.329,0
3.695,-11.498,0
3.696,-9.85,0
3.697,-5.456,0
3.698,-1.427,0
3.699,-0.329,0
3.7,5.347,0
3.701,6.263,0
3.702,7.178,0
3.703,11.207,0
3.704,10.474,0
3.705,13.77,0
3.706,15.601,0
3.707,16.151,0
3.708,12.855,0
3.709,15.968,0
3.71,11.39,0
3.711,13.221,0
3.712,6.995,0
3.713,12.672,0
3.714,8.826,0
3.715,9.376,0
3.716,6.263,0
3.717,4.615,0
3.718,4.249,0
3.719,4.615,0
3.72,4.981,0
3.721,8.46,0
3.722,5.347,0
3.723,2.418,0
3.724,4.432,0
3.725,10.108,0
3.726,22.559,0
3.727,39.039,0
3.728,50.025,0
3.729,48.011,0
3.73,31.531,0
3.731,-1.611,0
3.732,-25.414,0
3.733,-38.232,0
3.734,-42.077,0
3.735,-38.598,0
3.736,-41.711,0
3.737,-32.922,0
3.738,-30.358,0
3.739,-27.978,0
3.74,-16.991,0
3.741,-14.977,0
3.742,-9.484,0
3.743,-7.836,0
3.744,-3.442,0
3.745,0.587,0
3.746,1.685,0
3.747,16.517,0
3.748,26.588,0
3.749,17.432,0
3.75,5.897,0
3.751,-1.611,0
3.752,-5.639,0
3.753,-4.54,0
3.754,-10.217,0
3.755,-3.259,0
3.756,-4.174,0
3.757,-1.794,0
3.758,0.404,0
3.759,3.699,0
3.76,1.868,0
3.761,1.319,0
3.762,1.685,0
3.763,2.052,0
3.764,3.15,0
3.765,3.516,0
3.766,3.15,0
3.767,5.897,0
3.768,4.798,0
3.769,4.432,0
3.77,5.897,0
3.771,6.08,0
3.772,3.699,0
3.773,4.432,0
3.774,8.277,0
3.775,6.446,0
3.776,10.474,0
3.777,18.897,0
3.778,37.391,0
3.779,61.561,0
3.78,45.448,0
3.781,6.812,0
3.782,-19.372,0
3.783,-33.654,0
3.784,-37.865,0
3.785,-41.711,0
3.786,-31.091,0
3.787,-34.203,0
3.788,-25.414,0
3.789,-22.851,0
3.79,-15.71,0
3.791,-13.512,0
3.792,-7.47,0
3.793,-5.639,0
3.794,-3.991,0
3.795,-2.526,0
3.796,-1.244,0
3.797,-0.146,0
3.798,0.953,0
3.799,0.037,0
3.8,6.446,0
3.801,7.178,0
3.802,9.376,0
3.803,4.798,0
3.804,7.911,0
3.805,7.362,0
3.806,8.643,0
3.807,9.01,0
3.808,7.911,0
3.809,9.01,0
3.81,5.714,0
3.811,4.615,0
3.812,6.446,0
3.813,4.615,0
3.814,0.037,0
3.815,3.333,0
3.816,1.502,0
3.817,0.953,0
3.818,1.319,0
3.819,1.685,0
3.82,-1.061,0
3.821,-2.16,0
3.822,1.868,0
3.823,3.15,0
3.824,0.037,0
3.825,4.615,0
3.826,3.516,0
3.827,9.193,0
3.828,21.644,0
3.829,41.785,0
3.83,55.152,0
3.831,52.772,0
3.832,19.63,0
3.833,-13.696,0
3.834,-35.302,0
3.835,-39.147,0
3.836,-42.626,0
3.837,-39.513,0
3.838,-30.724,0
3.839,-28.161,0
3.84,-21.02,0
3.841,-18.823,0
3.842,-12.78,0
3.843,-10.949,0
3.844,-6.005,0
3.845,-7.47,0
3.846,-3.442,0
3.847,0.037,0
3.848,1.136,0
3.849,2.052,0
3.85,4.798,0
3.851,5.531,0
3.852,4.798,0
3.853,5.347,0
3.854,5.897,0
3.855,8.643,0
3.856,9.01,0
3.857,8.643,0
3.858,5.897,0
3.859,8.46,0
3.86,5.164,0
3.861,7.911,0
3.862,9.742,0
3.863,5.714,0
3.864,3.333,0
3.865,2.967,0
3.866,1.868,0
3.867,1.502,0
3.868,3.333,0
3.869,2.601,0
3.87,-0.512,0
3.871,0.587,0
3.872,1.685,0
3.873,0.587,0
3.874,-0.146,0
3.875,1.136,0
3.876,1.685,0
3.877,-0.695,0
3.878,3.883,0
3.879,14.136,0
3.88,36.658,0
3.881,59.18,0
3.882,32.447,0
3.883,-6.921,0
3.884,-22.485,0
3.885,-27.245,0
3.886,-31.457,0
3.887,-27.612,0
3.888,-31.091,0
3.889,-27.978,0
3.89,-19.189,0
3.891,-16.625,0
3.892,-14.245,0
3.893,-12.048,0
3.894,-10.033,0
3.895,-8.202,0
3.896,-3.259,0
3.897,-4.723,0
3.898,-0.695,0
3.899,-1.794,0
3.9,-0.695,0
3.901,0.22,0
3.902,1.136,0
3.903,5.164,0
3.904,9.01,0
3.905,5.714,0
3.906,3.883,0
3.907,4.432,0
3.908,6.812,0
3.909,7.178,0
3.91,4.432,0
3.911,2.601,0
3.912,2.967,0
3.913,4.432,0
3.914,6.263,0
3.915,4.432,0
3.916,2.967,0
3.917,2.418,0
3.918,1.136,0
3.919,3.15,0
3.92,0.77,0
3.921,1.502,0
3.922,2.235,0
3.923,6.263,0
3.924,5.714,0
3.925,3.333,0
3.926,2.052,0
3.927,-0.512,0
3.928,4.066,0
3.929,13.587,0
3.93,23.109,0
3.931,41.602,0
3.932,44.166,0
3.933,61.011,0
3.934,32.264,0
3.935,-3.259,0
3.936,-27.062,0
3.937,-39.88,0
3.938,-43.725,0
3.939,-47.204,0
3.94,-37.682,0
3.941,-34.753,0
3.942,-26.879,0
3.943,-24.499,0
3.944,-17.907,0
3.945,-15.893,0
3.946,-14.062,0
3.947,-5.822,0
3.948,-4.357,0
3.949,-3.075,0
3.95,0.404,0
3.951,6.08,0
3.952,3.15,0
3.953,2.235,0
3.954,6.263,0
3.955,10.108,0
3.956,8.277,0
3.957,10.108,0
3.958,9.559,0
3.959,8.277,0
3.96,11.39,0
3.961,10.291,0
3.962,7.728,0
3.963,5.164,0
3.964,5.347,0
3.965,4.615,0
3.966,3.883,0
3.967,6.08,0
3.968,4.249,0
3.969,4.432,0
3.97,2.235,0
3.971,4.066,0
3.972,3.333,0
3.973,3.15,0
3.974,0.22,0
3.975,2.052,0
3.976,1.685,0
3.977,-0.329,0
3.978,1.685,0
3.979,-0.146,0
3.98,3.333,0
3.981,10.291,0
3.982,25.489,0
3.983,45.448,0
3.984,42.884,0
3.985,50.025,0
3.986,39.039,0
3.987,32.996,0
3.988,5.531,0
3.989,-37.865,0
3.99,-55.077,0
3.991,-60.204,0
3.992,-55.444,0
3.993,-33.837,0
3.994,-14.245,0
3.995,-24.865,0
3.996,-34.386,0
3.997,-31.457,0
3.998,-28.893,0
3.999,-26.513,0
4,-24.316,0
4.001,-14.245,0
4.002,-8.752,0
4.003,-3.808,0
4.004,0.587,0
4.005,1.868,0
4.006,7.911,0
4.007,6.812,0
4.008,7.728,0
4.009,12.305,0
4.01,11.573,0
4.011,12.305,0
4.012,7.728,0
4.013,7.178,0
4.014,8.826,0
4.015,7.545,0
4.016,7.911,0
4.017,5.897,0
4.018,10.108,0
4.019,9.559,0
4.02,9.193,0
4.021,11.39,0
4.022,10.291,0
4.023,10.657,0
4.024,11.024,0
4.025,9.01,0
4.026,7.728,0
4.027,6.995,0
4.028,4.432,0
4.029,1.685,0
4.03,3.516,0
4.031,8.094,0
4.032,18.348,0
4.033,40.87,0
4.034,63.392,0
4.035,48.56,0
4.036,8.277,0
4.037,-20.47,0
4.038,-36.034,0
4.039,-31.274,0
4.04,-35.485,0
4.041,-31.64,0
4.042,-21.02,0
4.043,-24.133,0
4.044,-21.203,0
4.045,-18.639,0
4.046,-11.498,0
4.047,-13.696,0
4.048,-7.653,0
4.049,-2.16,0
4.05,-0.512,0
4.051,0.953,0
4.052,-0.329,0
4.053,3.15,0
4.054,4.249,0
4.055,7.178,0
4.056,8.094,0
4.057,10.474,0
4.058,9.742,0
4.059,11.573,0
4.06,14.686,0
4.061,10.841,0
4.062,9.559,0
4.063,9.925,0
4.064,11.939,0
4.065,8.46,0
4.066,7.178,0
4.067,5.164,0
4.068,5.531,0
4.069,2.967,0
4.07,3.15,0
4.071,-1.061,0
4.072,-2.892,0
4.073,0.953,0
4.074,0.587,0
4.075,-0.695,0
4.076,0.404,0
4.077,0.77,0
4.078,-3.259,0
4.079,-1.977,0
4.08,-3.442,0
4.081,-3.808,0
4.082,2.418,0
4.083,16.334,0
4.084,46.546,0
4.085,59.364,0
4.086,31.898,0
4.087,-0.329,0
4.088,-21.935,0
4.089,-33.654,0
4.09,-37.133,0
4.091,-27.612,0
4.092,-30.541,0
4.093,-27.978,0
4.094,-20.837,0
4.095,-23.034,0
4.096,-16.991,0
4.097,-15.16,0
4.098,-10.217,0
4.099,-5.822,0
4.1,-4.54,0
4.101,-3.442,0
4.102,-0.146,0
4.103,0.77,0
4.104,1.685,0
4.105,7.362,0
4.106,6.629,0
4.107,3.333,0
4.108,6.446,0
4.109,4.798,0
4.11,8.094,0
4.111,3.883,0
4.112,6.629,0
4.113,3.333,0
4.114,2.052,0
4.115,0.037,0
4.116,2.601,0
4.117,4.432,0
4.118,1.685,0
4.119,5.164,0
4.12,2.967,0
4.121,4.981,0
4.122,2.418,0
4.123,4.249,0
4.124,6.995,0
4.125,4.432,0
4.126,5.531,0
4.127,0.953,0
4.128,0.404,0
4.129,2.235,0
4.13,0.587,0
4.131,-1.244,0
4.132,-0.878,0
4.133,6.08,0
4.134,21.278,0
4.135,45.631,0
4.136,61.744,0
4.137,52.955,0
4.138,12.672,0
4.139,-16.076,0
4.14,-31.64,0
4.141,-36.401,0
4.142,-40.612,0
4.143,-36.767,0
4.144,-33.288,0
4.145,-30.175,0
4.146,-21.386,0
4.147,-18.823,0
4.148,-11.681,0
4.149,-0.695,0
4.15,5.347,0
4.151,10.841,0
4.152,12.489,0
4.153,22.926,0
4.154,29.7,0
4.155,35.743,0
4.156,30.067,0
4.157,30.982,0
4.158,26.405,0
4.159,18.897,0
4.16,13.953,0
4.161,11.207,0
4.162,-1.244,0
4.163,-14.062,0
4.164,-25.597,0
4.165,-33.105,0
4.166,-42.626,0
4.167,-43.725,0
4.168,-40.429,0
4.169,-27.245,0
4.17,-21.752,0
4.171,-29.992,0
4.172,-43.542,0
4.173,-56.359,0
4.174,-77.966,0
4.175,-110.56,0
4.176,-123.38,0
4.177,-127.22,0
4.178,-130.7,0
4.179,-146.81,0
4.18,-149.74,0
4.181,-136.38,0
4.182,-115.5,0
4.183,-98.656,0
4.184,-74.303,0
4.185,-25.597,0
4.186,65.589,0
4.187,152.75,0
4.188,163.92,0
4.189,153.66,0
4.19,144.32,0
4.191,119.06,0
4.192,95.985,0
4.193,102.94,0
4.194,96.717,0
4.195,102.39,0
4.196,107.52,0
4.197,131.32,0
4.198,144.14,0
4.199,171.61,0
4.2,175.09,0
4.201,171.97,0
4.202,145.24,0
4.203,127.48,0
4.204,117.96,0
4.205,97.266,0
4.206,73.096,0
4.207,50.574,0
4.208,35.743,0
4.209,22.376,0
4.21,24.757,0
4.211,22.559,0
4.212,8.46,0
4.213,-4.357,0
4.214,-12.597,0
4.215,-16.991,0
4.216,-29.26,0
4.217,-34.203,0
4.218,-32.739,0
4.219,-47.753,0
4.22,-53.796,0
4.221,-59.289,0
4.222,-57.641,0
4.223,-53.246,0
4.224,-51.965,0
4.225,-58.007,0
4.226,-59.106,0
4.227,-68.261,0
4.228,-67.162,0
4.229,-70.458,0
4.23,-73.388,0
4.231,-76.135,0
4.232,-73.754,0
4.233,-70.824,0
4.234,-65.514,0
4.235,-58.007,0
4.236,-57.092,0
4.237,-50.683,0
4.238,-38.232,0
4.239,-14.428,0
4.24,-4.906,0
4.241,-25.597,0
4.242,-23.034,0
4.243,-1.061,0
4.244,-3.991,0
4.245,20.179,0
4.246,29.7,0
4.247,9.01,0
4.248,-31.274,0
4.249,-48.486,0
4.25,-53.613,0
4.251,-48.852,0
4.252,-44.64,0
4.253,-40.795,0
4.254,-30.175,0
4.255,-27.062,0
4.256,-18.273,0
4.257,-10.4,0
4.258,-3.259,0
4.259,-1.061,0
4.26,4.981,0
4.261,6.812,0
4.262,11.756,0
4.263,13.221,0
4.264,14.503,0
4.265,13.404,0
4.266,14.503,0
4.267,17.432,0
4.268,16.517,0
4.269,12.489,0
4.27,11.756,0
4.271,13.587,0
4.272,16.7,0
4.273,17.249,0
4.274,17.615,0
4.275,18.897,0
4.276,16.883,0
4.277,16.517,0
4.278,16.151,0
4.279,20.179,0
4.28,17.432,0
4.281,16.151,0
4.282,13.038,0
4.283,14.136,0
4.284,9.742,0
4.285,11.573,0
4.286,15.601,0
4.287,23.109,0
4.288,40.137,0
4.289,66.871,0
4.29,27.503,0
4.291,1.319,0
4.292,-22.485,0
4.293,-18.273,0
4.294,-22.118,0
4.295,-25.597,0
4.296,-22.485,0
4.297,-13.696,0
4.298,-16.259,0
4.299,-13.879,0
4.3,-11.681,0
4.301,-9.667,0
4.302,-7.836,0
4.303,-6.188,0
4.304,-1.794,0
4.305,-3.075,0
4.306,0.404,0
4.307,3.699,0
4.308,2.784,0
4.309,9.193,0
4.31,1.685,0
4.311,2.601,0
4.312,5.347,0
4.313,9.376,0
4.314,5.531,0
4.315,8.826,0
4.316,10.657,0
4.317,5.531,0
4.318,7.362,0
4.319,7.911,0
4.32,9.559,0
4.321,9.925,0
4.322,12.122,0
4.323,8.277,0
4.324,7.911,0
4.325,2.784,0
4.326,2.235,0
4.327,1.685,0
4.328,-2.16,0
4.329,-2.526,0
4.33,1.685,0
4.331,1.136,0
4.332,3.516,0
4.333,2.235,0
4.334,0.22,0
4.335,-0.512,0
4.336,-0.146,0
4.337,5.347,0
4.338,16.883,0
4.339,41.785,0
4.34,66.688,0
4.341,57.166,0
4.342,12.672,0
4.343,-19.006,0
4.344,-36.218,0
4.345,-41.344,0
4.346,-36.584,0
4.347,-40.795,0
4.348,-36.95,0
4.349,-26.33,0
4.35,-29.443,0
4.351,-20.654,0
4.352,-18.09,0
4.353,-10.949,0
4.354,-8.752,0
4.355,-2.709,0
4.356,-0.878,0
4.357,4.066,0
4.358,5.531,0
4.359,4.249,0
4.36,3.15,0
4.361,4.249,0
4.362,5.164,0
4.363,2.418,0
4.364,6.446,0
4.365,7.178,0
4.366,7.728,0
4.367,3.333,0
4.368,2.784,0
4.369,5.164,0
4.37,6.446,0
4.371,6.812,0
4.372,8.643,0
4.373,5.347,0
4.374,5.714,0
4.375,4.615,0
4.376,5.714,0
4.377,2.418,0
4.378,5.531,0
4.379,0.953,0
4.38,1.502,0
4.381,-2.343,0
4.382,-3.625,0
4.383,-0.512,0
4.384,-2.526,0
4.385,-1.427,0
4.386,-1.977,0
4.387,0.587,0
4.388,5.164,0
4.389,15.418,0
4.39,37.94,0
4.391,47.462,0
4.392,38.673,0
4.393,25.306,0
4.394,-6.371,0
4.395,-36.584,0
4.396,-40.429,0
4.397,-43.908,0
4.398,-47.021,0
4.399,-38.232,0
4.4,-35.668,0
4.401,-33.288,0
4.402,-22.302,0
4.403,-20.287,0
4.404,-11.132,0
4.405,-6.188,0
4.406,-1.794,0
4.407,2.235,0
4.408,5.714,0
4.409,9.01,0
4.41,6.08,0
4.411,6.995,0
4.412,7.728,0
4.413,9.925,0
4.414,8.094,0
4.415,9.925,0
4.416,9.376,0
4.417,8.094,0
4.418,7.728,0
4.419,8.094,0
4.42,10.657,0
4.421,6.629,0
4.422,9.925,0
4.423,5.714,0
4.424,4.066,0
4.425,4.432,0
4.426,7.545,0
4.427,5.531,0
4.428,5.897,0
4.429,2.601,0
4.43,2.235,0
4.431,0.404,0
4.432,-2.16,0
4.433,1.136,0
4.434,4.249,0
4.435,3.15,0
4.436,0.587,0
4.437,3.883,0
4.438,2.052,0
4.439,6.629,0
4.44,16.883,0
4.441,39.405,0
4.442,55.518,0
4.443,22.926,0
4.444,-7.287,0
4.445,-19.006,0
4.446,-29.626,0
4.447,-32.739,0
4.448,-29.809,0
4.449,-27.245,0
4.45,-24.865,0
4.451,-22.668,0
4.452,-16.625,0
4.453,-14.794,0
4.454,-13.146,0
4.455,-5.639,0
4.456,-6.921,0
4.457,-0.878,0
4.458,4.798,0
4.459,5.714,0
4.46,2.967,0
4.461,3.699,0
4.462,-0.146,0
4.463,0.404,0
4.464,2.235,0
4.465,3.883,0
4.466,3.516,0
4.467,3.15,0
4.468,3.516,0
4.469,3.883,0
4.47,4.981,0
4.471,5.714,0
4.472,2.601,0
4.473,1.502,0
4.474,3.333,0
4.475,2.967,0
4.476,7.545,0
4.477,5.714,0
4.478,1.319,0
4.479,-1.427,0
4.48,-2.709,0
4.481,-1.427,0
4.482,1.319,0
4.483,-0.512,0
4.484,4.981,0
4.485,16.517,0
4.486,24.757,0
4.487,5.164,0
4.488,-4.174,0
4.489,-6.738,0
4.49,-9.118,0
4.491,6.263,0
4.492,28.419,0
4.493,43.25,0
4.494,45.814,0
4.495,43.433,0
4.496,10.291,0
4.497,-23.034,0
4.498,-44.64,0
4.499,-40.795,0
4.5,-44.274,0
4.501,-41.161,0
4.502,-38.232,0
4.503,-30.358,0
4.504,-27.978,0
4.505,-21.386,0
4.506,-15.344,0
4.507,-9.85,0
4.508,-4.906,0
4.509,-0.512,0
4.51,0.77,0
4.511,4.249,0
4.512,7.545,0
4.513,8.46,0
4.514,7.545,0
4.515,8.277,0
4.516,4.432,0
4.517,6.263,0
4.518,8.094,0
4.519,6.446,0
4.52,6.812,0
4.521,9.925,0
4.522,7.178,0
4.523,12.855,0
4.524,12.122,0
4.525,6.812,0
4.526,6.263,0
4.527,4.432,0
4.528,4.981,0
4.529,5.347,0
4.53,-1.611,0
4.531,5.347,0
4.532,2.601,0
4.533,0.22,0
4.534,2.418,0
4.535,1.868,0
4.536,-1.244,0
4.537,-1.794,0
4.538,3.699,0
4.539,6.812,0
4.54,4.615,0
4.541,7.911,0
4.542,17.432,0
4.543,37.94,0
4.544,46.729,0
4.545,49.293,0
4.546,27.32,0
4.547,0.587,0
4.548,-31.64,0
4.549,-35.851,0
4.55,-39.697,0
4.551,-43.176,0
4.552,-40.063,0
4.553,-37.133,0
4.554,-34.57,0
4.555,-22.485,0
4.556,-20.287,0
4.557,-10.217,0
4.558,-8.385,0
4.559,-0.146,0
4.56,-1.611,0
4.561,-0.329,0
4.562,-1.427,0
4.563,1.868,0
4.564,2.784,0
4.565,1.868,0
4.566,4.249,0
4.567,8.094,0
4.568,6.263,0
4.569,4.432,0
4.57,6.08,0
4.571,3.699,0
4.572,6.812,0
4.573,7.178,0
4.574,4.615,0
4.575,8.643,0
4.576,6.263,0
4.577,5.897,0
4.578,5.531,0
4.579,2.052,0
4.58,0.77,0
4.581,1.136,0
4.582,1.502,0
4.583,1.868,0
4.584,3.883,0
4.585,0.77,0
4.586,1.868,0
4.587,-0.695,0
4.588,4.066,0
4.589,2.235,0
4.59,2.418,0
4.591,2.967,0
4.592,10.474,0
4.593,27.503,0
4.594,44.349,0
4.595,50.941,0
4.596,61.011,0
4.597,33.546,0
4.598,-9.85,0
4.599,-27.062,0
4.6,-42.626,0
4.601,-47.387,0
4.602,-43.176,0
4.603,-31.457,0
4.604,-27.978,0
4.605,-24.865,0
4.606,-21.935,0
4.607,-19.372,0
4.608,-12.231,0
4.609,-10.033,0
4.61,-3.991,0
4.611,-5.822,0
4.612,-0.878,0
4.613,0.587,0
4.614,1.868,0
4.615,5.347,0
4.616,2.052,0
4.617,1.136,0
4.618,2.052,0
4.619,2.784,0
4.62,4.981,0
4.621,6.812,0
4.622,9.925,0
4.623,11.573,0
4.624,10.291,0
4.625,11.573,0
4.626,8.826,0
4.627,10.657,0
4.628,5.897,0
4.629,2.784,0
4.63,-1.061,0
4.631,1.319,0
4.632,2.601,0
4.633,4.615,0
4.634,4.981,0
4.635,-0.512,0
4.636,-1.244,0
4.637,2.052,0
4.638,5.164,0
4.639,1.319,0
4.64,0.953,0
4.641,0.953,0
4.642,4.066,0
4.643,10.291,0
4.644,24.207,0
4.645,42.335,0
4.646,64.307,0
4.647,31.715,0
4.648,10.108,0
4.649,-17.358,0
4.65,-27.978,0
4.651,-37.499,0
4.652,-34.57,0
4.653,-37.133,0
4.654,-29.992,0
4.655,-27.795,0
4.656,-25.781,0
4.657,-16.625,0
4.658,-14.977,0
4.659,-10.583,0
4.66,-9.301,0
4.661,-5.822,0
4.662,-2.526,0
4.663,2.418,0
4.664,1.502,0
4.665,0.77,0
4.666,4.615,0
4.667,2.784,0
4.668,3.333,0
4.669,4.981,0
4.67,8.277,0
4.671,8.643,0
4.672,12.489,0
4.673,7.911,0
4.674,4.798,0
4.675,7.545,0
4.676,2.967,0
4.677,3.516,0
4.678,8.643,0
4.679,4.066,0
4.68,2.235,0
4.681,3.883,0
4.682,3.516,0
4.683,2.235,0
4.684,3.333,0
4.685,-0.146,0
4.686,4.981,0
4.687,0.404,0
4.688,-1.427,0
4.689,-5.273,0
4.69,-0.695,0
4.691,-2.526,0
4.692,1.685,0
4.693,2.235,0
4.694,9.742,0
4.695,17.615,0
4.696,32.813,0
4.697,65.955,0
4.698,32.63,0
4.699,-6.371,0
4.7,-21.935,0
4.701,-36.218,0
4.702,-32.006,0
4.703,-28.161,0
4.704,-31.64,0
4.705,-28.527,0
4.706,-19.738,0
4.707,-22.302,0
4.708,-15.16,0
4.709,-8.569,0
4.71,-10.583,0
4.711,-8.752,0
4.712,-3.808,0
4.713,-2.343,0
4.714,-3.625,0
4.715,-0.146,0
4.716,-1.244,0
4.717,1.685,0
4.718,0.77,0
4.719,6.446,0
4.72,2.601,0
4.721,7.178,0
4.722,6.629,0
4.723,11.756,0
4.724,9.925,0
4.725,10.474,0
4.726,7.728,0
4.727,5.347,0
4.728,5.714,0
4.729,3.699,0
4.73,9.376,0
4.731,18.531,0
4.732,17.432,0
4.733,4.981,0
4.734,-3.259,0
4.735,-4.723,0
4.736,-8.752,0
4.737,-9.85,0
4.738,-10.949,0
4.739,-6.005,0
4.74,-1.427,0
4.741,-7.104,0
4.742,-6.371,0
4.743,-4.174,0
4.744,-3.625,0
4.745,4.615,0
4.746,21.644,0
4.747,38.49,0
4.748,40.687,0
4.749,58.814,0
4.75,46.729,0
4.751,13.587,0
4.752,-29.443,0
4.753,-46.655,0
4.754,-41.528,0
4.755,-36.767,0
4.756,-40.978,0
4.757,-29.26,0
4.758,-25.781,0
4.759,-22.668,0
4.76,-13.879,0
4.761,-11.315,0
4.762,-13.696,0
4.763,-7.104,0
4.764,-5.09,0
4.765,-3.259,0
4.766,-1.611,0
4.767,-0.146,0
4.768,3.883,0
4.769,7.362,0
4.77,6.263,0
4.771,9.193,0
4.772,6.446,0
4.773,8.826,0
4.774,8.094,0
4.775,7.545,0
4.776,9.376,0
4.777,7.728,0
4.778,10.108,0
4.779,4.066,0
4.78,3.333,0
4.781,4.066,0
4.782,7.362,0
4.783,7.911,0
4.784,6.263,0
4.785,5.897,0
4.786,2.784,0
4.787,-1.061,0
4.788,1.319,0
4.789,3.516,0
4.79,5.531,0
4.791,5.164,0
4.792,4.798,0
4.793,3.333,0
4.794,3.15,0
4.795,-0.512,0
4.796,4.981,0
4.797,16.517,0
4.798,31.531,0
4.799,49.659,0
4.8,56.8,0
4.801,28.052,0
4.802,-15.344,0
4.803,-32.555,0
4.804,-37.682,0
4.805,-32.922,0
4.806,-28.71,0
4.807,-32.555,0
4.808,-29.076,0
4.809,-25.964,0
4.81,-17.175,0
4.811,-14.611,0
4.812,-12.231,0
4.813,-10.033,0
4.814,-8.019,0
4.815,-6.188,0
4.816,-4.54,0
4.817,-3.075,0
4.818,-1.794,0
4.819,1.685,0
4.82,2.784,0
4.821,5.714,0
4.822,4.798,0
4.823,7.178,0
4.824,4.981,0
4.825,8.277,0
4.826,8.826,0
4.827,7.178,0
4.828,7.545,0
4.829,7.178,0
4.83,3.333,0
4.831,8.826,0
4.832,9.559,0
4.833,6.263,0
4.834,4.432,0
4.835,2.784,0
4.836,1.502,0
4.837,2.784,0
4.838,2.418,0
4.839,4.981,0
4.84,4.615,0
4.841,6.08,0
4.842,7.911,0
4.843,3.883,0
4.844,-2.343,0
4.845,-1.244,0
4.846,2.784,0
4.847,12.855,0
4.848,27.869,0
4.849,45.997,0
4.85,58.082,0
4.851,29.334,0
4.852,1.868,0
4.853,-23.034,0
4.854,-32.555,0
4.855,-35.485,0
4.856,-32.922,0
4.857,-30.541,0
4.858,-28.344,0
4.859,-22.302,0
4.86,-20.47,0
4.861,-18.823,0
4.862,-14.428,0
4.863,-7.653,0
4.864,-4.174,0
4.865,-3.075,0
4.866,-2.16,0
4.867,-1.244,0
4.868,1.136,0
4.869,0.404,0
4.87,0.953,0
4.871,2.784,0
4.872,6.629,0
4.873,9.925,0
4.874,5.714,0
4.875,10.841,0
4.876,4.615,0
4.877,6.995,0
4.878,7.728,0
4.879,0.22,0
4.88,-2.709,0
4.881,1.868,0
4.882,2.601,0
4.883,1.868,0
4.884,1.319,0
4.885,-1.794,0
4.886,-1.244,0
4.887,-0.878,0
4.888,2.235,0
4.889,1.868,0
4.89,2.235,0
4.891,1.868,0
4.892,5.164,0
4.893,6.446,0
4.894,0.22,0
4.895,1.136,0
4.896,0.953,0
4.897,1.685,0
4.898,13.221,0
4.899,31.531,0
4.9,63.209,0
4.901,50.391,0
4.902,14.869,0
4.903,-8.935,0
4.904,-30.541,0
4.905,-26.696,0
4.906,-30.175,0
4.907,-33.288,0
4.908,-30.358,0
4.909,-16.991,0
4.91,-19.372,0
4.911,-12.78,0
4.912,-6.738,0
4.913,-4.906,0
4.914,-3.259,0
4.915,-7.653,0
4.916,1.868,0
4.917,0.77,0
4.918,-0.329,0
4.919,2.601,0
4.92,-0.146,0
4.921,3.883,0
4.922,6.08,0
4.923,5.531,0
4.924,2.418,0
4.925,5.164,0
4.926,2.784,0
4.927,4.981,0
4.928,6.995,0
4.929,9.559,0
4.93,6.995,0
4.931,7.728,0
4.932,8.46,0
4.933,9.193,0
4.934,8.094,0
4.935,4.798,0
4.936,-1.244,0
4.937,6.263,0
4.938,5.347,0
4.939,0.77,0
4.94,3.15,0
4.941,5.347,0
4.942,3.516,0
4.943,-2.16,0
4.944,-1.427,0
4.945,0.404,0
4.946,-3.991,0
4.947,-6.371,0
4.948,-2.526,0
4.949,4.066,0
4.95,16.151,0
4.951,41.053,0
4.952,51.673,0
4.953,54.786,0
4.954,22.193,0
4.955,-16.808,0
4.956,-32.372,0
4.957,-37.133,0
4.958,-32.922,0
4.959,-36.767,0
4.96,-33.288,0
4.961,-23.766,0
4.962,-20.837,0
4.963,-18.273,0
4.964,-15.893,0
4.965,-13.696,0
4.966,-7.653,0
4.967,-5.822,0
4.968,-4.174,0
4.969,0.22,0
4.97,1.502,0
4.971,2.601,0
4.972,5.897,0
4.973,6.812,0
4.974,9.559,0
4.975,8.826,0
4.976,20.362,0
4.977,35.377,0
4.978,17.249,0
4.979,5.164,0
4.98,-1.427,0
4.981,-3.442,0
4.982,-8.935,0
4.983,-3.991,0
4.984,-8.385,0
4.985,-9.667,0
4.986,-3.625,0
4.987,-0.329,0
4.988,-1.244,0
4.989,1.502,0
4.99,3.883,0
4.991,3.15,0
4.992,1.319,0
4.993,6.995,0
4.994,4.798,0
4.995,0.22,0
4.996,0.77,0
4.997,4.615,0
4.998,3.883,0
4.999,3.516,0
5,10.474,0
5.001,25.672,0
5.002,45.631,0
5.003,64.307,0
5.004,42.335,0
5.005,3.699,0
5.006,-22.485,0
5.007,-27.245,0
5.008,-31.457,0
5.009,-27.612,0
5.01,-31.091,0
5.011,-21.569,0
5.012,-18.639,0
5.013,-21.203,0
5.014,-14.062,0
5.015,-11.865,0
5.016,-9.85,0
5.017,-8.019,0
5.018,-3.075,0
5.019,4.432,0
5.02,8.46,0
5.021,14.503,0
5.022,20.179,0
5.023,27.137,0
5.024,33.546,0
5.025,37.574,0
5.026,35.377,0
5.027,33.546,0
5.028,25.306,0
5.029,26.405,0
5.03,17.249,0
5.031,13.77,0
5.032,10.474,0
5.033,-0.695,0
5.034,-14.245,0
5.035,-27.062,0
5.036,-32.006,0
5.037,-36.401,0
5.038,-43.176,0
5.039,-34.753,0
5.04,-22.302,0
5.041,-10.766,0
5.042,-24.316,0
5.043,-40.795,0
5.044,-60.754,0
5.045,-79.43,0
5.046,-106.16,0
5.047,-116.78,0
5.048,-119.9,0
5.049,-127.95,0
5.05,-154.69,0
5.051,-151.21,0
5.052,-135.09,0
5.053,-96.459,0
5.054,-70.275,0
5.055,-55.993,0
5.056,-16.991,0
5.057,40.687,0
5.058,125.47,0
5.059,159.16,0
5.06,169.41,0
5.061,160.07,0
5.062,134.8,0
5.063,127.11,0
5.064,78.223,0
5.065,59.364,0
5.066,53.687,0
5.067,58.814,0
5.068,82.618,0
5.069,112.83,0
5.07,132.42,0
5.071,135.9,0
5.072,139.01,0
5.073,124.18,0
5.074,121.62,0
5.075,114.48,0
5.076,94.52,0
5.077,65.04,0
5.078,45.448,0
5.079,41.969,0
5.08,38.856,0
5.081,35.926,0
5.082,28.052,0
5.083,20.911,0
5.084,9.925,0
5.085,3.883,0
5.086,-8.935,0
5.087,-13.879,0
5.088,-9.484,0
5.089,-19.006,0
5.09,-35.119,0
5.091,-37.316,0
5.092,-39.33,0
5.093,-41.161,0
5.094,-46.105,0
5.095,-50.5,0
5.096,-51.781,0
5.097,-60.204,0
5.098,-61.303,0
5.099,-66.247,0
5.1,-67.162,0
5.101,-68.078,0
5.102,-73.754,0
5.103,-62.219,0
5.104,-37.316,0
5.105,-19.555,0
5.106,-16.442,0
5.107,4.249,0
5.108,-9.118,0
5.109,-45.556,0
5.11,-71.74,0
5.111,-86.022,0
5.112,-81.811,0
5.113,-77.966,0
5.114,-67.345,0
5.115,-64.233,0
5.116,-49.401,0
5.117,-46.838,0
5.118,-39.697,0
5.119,-28.71,0
5.12,-26.696,0
5.121,-13.879,0
5.122,-5.639,0
5.123,-1.244,0
5.124,5.531,0
5.125,6.629,0
5.126,9.925,0
5.127,9.01,0
5.128,13.587,0
5.129,14.32,0
5.13,13.587,0
5.131,16.883,0
5.132,13.77,0
5.133,15.418,0
5.134,16.7,0
5.135,21.827,0
5.136,14.32,0
5.137,17.249,0
5.138,16.334,0
5.139,17.066,0
5.14,17.799,0
5.141,15.968,0
5.142,15.418,0
5.143,11.573,0
5.144,11.207,0
5.145,10.841,0
5.146,9.742,0
5.147,11.573,0
5.148,8.277,0
5.149,9.376,0
5.15,8.277,0
5.151,7.545,0
5.152,10.841,0
5.153,17.066,0
5.154,30.982,0
5.155,49.11,0
5.156,51.49,0
5.157,66.871,0
5.158,48.743,0
5.159,12.305,0
5.16,-24.316,0
5.161,-38.598,0
5.162,-42.809,0
5.163,-38.964,0
5.164,-35.485,0
5.165,-32.372,0
5.166,-29.443,0
5.167,-21.569,0
5.168,-19.189,0
5.169,-12.597,0
5.17,-10.583,0
5.171,-5.09,0
5.172,-0.146,0
5.173,4.249,0
5.174,5.531,0
5.175,4.432,0
5.176,7.728,0
5.177,4.798,0
5.178,9.376,0
5.179,8.643,0
5.18,7.911,0
5.181,7.362,0
5.182,7.911,0
5.183,10.657,0
5.184,9.376,0
5.185,9.01,0
5.186,3.516,0
5.187,10.474,0
5.188,9.559,0
5.189,7.178,0
5.19,6.446,0
5.191,6.995,0
5.192,7.545,0
5.193,6.995,0
5.194,1.502,0
5.195,5.347,0
5.196,3.516,0
5.197,4.066,0
5.198,2.418,0
5.199,2.052,0
5.2,-2.16,0
5.201,2.967,0
5.202,1.685,0
5.203,3.516,0
5.204,11.756,0
5.205,28.785,0
5.206,60.462,0
5.207,64.674,0
5.208,29.151,0
5.209,-4.174,0
5.21,-25.781,0
5.211,-29.626,0
5.212,-33.105,0
5.213,-36.218,0
5.214,-27.428,0
5.215,-24.865,0
5.216,-22.485,0
5.217,-20.287,0
5.218,-18.273,0
5.219,-12.78,0
5.22,-7.836,0
5.221,8.643,0
5.222,24.024,0
5.223,30.067,0
5.224,13.587,0
5.225,-1.794,0
5.226,-3.808,0
5.227,-5.639,0
5.228,-10.583,0
5.229,-6.188,0
5.23,-7.47,0
5.231,-6.371,0
5.232,-5.273,0
5.233,-4.357,0
5.234,0.22,0
5.235,0.953,0
5.236,-1.244,0
5.237,2.052,0
5.238,5.164,0
5.239,4.615,0
5.24,5.897,0
5.241,5.531,0
5.242,2.784,0
5.243,5.347,0
5.244,4.249,0
5.245,4.432,0
5.246,1.868,0
5.247,7.362,0
5.248,3.516,0
5.249,2.967,0
5.25,-1.427,0
5.251,1.319,0
5.252,-1.977,0
5.253,1.685,0
5.254,0.404,0
5.255,6.629,0
5.256,20.545,0
5.257,50.758,0
5.258,63.575,0
5.259,36.109,0
5.26,32.63,0
5.261,29.517,0
5.262,32.447,0
5.263,2.967,0
5.264,-32.555,0
5.265,-56.359,0
5.266,-60.571,0
5.267,-64.416,0
5.268,-53.796,0
5.269,-56.908,0
5.27,-48.119,0
5.271,-40.246,0
5.272,-28.161,0
5.273,-21.569,0
5.274,-11.498,0
5.275,-6.005,0
5.276,-7.653,0
5.277,2.784,0
5.278,4.066,0
5.279,7.545,0
5.28,6.446,0
5.281,9.376,0
5.282,13.953,0
5.283,11.573,0
5.284,10.841,0
5.285,9.01,0
5.286,10.841,0
5.287,11.39,0
5.288,14.686,0
5.289,16.883,0
5.29,12.305,0
5.291,15.418,0
5.292,12.672,0
5.293,12.305,0
5.294,9.193,0
5.295,6.446,0
5.296,6.812,0
5.297,10.841,0
5.298,5.347,0
5.299,7.545,0
5.3,2.967,0
5.301,3.516,0
5.302,1.868,0
5.303,4.249,0
5.304,3.883,0
5.305,6.995,0
5.306,11.573,0
5.307,21.094,0
5.308,41.602,0
5.309,68.336,0
5.31,36.109,0
5.311,-2.892,0
5.312,-18.456,0
5.313,-32.739,0
5.314,-28.527,0
5.315,-32.372,0
5.316,-28.893,0
5.317,-25.781,0
5.318,-22.851,0
5.319,-20.287,0
5.32,-17.907,0
5.321,-11.315,0
5.322,-5.273,0
5.323,-7.104,0
5.324,-2.16,0
5.325,-0.695,0
5.326,0.587,0
5.327,1.685,0
5.328,2.784,0
5.329,3.699,0
5.33,2.784,0
5.331,6.812,0
5.332,4.615,0
5.333,1.319,0
5.334,3.15,0
5.335,3.699,0
5.336,2.418,0
5.337,5.531,0
5.338,4.432,0
5.339,5.531,0
5.34,4.432,0
5.341,3.699,0
5.342,3.883,0
5.343,5.164,0
5.344,6.629,0
5.345,3.333,0
5.346,1.136,0
5.347,-0.878,0
5.348,0.22,0
5.349,-0.878,0
5.35,-2.892,0
5.351,-1.061,0
5.352,-2.892,0
5.353,0.22,0
5.354,-0.878,0
5.355,0.953,0
5.356,3.516,0
5.357,9.01,0
5.358,20.545,0
5.359,45.448,0
5.36,63.209,0
5.361,60.096,0
5.362,15.601,0
5.363,-16.076,0
5.364,-33.288,0
5.365,-38.415,0
5.366,-33.654,0
5.367,-37.865,0
5.368,-34.02,0
5.369,-30.541,0
5.37,-27.428,0
5.371,-18.639,0
5.372,-16.076,0
5.373,-13.696,0
5.374,-7.104,0
5.375,-5.09,0
5.376,0.404,0
5.377,2.052,0
5.378,0.587,0
5.379,1.868,0
5.38,5.347,0
5.381,4.249,0
5.382,3.333,0
5.383,4.249,0
5.384,6.629,0
5.385,2.784,0
5.386,4.615,0
5.387,6.446,0
5.388,8.094,0
5.389,7.728,0
5.39,8.094,0
5.391,4.249,0
5.392,7.545,0
5.393,7.911,0
5.394,8.277,0
5.395,4.798,0
5.396,7.911,0
5.397,5.164,0
5.398,-0.512,0
5.399,1.868,0
5.4,4.066,0
5.401,0.77,0
5.402,1.319,0
5.403,-1.427,0
5.404,-0.146,0
5.405,-0.512,0
5.406,0.22,0
5.407,2.967,0
5.408,8.643,0
5.409,21.094,0
5.41,48.56,0
5.411,68.153,0
5.412,35.926,0
5.413,-11.681,0
5.414,-30.541,0
5.415,-36.218,0
5.416,-41.344,0
5.417,-36.584,0
5.418,-32.372,0
5.419,-28.527,0
5.42,-25.048,0
5.421,-15.527,0
5.422,-12.597,0
5.423,-15.16,0
5.424,-8.019,0
5.425,-5.822,0
5.426,-3.808,0
5.427,-1.977,0
5.428,2.967,0
5.429,1.502,0
5.43,2.784,0
5.431,1.685,0
5.432,2.784,0
5.433,5.714,0
5.434,4.798,0
5.435,2.418,0
5.436,3.15,0
5.437,4.981,0
5.438,10.657,0
5.439,6.812,0
5.44,7.362,0
5.441,7.911,0
5.442,6.263,0
5.443,4.981,0
5.444,2.784,0
5.445,1.685,0
5.446,-0.878,0
5.447,3.883,0
5.448,0.77,0
5.449,1.319,0
5.45,-1.061,0
5.451,1.136,0
5.452,-0.878,0
5.453,0.22,0
5.454,4.249,0
5.455,1.868,0
5.456,-2.343,0
5.457,6.08,0
5.458,5.531,0
5.459,3.15,0
5.46,3.516,0
5.461,0.77,0
5.462,-1.061,0
5.463,1.502,0
5.464,-1.794,0
5.465,-0.512,0
5.466,-1.611,0
5.467,4.066,0
5.468,16.517,0
5.469,22.01,0
5.47,3.699,0
5.471,6.08,0
5.472,26.038,0
5.473,50.208,0
5.474,47.095,0
5.475,8.46,0
5.476,-17.724,0
5.477,-41.528,0
5.478,-37.316,0
5.479,-41.161,0
5.48,-37.682,0
5.481,-34.57,0
5.482,-31.64,0
5.483,-23.766,0
5.484,-21.386,0
5.485,-23.583,0
5.486,-13.512,0
5.487,-8.019,0
5.488,-6.371,0
5.489,-1.977,0
5.49,2.052,0
5.491,5.531,0
5.492,4.432,0
5.493,7.362,0
5.494,8.277,0
5.495,9.01,0
5.496,9.742,0
5.497,7.911,0
5.498,7.362,0
5.499,9.01,0
5.5,9.376,0
5.501,6.263,0
5.502,4.249,0
5.503,5.347,0
5.504,5.714,0
5.505,3.699,0
5.506,6.263,0
5.507,8.094,0
5.508,7.545,0
5.509,10.291,0
5.51,15.968,0
5.511,19.996,0
5.512,31.531,0
5.513,56.434,0
5.514,38.673,0
5.515,-3.625,0
5.516,-20.837,0
5.517,-36.401,0
5.518,-31.64,0
5.519,-27.428,0
5.52,-31.274,0
5.521,-27.795,0
5.522,-24.682,0
5.523,-15.893,0
5.524,-13.329,0
5.525,-10.949,0
5.526,-4.357,0
5.527,-10.4,0
5.528,-4.906,0
5.529,-3.259,0
5.53,-1.794,0
5.531,2.235,0
5.532,3.333,0
5.533,2.235,0
5.534,7.178,0
5.535,0.77,0
5.536,6.446,0
5.537,7.178,0
5.538,7.728,0
5.539,5.897,0
5.54,5.347,0
5.541,6.629,0
5.542,6.263,0
5.543,2.418,0
5.544,2.784,0
5.545,4.981,0
5.546,2.967,0
5.547,2.601,0
5.548,0.77,0
5.549,2.784,0
5.55,-0.329,0
5.551,1.685,0
5.552,0.587,0
5.553,0.22,0
5.554,-0.512,0
5.555,-2.343,0
5.556,1.136,0
5.557,2.418,0
5.558,4.432,0
5.559,4.615,0
5.56,1.136,0
5.561,8.094,0
5.562,19.263,0
5.563,41.785,0
5.564,44.898,0
5.565,53.687,0
5.566,40.321,0
5.567,3.883,0
5.568,-22.302,0
5.569,-36.584,0
5.57,-40.795,0
5.571,-44.64,0
5.572,-41.161,0
5.573,-31.64,0
5.574,-28.71,0
5.575,-26.147,0
5.576,-19.006,0
5.577,-16.808,0
5.578,-14.794,0
5.579,-5.639,0
5.58,-3.991,0
5.581,-2.526,0
5.582,1.502,0
5.583,2.601,0
5.584,3.699,0
5.585,2.784,0
5.586,3.699,0
5.587,4.432,0
5.588,9.742,0
5.589,6.446,0
5.59,9.559,0
5.591,6.812,0
5.592,10.108,0
5.593,6.995,0
5.594,5.897,0
5.595,4.798,0
5.596,4.432,0
5.597,7.728,0
5.598,6.446,0
5.599,4.432,0
5.6,6.263,0
5.601,2.967,0
5.602,4.981,0
5.603,1.502,0
5.604,2.784,0
5.605,2.418,0
5.606,-0.146,0
5.607,3.15,0
5.608,5.164,0
5.609,9.376,0
5.61,1.685,0
5.611,-1.061,0
5.612,6.446,0
5.613,21.278,0
5.614,39.405,0
5.615,41.785,0
5.616,35.194,0
5.617,37.208,0
5.618,35.377,0
5.619,17.066,0
5.62,-19.372,0
5.621,-45.556,0
5.622,-50.317,0
5.623,-46.105,0
5.624,-42.26,0
5.625,-38.781,0
5.626,-35.668,0
5.627,-32.739,0
5.628,-24.865,0
5.629,-22.485,0
5.63,-15.893,0
5.631,-9.85,0
5.632,-4.357,0
5.633,-2.709,0
5.634,-1.244,0
5.635,2.784,0
5.636,3.883,0
5.637,4.981,0
5.638,7.911,0
5.639,10.657,0
5.64,13.038,0
5.641,9.193,0
5.642,12.489,0
5.643,8.094,0
5.644,9.742,0
5.645,8.46,0
5.646,11.573,0
5.647,9.559,0
5.648,6.08,0
5.649,7.362,0
5.65,5.347,0
5.651,3.516,0
5.652,2.418,0
5.653,3.883,0
5.654,8.094,0
5.655,4.981,0
5.656,6.629,0
5.657,4.249,0
5.658,4.615,0
5.659,2.601,0
5.66,0.77,0
5.661,4.615,0
5.662,0.587,0
5.663,0.22,0
5.664,7.178,0
5.665,22.376,0
5.666,42.335,0
5.667,39.771,0
5.668,32.63,0
5.669,26.038,0
5.67,19.996,0
5.671,14.503,0
5.672,9.559,0
5.673,5.164,0
5.674,14.686,0
5.675,3.516,0
5.676,-19.006,0
5.677,-61.303,0
5.678,-66.979,0
5.679,-72.106,0
5.68,-67.345,0
5.681,-54.528,0
5.682,-42.809,0
5.683,-39.33,0
5.684,-29.809,0
5.685,-21.02,0
5.686,-13.146,0
5.687,-6.005,0
5.688,0.587,0
5.689,6.629,0
5.69,8.46,0
5.691,13.404,0
5.692,11.939,0
5.693,13.221,0
5.694,12.122,0
5.695,13.221,0
5.696,12.305,0
5.697,13.221,0
5.698,13.953,0
5.699,14.686,0
5.7,15.235,0
5.701,13.404,0
5.702,13.953,0
5.703,10.657,0
5.704,16.7,0
5.705,12.672,0
5.706,10.474,0
5.707,9.925,0
5.708,8.094,0
5.709,8.643,0
5.71,9.925,0
5.711,7.728,0
5.712,5.347,0
5.713,11.573,0
5.714,25.489,0
5.715,23.475,0
5.716,3.333,0
5.717,-4.54,0
5.718,-2.16,0
5.719,26.588,0
5.72,38.306,0
5.721,41.785,0
5.722,44.898,0
5.723,24.207,0
5.724,-16.076,0
5.725,-33.288,0
5.726,-48.852,0
5.727,-53.613,0
5.728,-49.401,0
5.729,-53.246,0
5.73,-42.626,0
5.731,-33.105,0
5.732,-30.175,0
5.733,-22.302,0
5.734,-15.16,0
5.735,-8.569,0
5.736,-2.526,0
5.737,-4.357,0
5.738,0.587,0
5.739,4.981,0
5.74,6.263,0
5.741,9.742,0
5.742,10.841,0
5.743,11.756,0
5.744,7.178,0
5.745,6.446,0
5.746,8.643,0
5.747,8.094,0
5.748,12.489,0
5.749,9.742,0
5.75,15.235,0
5.751,13.038,0
5.752,11.207,0
5.753,14.32,0
5.754,15.968,0
5.755,14.686,0
5.756,14.32,0
5.757,13.953,0
5.758,8.277,0
5.759,4.249,0
5.76,2.052,0
5.761,0.22,0
5.762,-1.611,0
5.763,-0.512,0
5.764,-3.259,0
5.765,1.319,0
5.766,10.841,0
5.767,31.348,0
5.768,40.137,0
5.769,42.701,0
5.77,25.855,0
5.771,-2.892,0
5.772,-30.358,0
5.773,-33.837,0
5.774,-36.95,0
5.775,-45.739,0
5.776,-43.176,0
5.777,-40.795,0
5.778,-29.809,0
5.779,-31.823,0
5.78,-22.668,0
5.781,-17.724,0
5.782,-13.329,0
5.783,-9.301,0
5.784,-8.202,0
5.785,-4.906,0
5.786,-1.977,0
5.787,4.432,0
5.788,3.699,0
5.789,2.967,0
5.79,3.516,0
5.791,5.347,0
5.792,8.094,0
5.793,9.376,0
5.794,7.178,0
5.795,4.432,0
5.796,8.643,0
5.797,10.291,0
5.798,7.911,0
5.799,6.629,0
5.8,4.615,0
5.801,4.981,0
5.802,3.883,0
5.803,1.136,0
5.804,2.967,0
5.805,4.798,0
5.806,6.263,0
5.807,6.08,0
5.808,2.052,0
5.809,3.699,0
5.81,2.418,0
5.811,2.784,0
5.812,1.685,0
5.813,4.249,0
5.814,2.418,0
5.815,-0.146,0
5.816,4.432,0
5.817,14.686,0
5.818,34.278,0
5.819,47.645,0
5.82,59.73,0
5.821,26.588,0
5.822,-6.738,0
5.823,-28.344,0
5.824,-40.063,0
5.825,-36.584,0
5.826,-39.697,0
5.827,-36.767,0
5.828,-28.893,0
5.829,-26.513,0
5.83,-24.316,0
5.831,-14.245,0
5.832,-16.076,0
5.833,-11.132,0
5.834,-6.738,0
5.835,-2.709,0
5.836,-1.611,0
5.837,4.066,0
5.838,3.15,0
5.839,9.559,0
5.84,13.587,0
5.841,15.784,0
5.842,19.08,0
5.843,17.249,0
5.844,25.672,0
5.845,29.151,0
5.846,32.447,0
5.847,37.391,0
5.848,34.644,0
5.849,30.616,0
5.85,23.658,0
5.851,17.249,0
5.852,14.869,0
5.853,11.024,0
5.854,3.516,0
5.855,-7.653,0
5.856,-18.09,0
5.857,-30.358,0
5.858,-38.598,0
5.859,-49.035,0
5.86,-47.753,0
5.861,-44.274,0
5.862,-31.823,0
5.863,-23.583,0
5.864,-34.02,0
5.865,-44.457,0
5.866,-56.725,0
5.867,-64.965,0
5.868,-81.445,0
5.869,-74.853,0
5.87,-60.754,0
5.871,-88.219,0
5.872,-131.62,0
5.873,-148.83,0
5.874,-153.95,0
5.875,-139.67,0
5.876,-135.46,0
5.877,-108,0
5.878,-83.093,0
5.879,-34.386,0
5.88,70.716,0
5.881,145.97,0
5.882,159.52,0
5.883,147.07,0
5.884,135.9,0
5.885,105.14,0
5.886,95.802,0
5.887,104.22,0
5.888,81.153,0
5.889,88.111,0
5.89,106.97,0
5.891,124.18,0
5.892,150.37,0
5.893,155.13,0
5.894,150.92,0
5.895,139.2,0
5.896,128.58,0
5.897,125.47,0
5.898,110.63,0
5.899,91.956,0
5.9,65.223,0
5.901,47.462,0
5.902,37.94,0
5.903,35.01,0
5.904,37.574,0
5.905,20.728,0
5.906,14.136,0
5.907,0.037,0
5.908,-5.456,0
5.909,-16.991,0
5.91,-33.471,0
5.911,-31.274,0
5.912,-37.316,0
5.913,-53.796,0
5.914,-60.387,0
5.915,-62.402,0
5.916,-56.908,0
5.917,-62.402,0
5.918,-50.866,0
5.919,-52.331,0
5.92,-31.823,0
5.921,-5.09,0
5.922,-29.992,0
5.923,-72.289,0
5.924,-89.501,0
5.925,-94.628,0
5.926,-99.389,0
5.927,-95.177,0
5.928,-91.332,0
5.929,-80.712,0
5.93,-77.599,0
5.931,-68.81,0
5.932,-60.937,0
5.933,-48.852,0
5.934,-42.26,0
5.935,-36.218,0
5.936,-30.724,0
5.937,-22.485,0
5.938,-14.977,0
5.939,-10.949,0
5.94,-9.85,0
5.941,-6.554,0
5.942,-5.639,0
5.943,-1.061,0
5.944,1.319,0
5.945,0.587,0
5.946,5.164,0
5.947,5.714,0
5.948,5.164,0
5.949,7.545,0
5.95,3.333,0
5.951,8.46,0
5.952,11.756,0
5.953,13.587,0
5.954,10.841,0
5.955,9.559,0
5.956,13.77,0
5.957,13.221,0
5.958,13.587,0
5.959,20.545,0
5.96,35.743,0
5.961,20.362,0
5.962,6.263,0
5.963,0.77,0
5.964,-0.878,0
5.965,-2.343,0
5.966,-1.061,0
5.967,3.15,0
5.968,2.052,0
5.969,14.503,0
5.97,29.517,0
5.971,51.673,0
5.972,72.364,0
5.973,42.884,0
5.974,7.362,0
5.975,-16.442,0
5.976,-20.654,0
5.977,-24.499,0
5.978,-27.978,0
5.979,-24.865,0
5.98,-21.935,0
5.981,-14.062,0
5.982,-16.442,0
5.983,-9.85,0
5.984,-11.865,0
5.985,-2.709,0
5.986,-1.061,0
5.987,3.333,0
5.988,2.052,0
5.989,5.531,0
5.99,8.826,0
5.991,11.756,0
5.992,10.841,0
5.993,13.221,0
5.994,12.489,0
5.995,13.038,0
5.996,12.489,0
5.997,10.841,0
5.998,6.263,0
5.999,6.812,0
6,8.46,0
6.001,2.967,0
6.002,6.812,0
6.003,6.263,0
6.004,6.812,0
6.005,9.559,0
6.006,7.178,0
6.007,9.376,0
6.008,8.277,0
6.009,8.643,0
6.01,7.545,0
6.011,4.798,0
6.012,2.235,0
6.013,1.136,0
6.014,0.404,0
6.015,-1.427,0
6.016,1.502,0
6.017,0.404,0
6.018,-0.512,0
6.019,0.587,0
6.02,5.164,0
6.021,15.418,0
6.022,37.94,0
6.023,67.237,0
6.024,39.771,0
6.025,0.404,0
6.026,-25.781,0
6.027,-30.541,0
6.028,-34.753,0
6.029,-30.907,0
6.03,-27.428,0
6.031,-30.541,0
6.032,-21.752,0
6.033,-19.189,0
6.034,-16.808,0
6.035,-14.611,0
6.036,-12.597,0
6.037,-7.104,0
6.038,-5.456,0
6.039,-1.061,0
6.04,-2.343,0
6.041,1.136,0
6.042,6.812,0
6.043,3.883,0
6.044,2.967,0
6.045,2.235,0
6.046,6.08,0
6.047,2.784,0
6.048,3.333,0
6.049,4.981,0
6.05,6.263,0
6.051,5.897,0
6.052,5.531,0
6.053,5.897,0
6.054,4.798,0
6.055,4.615,0
6.056,3.883,0
6.057,5.164,0
6.058,5.347,0
6.059,4.798,0
6.06,2.235,0
6.061,1.136,0
6.062,0.953,0
6.063,-2.16,0
6.064,-4.906,0
6.065,-2.343,0
6.066,1.685,0
6.067,1.319,0
6.068,3.516,0
6.069,2.418,0
6.07,2.784,0
6.071,8.46,0
6.072,20.911,0
6.073,48.377,0
6.074,60.096,0
6.075,56.617,0
6.076,20.911,0
6.077,-22.118,0
6.078,-27.795,0
6.079,-32.922,0
6.08,-37.682,0
6.081,-41.894,0
6.082,-38.049,0
6.083,-27.428,0
6.084,-24.316,0
6.085,-21.386,0
6.086,-18.823,0
6.087,-11.681,0
6.088,-9.484,0
6.089,-3.442,0
6.09,-1.611,0
6.091,0.037,0
6.092,1.502,0
6.093,2.784,0
6.094,3.883,0
6.095,7.178,0
6.096,6.263,0
6.097,9.01,0
6.098,4.981,0
6.099,5.714,0
6.1,5.164,0
6.101,8.277,0
6.102,5.531,0
6.103,7.911,0
6.104,9.193,0
6.105,6.446,0
6.106,6.812,0
6.107,9.376,0
6.108,8.643,0
6.109,7.362,0
6.11,4.432,0
6.111,3.333,0
6.112,2.967,0
6.113,1.502,0
6.114,0.22,0
6.115,0.404,0
6.116,1.868,0
6.117,-1.427,0
6.118,-0.146,0
6.119,1.868,0
6.12,1.685,0
6.121,4.249,0
6.122,9.742,0
6.123,21.278,0
6.124,46.18,0
6.125,71.082,0
6.126,41.785,0
6.127,-1.611,0
6.128,-18.823,0
6.129,-34.386,0
6.13,-29.626,0
6.131,-33.837,0
6.132,-29.992,0
6.133,-26.513,0
6.134,-23.4,0
6.135,-20.47,0
6.136,-17.907,0
6.137,-15.527,0
6.138,-13.329,0
6.139,-7.287,0
6.14,-5.456,0
6.141,-0.512,0
6.142,0.953,0
6.143,2.235,0
6.144,3.333,0
6.145,4.432,0
6.146,3.516,0
6.147,8.094,0
6.148,5.714,0
6.149,4.981,0
6.15,3.15,0
6.151,4.981,0
6.152,6.629,0
6.153,9.01,0
6.154,9.376,0
6.155,7.362,0
6.156,6.263,0
6.157,5.164,0
6.158,3.15,0
6.159,6.812,0
6.16,3.516,0
6.161,1.319,0
6.162,4.066,0
6.163,-0.878,0
6.164,0.953,0
6.165,6.629,0
6.166,-0.329,0
6.167,-1.244,0
6.168,1.136,0
6.169,3.333,0
6.17,3.883,0
6.171,4.615,0
6.172,2.784,0
6.173,11.207,0
6.174,19.63,0
6.175,36.658,0
6.176,68.336,0
6.177,38.123,0
6.178,-5.273,0
6.179,-22.485,0
6.18,-27.612,0
6.181,-41.894,0
6.182,-37.682,0
6.183,-33.837,0
6.184,-30.358,0
6.185,-27.245,0
6.186,-18.456,0
6.187,-15.893,0
6.188,-8.752,0
6.189,-6.554,0
6.19,-4.54,0
6.191,0.953,0
6.192,-0.695,0
6.193,-2.16,0
6.194,-0.878,0
6.195,0.22,0
6.196,1.319,0
6.197,8.277,0
6.198,3.699,0
6.199,4.432,0
6.2,6.629,0
6.201,4.798,0
6.202,4.249,0
6.203,3.699,0
6.204,9.193,0
6.205,20.728,0
6.206,39.039,0
6.207,17.066,0
6.208,2.235,0
6.209,-5.639,0
6.21,-8.019,0
6.211,-5.822,0
6.212,-7.836,0
6.213,-6.005,0
6.214,-4.357,0
6.215,-2.892,0
6.216,-6.921,0
6.217,-5.822,0
6.218,-6.921,0
6.219,-6.005,0
6.22,-5.09,0
6.221,-2.709,0
6.222,-2.709,0
6.223,5.714,0
6.224,20.545,0
6.225,34.644,0
6.226,62.11,0
6.227,58.265,0
6.228,18.897,0
6.229,-7.287,0
6.23,-21.569,0
6.231,-25.781,0
6.232,-21.935,0
6.233,-25.414,0
6.234,-28.527,0
6.235,-19.738,0
6.236,-17.175,0
6.237,-14.794,0
6.238,-8.202,0
6.239,-6.188,0
6.24,-8.019,0
6.241,-3.075,0
6.242,-1.611,0
6.243,-0.329,0
6.244,3.15,0
6.245,4.249,0
6.246,3.333,0
6.247,4.249,0
6.248,1.868,0
6.249,1.136,0
6.25,1.685,0
6.251,4.798,0
6.252,5.347,0
6.253,5.714,0
6.254,6.995,0
6.255,4.981,0
6.256,6.08,0
6.257,7.911,0
6.258,8.094,0
6.259,3.883,0
6.26,-0.512,0
6.261,2.235,0
6.262,3.516,0
6.263,1.319,0
6.264,0.22,0
6.265,1.319,0
6.266,1.685,0
6.267,0.953,0
6.268,-2.16,0
6.269,-0.146,0
6.27,-1.977,0
6.271,-0.146,0
6.272,0.587,0
6.273,3.883,0
6.274,2.052,0
6.275,6.08,0
6.276,14.503,0
6.277,30.616,0
6.278,54.969,0
6.279,64.49,0
6.28,31.898,0
6.281,-7.104,0
6.282,-22.668,0
6.283,-36.95,0
6.284,-41.161,0
6.285,-45.007,0
6.286,-34.386,0
6.287,-31.274,0
6.288,-22.485,0
6.289,-25.048,0
6.29,-17.907,0
6.291,-15.71,0
6.292,-9.667,0
6.293,-11.498,0
6.294,-3.259,0
6.295,-1.794,0
6.296,-3.075,0
6.297,2.967,0
6.298,4.066,0
6.299,3.15,0
6.3,4.066,0
6.301,3.333,0
6.302,4.066,0
6.303,7.362,0
6.304,2.967,0
6.305,4.615,0
6.306,7.911,0
6.307,11.024,0
6.308,10.657,0
6.309,7.178,0
6.31,4.066,0
6.311,6.08,0
6.312,4.249,0
6.313,2.418,0
6.314,3.15,0
6.315,1.868,0
6.316,3.15,0
6.317,3.333,0
6.318,0.953,0
6.319,4.249,0
6.32,6.446,0
6.321,6.08,0
6.322,1.868,0
6.323,1.319,0
6.324,1.685,0
6.325,2.052,0
6.326,9.01,0
6.327,24.207,0
6.328,57.349,0
6.329,62.11,0
6.33,31.898,0
6.331,-3.625,0
6.332,-17.907,0
6.333,-30.724,0
6.334,-34.57,0
6.335,-31.091,0
6.336,-27.978,0
6.337,-25.048,0
6.338,-22.485,0
6.339,-15.344,0
6.34,-13.146,0
6.341,-11.132,0
6.342,-9.301,0
6.343,-7.653,0
6.344,-6.188,0
6.345,0.587,0
6.346,-0.512,0
6.347,2.784,0
6.348,-2.16,0
6.349,2.418,0
6.35,4.798,0
6.351,6.995,0
6.352,5.164,0
6.353,9.559,0
6.354,6.812,0
6.355,10.108,0
6.356,6.995,0
6.357,7.362,0
6.358,4.798,0
6.359,2.235,0
6.36,2.967,0
6.361,3.15,0
6.362,1.868,0
6.363,3.333,0
6.364,3.883,0
6.365,0.953,0
6.366,2.052,0
6.367,0.953,0
6.368,-1.611,0
6.369,2.418,0
6.37,0.77,0
6.371,3.15,0
6.372,3.516,0
6.373,3.883,0
6.374,1.319,0
6.375,2.418,0
6.376,3.516,0
6.377,8.094,0
6.378,18.348,0
6.379,40.87,0
6.38,63.392,0
6.381,42.701,0
6.382,2.418,0
6.383,-26.33,0
6.384,-31.457,0
6.385,-36.218,0
6.386,-32.006,0
6.387,-35.851,0
6.388,-32.372,0
6.389,-29.26,0
6.39,-20.47,0
6.391,-23.034,0
6.392,-10.949,0
6.393,-8.752,0
6.394,-6.738,0
6.395,-4.906,0
6.396,-3.259,0
6.397,-4.723,0
6.398,2.052,0
6.399,3.15,0
6.4,6.446,0
6.401,3.516,0
6.402,0.77,0
6.403,1.502,0
6.404,2.235,0
6.405,11.207,0
6.406,12.305,0
6.407,11.207,0
6.408,6.263,0
6.409,5.347,0
6.41,2.967,0
6.411,5.164,0
6.412,3.333,0
6.413,6.446,0
6.414,4.798,0
6.415,2.418,0
6.416,-1.794,0
6.417,2.052,0
6.418,1.685,0
6.419,4.798,0
6.42,5.897,0
6.421,4.798,0
6.422,5.164,0
6.423,3.15,0
6.424,0.037,0
6.425,2.052,0
6.426,1.685,0
6.427,-0.146,0
6.428,5.347,0
6.429,12.305,0
6.43,26.221,0
6.431,56.434,0
6.432,34.827,0
6.433,-0.695,0
6.434,-14.977,0
6.435,-36.584,0
6.436,-32.739,0
6.437,-36.218,0
6.438,-26.696,0
6.439,-29.626,0
6.44,-21.752,0
6.441,-19.372,0
6.442,-12.78,0
6.443,-10.766,0
6.444,-8.935,0
6.445,-3.991,0
6.446,-5.456,0
6.447,-1.427,0
6.448,-0.329,0
6.449,0.77,0
6.45,13.953,0
6.451,30.433,0
6.452,28.236,0
6.453,10.108,0
6.454,2.967,0
6.455,-3.625,0
6.456,-5.639,0
6.457,-3.808,0
6.458,-5.456,0
6.459,-6.921,0
6.46,-8.202,0
6.461,-7.104,0
6.462,-8.202,0
6.463,-5.273,0
6.464,-2.526,0
6.465,-0.146,0
6.466,2.052,0
6.467,0.22,0
6.468,-0.329,0
6.469,1.319,0
6.47,3.699,0
6.471,7.911,0
6.472,7.362,0
6.473,4.981,0
6.474,7.178,0
6.475,7.545,0
6.476,3.333,0
6.477,2.418,0
6.478,-1.427,0
6.479,-3.808,0
6.48,3.15,0
6.481,18.348,0
6.482,51.49,0
6.483,37.208,0
6.484,-1.794,0
6.485,-17.358,0
6.486,-22.118,0
6.487,-26.33,0
6.488,-22.485,0
6.489,-25.964,0
6.49,-22.851,0
6.491,-19.921,0
6.492,-17.358,0
6.493,-14.977,0
6.494,-12.78,0
6.495,-6.738,0
6.496,-1.244,0
6.497,0.404,0
6.498,1.868,0
6.499,3.15,0
6.5,2.052,0
6.501,0.953,0
6.502,5.897,0
6.503,6.812,0
6.504,6.08,0
6.505,9.925,0
6.506,10.474,0
6.507,8.643,0
6.508,11.39,0
6.509,9.01,0
6.51,7.728,0
6.511,4.981,0
6.512,3.15,0
6.513,6.446,0
6.514,0.953,0
6.515,4.798,0
6.516,0.22,0
6.517,-1.611,0
6.518,-1.061,0
6.519,5.531,0
6.52,2.784,0
6.521,3.516,0
6.522,4.249,0
6.523,3.699,0
6.524,1.868,0
6.525,4.615,0
6.526,1.319,0
6.527,-2.892,0
6.528,-3.442,0
6.529,-2.892,0
6.53,4.615,0
6.531,21.644,0
6.532,48.377,0
6.533,51.856,0
6.534,54.969,0
6.535,22.376,0
6.536,-16.625,0
6.537,-32.189,0
6.538,-36.95,0
6.539,-41.161,0
6.54,-37.316,0
6.541,-33.837,0
6.542,-30.724,0
6.543,-27.795,0
6.544,-19.921,0
6.545,-17.541,0
6.546,-15.344,0
6.547,-13.329,0
6.548,-7.836,0
6.549,-2.892,0
6.55,1.502,0
6.551,-2.526,0
6.552,0.953,0
6.553,2.052,0
6.554,2.967,0
6.555,5.714,0
6.556,8.094,0
6.557,11.939,0
6.558,10.108,0
6.559,8.277,0
6.56,4.432,0
6.561,5.714,0
6.562,6.995,0
6.563,4.249,0
6.564,3.15,0
6.565,3.516,0
6.566,3.699,0
6.567,2.967,0
6.568,5.897,0
6.569,4.798,0
6.57,2.967,0
6.571,2.235,0
6.572,4.798,0
6.573,4.432,0
6.574,2.418,0
6.575,5.531,0
6.576,2.784,0
6.577,4.615,0
6.578,-0.146,0
6.579,2.418,0
6.58,0.587,0
6.581,9.01,0
6.582,22.559,0
6.583,42.701,0
6.584,45.264,0
6.585,42.884,0
6.586,49.476,0
6.587,39.405,0
6.588,11.939,0
6.589,-31.457,0
6.59,-37.133,0
6.591,-42.26,0
6.592,-37.499,0
6.593,-41.711,0
6.594,-29.992,0
6.595,-19.372,0
6.596,-9.85,0
6.597,-6.921,0
6.598,6.446,0
6.599,13.587,0
6.6,24.573,0
6.601,22.559,0
6.602,20.728,0
6.603,19.08,0
6.604,17.615,0
6.605,18.897,0
6.606,17.799,0
6.607,14.503,0
6.608,3.333,0
6.609,-7.104,0
6.61,-22.118,0
6.611,-28.161,0
6.612,-40.978,0
6.613,-45.922,0
6.614,-44.457,0
6.615,-37.682,0
6.616,-24.133,0
6.617,-25.964,0
6.618,-37.499,0
6.619,-47.936,0
6.62,-68.444,0
6.621,-101.04,0
6.622,-113.85,0
6.623,-133.45,0
6.624,-136.93,0
6.625,-140.04,0
6.626,-142.97,0
6.627,-129.6,0
6.628,-112.76,0
6.629,-97.375,0
6.63,-82.543,0
6.631,-64.416,0
6.632,-27.978,0
6.633,50.758,0
6.634,197.61,0
6.635,217.57,0
6.636,235.69,0
6.637,186.07,0
6.638,141.03,0
6.639,100.2,0
6.64,87.745,0
6.641,54.053,0
6.642,64.307,0
6.643,54.969,0
6.644,80.238,0
6.645,118.69,0
6.646,125.65,0
6.647,131.87,0
6.648,126.2,0
6.649,110.63,0
6.65,105.87,0
6.651,101.66,0
6.652,82.069,0
6.653,64.307,0
6.654,48.194,0
6.655,39.405,0
6.656,36.842,0
6.657,34.461,0
6.658,27.869,0
6.659,17.799,0
6.66,4.981,0
6.661,-3.259,0
6.662,-10.766,0
6.663,-25.781,0
6.664,-27.795,0
6.665,-29.626,0
6.666,-41.161,0
6.667,-48.669,0
6.668,-52.697,0
6.669,-51.598,0
6.67,-52.697,0
6.671,-55.627,0
6.672,-60.204,0
6.673,-64.233,0
6.674,-62.035,0
6.675,-63.866,0
6.676,-73.388,0
6.677,-74.67,0
6.678,-73.571,0
6.679,-72.472,0
6.68,-69.543,0
6.681,-62.768,0
6.682,-58.19,0
6.683,-45.739,0
6.684,-29.26,0
6.685,-13.879,0
6.686,12.305,0
6.687,22.926,0
6.688,-6.371,0
6.689,-33.837,0
6.69,-58.74,0
6.691,-61.852,0
6.692,-64.782,0
6.693,-51.415,0
6.694,-49.035,0
6.695,-38.049,0
6.696,-19.921,0
6.697,6.812,0
6.698,3.333,0
6.699,-12.78,0
6.7,-15.71,0
6.701,-18.273,0
6.702,-15.893,0
6.703,-9.301,0
6.704,-7.287,0
6.705,1.868,0
6.706,10.108,0
6.707,8.643,0
6.708,12.672,0
6.709,11.573,0
6.71,12.672,0
6.711,9.742,0
6.712,18.165,0
6.713,14.869,0
6.714,15.784,0
6.715,16.7,0
6.716,14.32,0
6.717,15.052,0
6.718,16.883,0
6.719,13.77,0
6.72,15.418,0
6.721,13.038,0
6.722,12.672,0
6.723,14.686,0
6.724,16.517,0
6.725,17.615,0
6.726,13.038,0
6.727,13.587,0
6.728,10.474,0
6.729,11.024,0
6.73,9.742,0
6.731,6.629,0
6.732,9.01,0
6.733,6.263,0
6.734,11.939,0
6.735,24.39,0
6.736,51.856,0
6.737,55.701,0
6.738,37.94,0
6.739,15.418,0
6.74,-11.315,0
6.741,-21.935,0
6.742,-31.457,0
6.743,-28.527,0
6.744,-25.964,0
6.745,-28.344,0
6.746,-21.752,0
6.747,-19.738,0
6.748,-14.245,0
6.749,-9.301,0
6.75,-4.906,0
6.751,-8.935,0
6.752,-2.892,0
6.753,2.784,0
6.754,3.699,0
6.755,0.953,0
6.756,1.685,0
6.757,5.531,0
6.758,4.981,0
6.759,8.094,0
6.76,8.643,0
6.761,7.362,0
6.762,4.249,0
6.763,3.15,0
6.764,6.629,0
6.765,4.432,0
6.766,4.066,0
6.767,4.432,0
6.768,6.263,0
6.769,6.08,0
6.77,6.812,0
6.771,5.531,0
6.772,5.347,0
6.773,2.967,0
6.774,7.545,0
6.775,8.094,0
6.776,6.263,0
6.777,1.136,0
6.778,4.432,0
6.779,6.263,0
6.78,1.136,0
6.781,-0.695,0
6.782,-1.244,0
6.783,-1.977,0
6.784,-1.427,0
6.785,6.08,0
6.786,23.109,0
6.787,54.786,0
6.788,50.574,0
6.789,54.42,0
6.79,22.193,0
6.791,-8.019,0
6.792,-35.485,0
6.793,-32.006,0
6.794,-35.119,0
6.795,-32.189,0
6.796,-34.753,0
6.797,-27.612,0
6.798,-25.414,0
6.799,-23.4,0
6.8,-21.569,0
6.801,-16.625,0
6.802,-12.231,0
6.803,-8.202,0
6.804,-4.723,0
6.805,-3.625,0
6.806,1.319,0
6.807,7.728,0
6.808,10.108,0
6.809,4.798,0
6.81,4.249,0
6.811,4.798,0
6.812,6.446,0
6.813,6.08,0
6.814,6.446,0
6.815,2.601,0
6.816,3.883,0
6.817,3.516,0
6.818,5.531,0
6.819,7.362,0
6.82,8.46,0
6.821,6.446,0
6.822,5.164,0
6.823,8.094,0
6.824,6.263,0
6.825,5.164,0
6.826,4.432,0
6.827,3.15,0
6.828,-0.329,0
6.829,0.037,0
6.83,-1.061,0
6.831,-1.427,0
6.832,-0.329,0
6.833,-3.625,0
6.834,-3.442,0
6.835,-1.244,0
6.836,4.981,0
6.837,18.897,0
6.838,49.11,0
6.839,61.927,0
6.84,58.082,0
6.841,18.714,0
6.842,-17.907,0
6.843,-32.189,0
6.844,-36.401,0
6.845,-40.246,0
6.846,-36.767,0
6.847,-27.245,0
6.848,-24.316,0
6.849,-21.752,0
6.85,-19.372,0
6.851,-17.175,0
6.852,-15.16,0
6.853,-9.667,0
6.854,-8.019,0
6.855,-6.554,0
6.856,0.22,0
6.857,-0.878,0
6.858,4.798,0
6.859,3.883,0
6.86,6.629,0
6.861,4.249,0
6.862,2.052,0
6.863,3.883,0
6.864,4.432,0
6.865,6.08,0
6.866,5.714,0
6.867,6.08,0
6.868,4.066,0
6.869,5.897,0
6.87,8.46,0
6.871,8.277,0
6.872,7.545,0
6.873,6.812,0
6.874,9.01,0
6.875,7.178,0
6.876,3.699,0
6.877,2.418,0
6.878,6.995,0
6.879,8.826,0
6.88,4.981,0
6.881,1.685,0
6.882,-1.427,0
6.883,-1.794,0
6.884,-3.625,0
6.885,-2.709,0
6.886,0.587,0
6.887,1.685,0
6.888,7.362,0
6.889,19.813,0
6.89,47.279,0
6.891,51.124,0
6.892,33.363,0
6.893,4.066,0
6.894,-23.4,0
6.895,-41.161,0
6.896,-44.274,0
6.897,-41.344,0
6.898,-33.471,0
6.899,-31.091,0
6.9,-24.499,0
6.901,-18.456,0
6.902,-12.963,0
6.903,-14.611,0
6.904,-10.217,0
6.905,-8.935,0
6.906,-0.512,0
6.907,0.587,0
6.908,3.516,0
6.909,4.432,0
6.91,6.812,0
6.911,7.545,0
6.912,9.376,0
6.913,9.925,0
6.914,11.573,0
6.915,11.939,0
6.916,13.221,0
6.917,6.995,0
6.918,6.08,0
6.919,3.699,0
6.92,4.432,0
6.921,2.601,0
6.922,5.714,0
6.923,5.164,0
6.924,5.531,0
6.925,2.418,0
6.926,1.319,0
6.927,0.22,0
6.928,2.052,0
6.929,-1.977,0
6.93,4.249,0
6.931,0.22,0
6.932,-1.977,0
6.933,-1.427,0
6.934,-3.259,0
6.935,-2.709,0
6.936,-1.244,0
6.937,0.037,0
6.938,1.319,0
6.939,4.066,0
6.94,-0.878,0
6.941,3.699,0
6.942,13.221,0
6.943,25.489,0
6.944,17.249,0
6.945,6.812,0
6.946,13.587,0
6.947,32.081,0
6.948,45.448,0
6.949,47.828,0
6.95,19.08,0
6.951,-24.316,0
6.952,-41.528,0
6.953,-46.655,0
6.954,-41.894,0
6.955,-46.105,0
6.956,-34.386,0
6.957,-30.907,0
6.958,-27.795,0
6.959,-24.865,0
6.96,-16.991,0
6.961,-14.611,0
6.962,-8.019,0
6.963,-6.005,0
6.964,-0.512,0
6.965,-2.16,0
6.966,5.347,0
6.967,4.066,0
6.968,7.545,0
6.969,8.643,0
6.97,7.728,0
6.971,8.643,0
6.972,9.376,0
6.973,7.178,0
6.974,9.01,0
6.975,10.841,0
6.976,11.39,0
6.977,5.897,0
6.978,8.094,0
6.979,6.263,0
6.98,9.376,0
6.981,5.531,0
6.982,5.897,0
6.983,6.263,0
6.984,5.164,0
6.985,3.333,0
6.986,0.037,0
6.987,1.685,0
6.988,7.911,0
6.989,21.827,0
6.99,31.898,0
6.991,48.377,0
6.992,59.364,0
6.993,49.293,0
6.994,21.827,0
6.995,-21.569,0
6.996,-27.245,0
6.997,-32.372,0
6.998,-46.655,0
6.999,-42.443,0
7,-30.724,0
7.001,-27.245,0
7.002,-24.133,0
7.003,-15.344,0
7.004,-12.78,0
7.005,-5.639,0
7.006,0.953,0
7.007,-5.09,0
7.008,-3.259,0
7.009,-1.611,0
7.01,-0.146,0
7.011,1.136,0
7.012,4.615,0
7.013,1.319,0
7.014,2.235,0
7.015,3.15,0
7.016,0.77,0
7.017,4.615,0
7.018,1.319,0
7.019,8.277,0
7.02,12.855,0
7.021,7.178,0
7.022,6.446,0
7.023,6.995,0
7.024,10.108,0
7.025,8.46,0
7.026,6.08,0
7.027,9.193,0
7.028,9.559,0
7.029,9.925,0
7.03,4.432,0
7.031,5.164,0
7.032,0.587,0
7.033,-7.653,0
7.034,0.22,0
7.035,3.15,0
7.036,2.235,0
7.037,2.967,0
7.038,3.15,0
7.039,2.418,0
7.04,11.39,0
7.041,29.884,0
7.042,48.56,0
7.043,55.701,0
7.044,57.899,0
7.045,27.686,0
7.046,-11.315,0
7.047,-37.499,0
7.048,-42.26,0
7.049,-46.471,0
7.05,-42.626,0
7.051,-39.147,0
7.052,-36.034,0
7.053,-27.245,0
7.054,-24.682,0
7.055,-17.541,0
7.056,-15.344,0
7.057,-5.273,0
7.058,-3.442,0
7.059,-1.794,0
7.06,-0.329,0
7.061,3.699,0
7.062,4.798,0
7.063,5.897,0
7.064,6.812,0
7.065,7.728,0
7.066,6.995,0
7.067,4.798,0
7.068,8.094,0
7.069,3.699,0
7.07,8.826,0
7.071,5.531,0
7.072,11.207,0
7.073,11.939,0
7.074,8.643,0
7.075,5.531,0
7.076,6.08,0
7.077,6.446,0
7.078,5.164,0
7.079,2.418,0
7.08,4.249,0
7.081,0.22,0
7.082,3.516,0
7.083,3.883,0
7.084,1.136,0
7.085,3.699,0
7.086,2.601,0
7.087,2.418,0
7.088,3.15,0
7.089,3.15,0
7.09,0.77,0
7.091,5.347,0
7.092,15.601,0
7.093,38.123,0
7.094,60.645,0
7.095,57.716,0
7.096,22.742,0
7.097,-10.583,0
7.098,-32.189,0
7.099,-36.034,0
7.1,-39.513,0
7.101,-36.401,0
7.102,-33.471,0
7.103,-30.907,0
7.104,-23.766,0
7.105,-17.175,0
7.106,-15.16,0
7.107,-13.329,0
7.108,-14.977,0
7.109,-4.54,0
7.11,-0.512,0
7.111,0.587,0
7.112,-0.512,0
7.113,2.418,0
7.114,3.333,0
7.115,5.714,0
7.116,6.446,0
7.117,6.995,0
7.118,6.446,0
7.119,4.798,0
7.12,7.178,0
7.121,5.897,0
7.122,6.995,0
7.123,6.629,0
7.124,6.263,0
7.125,6.995,0
7.126,5.164,0
7.127,2.235,0
7.128,7.911,0
7.129,3.883,0
7.13,6.08,0
7.131,5.531,0
7.132,8.643,0
7.133,4.798,0
7.134,2.418,0
7.135,0.22,0
7.136,-0.878,0
7.137,0.22,0
7.138,0.587,0
7.139,2.601,0
7.14,0.953,0
7.141,4.066,0
7.142,8.643,0
7.143,18.165,0
7.144,38.673,0
7.145,41.602,0
7.146,39.039,0
7.147,51.124,0
7.148,40.137,0
7.149,38.123,0
7.15,10.657,0
7.151,-32.739,0
7.152,-49.95,0
7.153,-55.077,0
7.154,-50.317,0
7.155,-46.105,0
7.156,-42.26,0
7.157,-31.64,0
7.158,-34.753,0
7.159,-31.823,0
7.16,-23.949,0
7.161,-16.808,0
7.162,-10.217,0
7.163,-4.174,0
7.164,-2.343,0
7.165,2.601,0
7.166,4.066,0
7.167,5.347,0
7.168,6.446,0
7.169,7.545,0
7.17,10.474,0
7.171,11.39,0
7.172,12.122,0
7.173,12.855,0
7.174,11.024,0
7.175,12.855,0
7.176,10.108,0
7.177,6.812,0
7.178,9.925,0
7.179,5.347,0
7.18,5.897,0
7.181,5.347,0
7.182,6.629,0
7.183,6.995,0
7.184,9.01,0
7.185,5.531,0
7.186,3.333,0
7.187,7.911,0
7.188,17.432,0
7.189,35.194,0
7.19,18.348,0
7.191,3.15,0
7.192,-7.836,0
7.193,-9.85,0
7.194,-0.695,0
7.195,17.615,0
7.196,29.7,0
7.197,31.898,0
7.198,21.827,0
7.199,38.306,0
7.2,40.504,0
7.201,10.291,0
7.202,-37.316,0
7.203,-56.176,0
7.204,-61.852,0
7.205,-56.725,0
7.206,-51.965,0
7.207,-39.147,0
7.208,-42.992,0
7.209,-32.372,0
7.21,-22.851,0
7.211,-14.062,0
7.212,-11.498,0
7.213,-9.118,0
7.214,-2.526,0
7.215,3.516,0
7.216,9.01,0
7.217,10.657,0
7.218,6.263,0
7.219,7.545,0
7.22,6.446,0
7.221,9.742,0
7.222,8.826,0
7.223,11.573,0
7.224,9.193,0
7.225,8.46,0
7.226,10.291,0
7.227,7.178,0
7.228,11.024,0
7.229,12.305,0
7.23,11.939,0
7.231,8.094,0
7.232,9.376,0
7.233,3.333,0
7.234,5.714,0
7.235,6.446,0
7.236,4.615,0
7.237,7.728,0
7.238,9.376,0
7.239,9.01,0
7.24,10.291,0
7.241,7.545,0
7.242,3.15,0
7.243,4.981,0
7.244,10.474,0
7.245,22.01,0
7.246,46.912,0
7.247,64.674,0
7.248,61.561,0
7.249,28.968,0
7.25,-10.033,0
7.251,-25.597,0
7.252,-39.88,0
7.253,-35.668,0
7.254,-39.513,0
7.255,-36.034,0
7.256,-32.922,0
7.257,-24.133,0
7.258,-21.569,0
7.259,-14.428,0
7.26,-12.231,0
7.261,-10.217,0
7.262,-12.048,0
7.263,-7.104,0
7.264,-2.709,0
7.265,-1.427,0
7.266,-0.329,0
7.267,2.967,0
7.268,2.052,0
7.269,2.967,0
7.27,3.699,0
7.271,-0.146,0
7.272,3.15,0
7.273,3.699,0
7.274,5.347,0
7.275,2.052,0
7.276,2.418,0
7.277,6.263,0
7.278,2.967,0
7.279,4.249,0
7.28,1.502,0
7.281,-1.061,0
7.282,1.502,0
7.283,0.77,0
7.284,-0.512,0
7.285,2.418,0
7.286,2.784,0
7.287,2.418,0
7.288,6.995,0
7.289,5.164,0
7.29,5.714,0
7.291,7.362,0
7.292,7.728,0
7.293,2.418,0
7.294,4.615,0
7.295,10.841,0
7.296,24.757,0
7.297,46.912,0
7.298,61.744,0
7.299,53.87,0
7.3,17.432,0
7.301,-19.189,0
7.302,-33.471,0
7.303,-37.682,0
7.304,-41.528,0
7.305,-38.049,0
7.306,-34.936,0
7.307,-26.147,0
7.308,-23.583,0
7.309,-21.203,0
7.31,-14.611,0
7.311,-4.54,0
7.312,-10.033,0
7.313,-5.09,0
7.314,-0.695,0
7.315,0.587,0
7.316,4.066,0
7.317,2.967,0
7.318,5.897,0
7.319,6.812,0
7.32,7.545,0
7.321,8.277,0
7.322,4.981,0
7.323,9.376,0
7.324,9.925,0
7.325,8.643,0
7.326,6.446,0
7.327,6.08,0
7.328,4.249,0
7.329,1.685,0
7.33,4.981,0
7.331,7.178,0
7.332,6.812,0
7.333,7.178,0
7.334,11.939,0
7.335,8.826,0
7.336,9.376,0
7.337,12.672,0
7.338,19.63,0
7.339,24.573,0
7.34,29.151,0
7.341,29.884,0
7.342,30.616,0
7.343,28.785,0
7.344,19.263,0
7.345,21.094,0
7.346,29.517,0
7.347,43.067,0
7.348,55.885,0
7.349,37.574,0
7.35,39.954,0
7.351,11.207,0
7.352,-32.189,0
7.353,-72.472,0
7.354,-88.036,0
7.355,-92.797,0
7.356,-88.586,0
7.357,-76.867,0
7.358,-66.247,0
7.359,-75.768,0
7.36,-84.557,0
7.361,-97.924,0
7.362,-119.9,0
7.363,-134.73,0
7.364,-137.29,0
7.365,-139.67,0
7.366,-150.66,0
7.367,-156.7,0
7.368,-147.55,0
7.369,-129.24,0
7.37,-107.26,0
7.371,-86.572,0
7.372,-62.402,0
7.373,-13.696,0
7.374,91.407,0
7.375,166.66,0
7.376,180.21,0
7.377,192.66,0
7.378,158.97,0
7.379,128.21,0
7.38,118.87,0
7.381,110.45,0
7.382,102.76,0
7.383,109.72,0
7.384,115.94,0
7.385,144.69,0
7.386,170.88,0
7.387,175.63,0
7.388,171.42,0
7.389,159.71,0
7.39,141.94,0
7.391,132.42,0
7.392,117.59,0
7.393,93.421,0
7.394,77.308,0
7.395,50.758,0
7.396,35.926,0
7.397,43.8,0
7.398,46.18,0
7.399,70.533,0
7.4,73.646,0
7.401,58.814,0
7.402,18.531,0
7.403,-33.471,0
7.404,-54.345,0
7.405,-73.205,0
7.406,-78.881,0
7.407,-84.008,0
7.408,-88.769,0
7.409,-84.557,0
7.41,-88.403,0
7.411,-84.924,0
7.412,-88.036,0
7.413,-79.247,0
7.414,-87.121,0
7.415,-79.98,0
7.416,-77.782,0
7.417,-83.825,0
7.418,-78.332,0
7.419,-76.684,0
7.42,-72.289,0
7.421,-68.261,0
7.422,-62.219,0
7.423,-54.345,0
7.424,-49.401,0
7.425,-46.655,0
7.426,-42.626,0
7.427,-37.316,0
7.428,-31.091,0
7.429,-27.062,0
7.43,-21.752,0
7.431,-17.175,0
7.432,-12.78,0
7.433,-4.357,0
7.434,14.136,0
7.435,22.01,0
7.436,0.037,0
7.437,-8.752,0
7.438,-6.188,0
7.439,-8.569,0
7.44,-6.371,0
7.441,-4.357,0
7.442,-2.526,0
7.443,-0.878,0
7.444,-2.343,0
7.445,4.432,0
7.446,5.347,0
7.447,6.446,0
7.448,21.278,0
7.449,27.32,0
7.45,54.786,0
7.451,66.505,0
7.452,41.602,0
7.453,5.897,0
7.454,-8.385,0
7.455,-21.203,0
7.456,-25.048,0
7.457,-28.527,0
7.458,-19.006,0
7.459,-16.076,0
7.46,-13.512,0
7.461,-11.132,0
7.462,-8.935,0
7.463,-6.921,0
7.464,-1.427,0
7.465,3.516,0
7.466,4.981,0
7.467,9.01,0
7.468,10.108,0
7.469,13.404,0
7.47,18.348,0
7.471,19.263,0
7.472,18.531,0
7.473,20.728,0
7.474,17.432,0
7.475,16.883,0
7.476,15.235,0
7.477,14.869,0
7.478,13.587,0
7.479,13.221,0
7.48,9.01,0
7.481,7.362,0
7.482,4.066,0
7.483,8.277,0
7.484,8.826,0
7.485,6.446,0
7.486,3.333,0
7.487,4.432,0
7.488,6.995,0
7.489,6.629,0
7.49,4.615,0
7.491,3.883,0
7.492,3.15,0
7.493,6.629,0
7.494,5.347,0
7.495,1.136,0
7.496,2.784,0
7.497,5.347,0
7.498,5.714,0
7.499,9.925,0
7.5,18.348,0
7.501,36.842,0
7.502,44.715,0
7.503,42.335,0
7.504,40.137,0
7.505,34.095,0
7.506,17.615,0
7.507,-11.132,0
7.508,-38.598,0
7.509,-49.218,0
7.51,-52.331,0
7.511,-49.401,0
7.512,-46.838,0
7.513,-39.697,0
7.514,-33.105,0
7.515,-23.034,0
7.516,-21.203,0
7.517,-19.555,0
7.518,-15.16,0
7.519,-13.879,0
7.52,-5.456,0
7.521,2.418,0
7.522,3.333,0
7.523,2.418,0
7.524,3.15,0
7.525,3.883,0
7.526,8.46,0
7.527,11.573,0
7.528,9.925,0
7.529,9.559,0
7.53,7.362,0
7.531,6.995,0
7.532,10.474,0
7.533,7.362,0
7.534,5.347,0
7.535,7.911,0
7.536,9.742,0
7.537,6.446,0
7.538,6.08,0
7.539,8.826,0
7.54,9.925,0
7.541,8.094,0
7.542,5.347,0
7.543,7.911,0
7.544,3.15,0
7.545,3.699,0
7.546,4.249,0
7.547,0.953,0
7.548,9.01,0
7.549,6.812,0
7.55,13.038,0
7.551,23.292,0
7.552,38.306,0
7.553,56.434,0
7.554,44.349,0
7.555,15.601,0
7.556,-19.921,0
7.557,-34.203,0
7.558,-38.415,0
7.559,-34.57,0
7.56,-38.049,0
7.561,-34.936,0
7.562,-32.006,0
7.563,-24.133,0
7.564,-21.752,0
7.565,-19.555,0
7.566,-13.512,0
7.567,-8.019,0
7.568,-9.667,0
7.569,-8.202,0
7.57,-4.174,0
7.571,1.868,0
7.572,7.545,0
7.573,10.474,0
7.574,11.39,0
7.575,9.01,0
7.576,6.812,0
7.577,6.263,0
7.578,1.868,0
7.579,5.714,0
7.58,6.08,0
7.581,7.362,0
7.582,10.108,0
7.583,10.474,0
7.584,8.643,0
7.585,8.826,0
7.586,8.094,0
7.587,8.277,0
7.588,8.826,0
7.589,8.277,0
7.59,5.347,0
7.591,1.502,0
7.592,-3.075,0
7.593,-1.244,0
7.594,0.404,0
7.595,-0.878,0
7.596,1.319,0
7.597,-1.427,0
7.598,2.052,0
7.599,0.22,0
7.6,0.587,0
7.601,6.812,0
7.602,20.728,0
7.603,38.856,0
7.604,45.997,0
7.605,61.378,0
7.606,31.165,0
7.607,0.953,0
7.608,-26.513,0
7.609,-37.133,0
7.61,-40.246,0
7.611,-37.316,0
7.612,-39.88,0
7.613,-32.739,0
7.614,-30.541,0
7.615,-20.47,0
7.616,-18.639,0
7.617,-13.696,0
7.618,-9.301,0
7.619,-2.526,0
7.62,-3.625,0
7.621,2.052,0
7.622,1.136,0
7.623,3.883,0
7.624,4.615,0
7.625,5.347,0
7.626,7.178,0
7.627,9.01,0
7.628,8.46,0
7.629,9.742,0
7.63,6.629,0
7.631,9.376,0
7.632,6.812,0
7.633,10.841,0
7.634,6.263,0
7.635,3.15,0
7.636,8.277,0
7.637,7.728,0
7.638,5.897,0
7.639,3.15,0
7.64,4.432,0
7.641,1.319,0
7.642,2.418,0
7.643,2.784,0
7.644,-0.512,0
7.645,5.714,0
7.646,-2.709,0
7.647,-3.808,0
7.648,1.136,0
7.649,0.22,0
7.65,-3.442,0
7.651,-5.822,0
7.652,5.714,0
7.653,30.616,0
7.654,62.843,0
7.655,50.025,0
7.656,22.559,0
7.657,-9.667,0
7.658,-13.879,0
7.659,-25.597,0
7.66,-22.118,0
7.661,-25.231,0
7.662,-22.302,0
7.663,-19.738,0
7.664,-17.358,0
7.665,-10.766,0
7.666,-8.752,0
7.667,-10.583,0
7.668,-8.935,0
7.669,-1.427,0
7.67,-0.146,0
7.671,-1.244,0
7.672,2.052,0
7.673,1.136,0
7.674,5.714,0
7.675,6.446,0
7.676,5.714,0
7.677,9.01,0
7.678,4.615,0
7.679,9.742,0
7.68,19.996,0
7.681,24.39,0
7.682,6.629,0
7.683,-0.512,0
7.684,-7.104,0
7.685,-5.09,0
7.686,-3.259,0
7.687,-1.611,0
7.688,-3.075,0
7.689,-4.357,0
7.69,-3.259,0
7.691,0.037,0
7.692,-4.906,0
7.693,-2.16,0
7.694,-4.54,0
7.695,0.77,0
7.696,-1.061,0
7.697,0.77,0
7.698,3.516,0
7.699,2.235,0
7.7,-0.878,0
7.701,-1.977,0
7.702,2.601,0
7.703,9.559,0
7.704,23.475,0
7.705,45.631,0
7.706,48.56,0
7.707,29.884,0
7.708,13.038,0
7.709,-15.71,0
7.71,-27.428,0
7.711,-38.049,0
7.712,-34.936,0
7.713,-32.006,0
7.714,-29.443,0
7.715,-22.302,0
7.716,-20.104,0
7.717,-14.062,0
7.718,-12.231,0
7.719,-10.583,0
7.72,-6.188,0
7.721,-4.906,0
7.722,-1.427,0
7.723,1.868,0
7.724,2.784,0
7.725,1.868,0
7.726,-2.16,0
7.727,3.15,0
7.728,4.981,0
7.729,4.432,0
7.73,4.981,0
7.731,5.347,0
7.732,5.714,0
7.733,7.728,0
7.734,5.897,0
7.735,5.531,0
7.736,7.545,0
7.737,8.277,0
7.738,8.46,0
7.739,7.362,0
7.74,4.066,0
7.741,0.953,0
7.742,-1.794,0
7.743,-0.695,0
7.744,4.798,0
7.745,4.066,0
7.746,5.897,0
7.747,4.066,0
7.748,1.319,0
7.749,2.601,0
7.75,-0.512,0
7.751,-0.146,0
7.752,-2.709,0
7.753,-1.611,0
7.754,3.883,0
7.755,15.418,0
7.756,37.025,0
7.757,45.814,0
7.758,59.18,0
7.759,37.208,0
7.76,-1.427,0
7.761,-27.612,0
7.762,-41.894,0
7.763,-37.682,0
7.764,-41.528,0
7.765,-38.049,0
7.766,-34.936,0
7.767,-26.147,0
7.768,-18.273,0
7.769,-15.893,0
7.77,-13.696,0
7.771,-15.71,0
7.772,-10.217,0
7.773,-1.977,0
7.774,-3.442,0
7.775,0.587,0
7.776,1.685,0
7.777,2.784,0
7.778,5.714,0
7.779,6.629,0
7.78,7.362,0
7.781,6.629,0
7.782,3.333,0
7.783,5.164,0
7.784,7.911,0
7.785,4.615,0
7.786,2.418,0
7.787,8.643,0
7.788,7.728,0
7.789,5.347,0
7.79,3.15,0
7.791,6.446,0
7.792,6.995,0
7.793,8.643,0
7.794,7.362,0
7.795,6.995,0
7.796,6.629,0
7.797,5.531,0
7.798,4.432,0
7.799,3.699,0
7.8,-0.512,0
7.801,3.883,0
7.802,0.037,0
7.803,-1.244,0
7.804,0.037,0
7.805,5.164,0
7.806,15.418,0
7.807,37.94,0
7.808,41.053,0
7.809,43.983,0
7.81,51.856,0
7.811,39.771,0
7.812,6.629,0
7.813,-36.401,0
7.814,-42.077,0
7.815,-47.204,0
7.816,-42.443,0
7.817,-46.655,0
7.818,-34.936,0
7.819,-31.457,0
7.82,-21.935,0
7.821,-19.006,0
7.822,-11.132,0
7.823,-13.512,0
7.824,-11.315,0
7.825,-5.273,0
7.826,-3.442,0
7.827,1.502,0
7.828,0.037,0
7.829,6.812,0
7.83,7.911,0
7.831,6.812,0
7.832,7.728,0
7.833,8.643,0
7.834,4.615,0
7.835,9.925,0
7.836,6.629,0
7.837,7.178,0
7.838,8.826,0
7.839,11.207,0
7.84,11.573,0
7.841,14.32,0
7.842,8.643,0
7.843,7.911,0
7.844,7.178,0
7.845,7.728,0
7.846,3.333,0
7.847,8.46,0
7.848,3.883,0
7.849,3.333,0
7.85,4.981,0
7.851,3.699,0
7.852,-3.259,0
7.853,-2.343,0
7.854,-4.174,0
7.855,-3.259,0
7.856,9.193,0
7.857,29.334,0
7.858,48.011,0
7.859,50.391,0
7.86,56.983,0
7.861,30.799,0
7.862,-1.427,0
7.863,-23.034,0
7.864,-34.753,0
7.865,-45.373,0
7.866,-42.26,0
7.867,-39.33,0
7.868,-31.457,0
7.869,-33.837,0
7.87,-27.245,0
7.871,-25.231,0
7.872,-19.738,0
7.873,-14.794,0
7.874,-4.357,0
7.875,2.418,0
7.876,-1.061,0
7.877,-4.357,0
7.878,-3.442,0
7.879,6.812,0
7.88,8.094,0
7.881,9.193,0
7.882,12.489,0
7.883,7.545,0
7.884,8.46,0
7.885,6.08,0
7.886,9.925,0
7.887,5.347,0
7.888,2.235,0
7.889,4.981,0
7.89,7.362,0
7.891,6.995,0
7.892,2.418,0
7.893,0.587,0
7.894,3.333,0
7.895,3.699,0
7.896,3.333,0
7.897,2.235,0
7.898,4.066,0
7.899,2.235,0
7.9,4.249,0
7.901,1.685,0
7.902,-2.343,0
7.903,5.164,0
7.904,6.263,0
7.905,3.15,0
7.906,0.22,0
7.907,14.136,0
7.908,44.349,0
7.909,57.166,0
7.91,61.011,0
7.911,28.785,0
7.912,-10.217,0
7.913,-25.781,0
7.914,-30.541,0
7.915,-34.753,0
7.916,-38.598,0
7.917,-35.119,0
7.918,-25.597,0
7.919,-22.668,0
7.92,-14.794,0
7.921,-12.414,0
7.922,-10.217,0
7.923,-8.202,0
7.924,-2.709,0
7.925,8.826,0
7.926,19.263,0
7.927,15.235,0
7.928,-0.878,0
7.929,-3.075,0
7.93,-9.118,0
7.931,-10.949,0
7.932,-9.301,0
7.933,-7.836,0
7.934,-3.808,0
7.935,-7.287,0
7.936,-1.611,0
7.937,-2.526,0
7.938,-1.611,0
7.939,2.418,0
7.94,-1.427,0
7.941,0.404,0
7.942,2.235,0
7.943,1.685,0
7.944,2.052,0
7.945,6.263,0
7.946,1.136,0
7.947,4.432,0
7.948,2.601,0
7.949,2.052,0
7.95,4.432,0
7.951,1.319,0
7.952,5.164,0
7.953,3.883,0
7.954,0.77,0
7.955,6.263,0
7.956,4.615,0
7.957,8.46,0
7.958,10.291,0
7.959,19.813,0
7.96,40.321,0
7.961,49.11,0
7.962,46.546,0
7.963,53.687,0
7.964,47.095,0
7.965,37.025,0
7.966,9.559,0
7.967,-33.837,0
7.968,-51.049,0
7.969,-56.176,0
7.97,-51.415,0
7.971,-55.627,0
7.972,-43.908,0
7.973,-40.429,0
7.974,-30.907,0
7.975,-22.118,0
7.976,-24.682,0
7.977,-17.541,0
7.978,-10.949,0
7.979,-0.878,0
7.98,0.953,0
7.981,12.489,0
7.982,4.981,0
7.983,11.756,0
7.984,15.235,0
7.985,16.334,0
7.986,11.39,0
7.987,12.305,0
7.988,13.038,0
7.989,16.883,0
7.99,13.587,0
7.991,14.136,0
7.992,10.291,0
7.993,9.925,0
7.994,8.643,0
7.995,10.657,0
7.996,7.178,0
7.997,8.46,0
7.998,3.883,0
7.999,5.714,0
8,4.066,0
8.001,4.432,0
8.002,3.15,0
8.003,4.249,0
8.004,5.347,0
8.005,7.178,0
8.006,6.446,0
8.007,6.812,0
8.008,3.699,0
8.009,5.714,0
8.01,11.39,0
8.011,23.841,0
8.012,51.307,0
8.013,55.152,0
8.014,15.784,0
8.015,-20.837,0
8.016,-35.119,0
8.017,-39.33,0
8.018,-35.485,0
8.019,-32.006,0
8.02,-35.119,0
8.021,-32.189,0
8.022,-24.316,0
8.023,-21.935,0
8.024,-19.738,0
8.025,-17.724,0
8.026,-12.231,0
8.027,-7.287,0
8.028,-5.822,0
8.029,-1.794,0
8.03,-0.695,0
8.031,-1.794,0
8.032,3.15,0
8.033,5.897,0
8.034,5.164,0
8.035,4.432,0
8.036,7.728,0
8.037,4.615,0
8.038,5.164,0
8.039,5.531,0
8.04,11.573,0
8.041,9.193,0
8.042,8.46,0
8.043,10.291,0
8.044,7.178,0
8.045,2.052,0
8.046,0.22,0
8.047,0.77,0
8.048,0.22,0
8.049,-1.061,0
8.05,2.052,0
8.051,0.037,0
8.052,-0.329,0
8.053,2.967,0
8.054,0.22,0
8.055,2.784,0
8.056,2.418,0
8.057,1.685,0
8.058,6.08,0
8.059,7.911,0
8.06,11.939,0
8.061,20.362,0
8.062,38.856,0
8.063,46.729,0
8.064,58.814,0
8.065,25.672,0
8.066,-7.653,0
8.067,-29.26,0
8.068,-40.978,0
8.069,-51.598,0
8.07,-42.077,0
8.071,-39.147,0
8.072,-36.584,0
8.073,-34.203,0
8.074,-23.217,0
8.075,-17.175,0
8.076,-15.344,0
8.077,-13.696,0
8.078,-9.301,0
8.079,-5.273,0
8.08,-6.371,0
8.081,-3.075,0
8.082,6.08,0
8.083,7.178,0
8.084,10.474,0
8.085,11.39,0
8.086,10.474,0
8.087,14.503,0
8.088,22.926,0
8.089,24.024,0
8.09,28.968,0
8.091,28.052,0
8.092,33.729,0
8.093,32.996,0
8.094,34.827,0
8.095,36.658,0
8.096,30.433,0
8.097,19.63,0
8.098,21.094,0
8.099,17.066,0
8.1,13.587,0
8.101,3.333,0
8.102,-11.681,0
8.103,-21.752,0
8.104,-30.907,0
8.105,-39.147,0
8.106,-46.655,0
8.107,-45.373,0
8.108,-44.274,0
8.109,-27.612,0
8.11,-21.935,0
8.111,-10.766,0
8.112,-18.273,0
8.113,-11.498,0
8.114,-29.992,0
8.115,-70.275,0
8.116,-110.56,0
8.117,-147.18,0
8.118,-161.46,0
8.119,-183.07,0
8.12,-179.22,0
8.121,-175.74,0
8.122,-159.63,0
8.123,-138.94,0
8.124,-120.26,0
8.125,-83.825,0
8.126,-5.09,0
8.127,96.534,0
8.128,137.37,0
8.129,174.72,0
8.13,163.55,0
8.131,132.79,0
8.132,123.45,0
8.133,98.182,0
8.134,90.491,0
8.135,97.449,0
8.136,116.31,0
8.137,133.52,0
8.138,159.71,0
8.139,173.99,0
8.14,178.2,0
8.141,166.48,0
8.142,148.72,0
8.143,139.2,0
8.144,130.41,0
8.145,106.24,0
8.146,83.717,0
8.147,56.983,0
8.148,46.363,0
8.149,36.842,0
8.15,39.771,0
8.151,26.405,0
8.152,14.32,0
8.153,7.728,0
8.154,-2.343,0
8.155,-7.836,0
8.156,-19.372,0
8.157,-20.837,0
8.158,-30.358,0
8.159,-41.528,0
8.16,-42.992,0
8.161,-47.387,0
8.162,-37.865,0
8.163,-29.443,0
8.164,-12.414,0
8.165,-5.273,0
8.166,-7.47,0
8.167,-37.682,0
8.168,-85.29,0
8.169,-116.97,0
8.17,-122.64,0
8.171,-96.459,0
8.172,-82.177,0
8.173,-94.994,0
8.174,-98.84,0
8.175,-95.361,0
8.176,-92.248,0
8.177,-83.459,0
8.178,-75.585,0
8.179,-68.444,0
8.18,-57.458,0
8.181,-43.359,0
8.182,-37.865,0
8.183,-29.626,0
8.184,-28.161,0
8.185,-15.893,0
8.186,-14.245,0
8.187,-9.85,0
8.188,-3.075,0
8.189,0.404,0
8.19,3.699,0
8.191,6.629,0
8.192,11.207,0
8.193,11.939,0
8.194,9.742,0
8.195,13.038,0
8.196,12.489,0
8.197,13.038,0
8.198,13.404,0
8.199,11.207,0
8.2,13.221,0
8.201,13.587,0
8.202,11.024,0
