0,-4.066,0
0.001,-3.15,0
0.002,2.526,0
0.003,7.836,0
0.004,18.09,0
0.005,40.612,0
0.006,56.725,0
0.007,29.992,0
0.008,12.231,0
0.009,-10.291,0
0.01,-13.221,0
0.011,-15.784,0
0.012,-18.165,0
0.013,-20.362,0
0.014,-14.32,0
0.015,-12.489,0
0.016,-10.841,0
0.017,-6.446,0
0.018,-7.728,0
0.019,-6.629,0
0.02,-0.953,0
0.021,1.977,0
0.022,2.892,0
0.023,3.625,0
0.024,5.822,0
0.025,10.4,0
0.026,6.005,0
0.027,11.132,0
0.028,7.836,0
0.029,4.723,0
0.03,9.85,0
0.031,10.4,0
0.032,10.949,0
0.033,9.301,0
0.034,6.005,0
0.035,5.639,0
0.036,7.653,0
0.037,10.217,0
0.038,9.85,0
0.039,13.146,0
0.04,10.033,0
0.041,13.879,0
0.042,12.597,0
0.043,8.385,0
0.044,8.935,0
0.045,7.653,0
0.046,8.019,0
0.047,5.273,0
0.048,7.836,0
0.049,3.808,0
0.05,5.09,0
0.051,4.723,0
0.052,5.09,0
0.053,11.315,0
0.054,25.231,0
0.055,55.444,0
0.056,68.261,0
0.057,48.669,0
0.058,16.442,0
0.059,-5.164,0
0.06,-16.883,0
0.061,-20.362,0
0.062,-23.475,0
0.063,-26.405,0
0.064,-23.841,0
0.065,-21.461,0
0.066,-19.263,0
0.067,-21.278,0
0.068,-19.447,0
0.069,-17.799,0
0.07,-10.291,0
0.071,-11.573,0
0.072,-8.094,0
0.073,-6.995,0
0.074,-2.052,0
0.075,0.695,0
0.076,-6.812,0
0.077,-1.868,0
0.078,0.878,0
0.079,-3.15,0
0.08,-0.953,0
0.081,2.343,0
0.082,0.512,0
0.083,2.16,0
0.084,3.442,0
0.085,3.808,0
0.086,6.554,0
0.087,11.498,0
0.088,10.949,0
0.089,11.498,0
0.09,8.752,0
0.091,9.118,0
0.092,7.836,0
0.093,1.611,0
0.094,2.526,0
0.095,0.146,0
0.096,-0.587,0
0.097,1.244,0
0.098,-0.587,0
0.099,4.54,0
0.1,-1.685,0
0.101,-4.066,0
0.102,-1.136,0
0.103,2.709,0
0.104,12.963,0
0.105,26.513,0
0.106,39.33,0
0.107,60.937,0
0.108,75.768,0
0.109,51.598,0
0.11,22.302,0
0.111,-5.164,0
0.112,-22.926,0
0.113,-32.447,0
0.114,-35.377,0
0.115,-37.94,0
0.116,-40.321,0
0.117,-42.518,0
0.118,-36.475,0
0.119,-30.982,0
0.12,-26.038,0
0.121,-21.644,0
0.122,-17.615,0
0.123,-11.573,0
0.124,-10.474,0
0.125,-7.545,0
0.126,-8.46,0
0.127,-4.432,0
0.128,2.526,0
0.129,-0.22,0
0.13,-0.953,0
0.131,1.244,0
0.132,3.075,0
0.133,4.906,0
0.134,2.16,0
0.135,4.54,0
0.136,2.343,0
0.137,6.188,0
0.138,5.822,0
0.139,6.188,0
0.14,8.935,0
0.141,8.569,0
0.142,4.54,0
0.143,3.259,0
0.144,3.625,0
0.145,5.639,0
0.146,3.808,0
0.147,2.709,0
0.148,4.174,0
0.149,3.442,0
0.15,1.061,0
0.151,0.329,0
0.152,1.611,0
0.153,3.991,0
0.154,5.273,0
0.155,8.752,0
0.156,16.259,0
0.157,33.288,0
0.158,64.965,0
0.159,69.177,0
0.16,49.584,0
0.161,17.358,0
0.162,-4.249,0
0.163,-23.841,0
0.164,-27.32,0
0.165,-30.433,0
0.166,-33.363,0
0.167,-35.926,0
0.168,-33.546,0
0.169,-31.348,0
0.17,-25.306,0
0.171,-19.813,0
0.172,-14.869,0
0.173,-16.334,0
0.174,-6.812,0
0.175,-3.333,0
0.176,-6.629,0
0.177,-1.685,0
0.178,1.061,0
0.179,1.794,0
0.18,-0.404,0
0.181,0.146,0
0.182,3.259,0
0.183,6.005,0
0.184,3.625,0
0.185,3.259,0
0.186,3.625,0
0.187,5.456,0
0.188,3.625,0
0.189,5.639,0
0.19,6.371,0
0.191,10.4,0
0.192,5.273,0
0.193,-0.953,0
0.194,-0.22,0
0.195,3.625,0
0.196,5.456,0
0.197,2.343,0
0.198,2.892,0
0.199,7.47,0
0.2,1.794,0
0.201,-3.516,0
0.202,-2.967,0
0.203,6.554,0
0.204,6.188,0
0.205,2.16,0
0.206,18.273,0
0.207,29.26,0
0.208,59.472,0
0.209,63.683,0
0.21,36.218,0
0.211,11.315,0
0.212,-4.798,0
0.213,-19.63,0
0.214,-22.193,0
0.215,-24.573,0
0.216,-26.771,0
0.217,-24.757,0
0.218,-22.926,0
0.219,-24.573,0
0.22,-17.066,0
0.221,-15.784,0
0.222,-14.686,0
0.223,-11.39,0
0.224,-10.474,0
0.225,-4.066,0
0.226,-9.742,0
0.227,-5.897,0
0.228,-2.601,0
0.229,-4.432,0
0.23,-1.685,0
0.231,0.695,0
0.232,3.808,0
0.233,10.033,0
0.234,23.949,0
0.235,34.02,0
0.236,17.541,0
0.237,6.554,0
0.238,-3.516,0
0.239,-5.347,0
0.24,-3.699,0
0.241,-2.235,0
0.242,-9.01,0
0.243,-7.911,0
0.244,-6.812,0
0.245,-3.883,0
0.246,-4.798,0
0.247,-4.066,0
0.248,-1.868,0
0.249,-1.319,0
0.25,-0.77,0
0.251,-2.418,0
0.252,-1.136,0
0.253,1.977,0
0.254,5.822,0
0.255,3.991,0
0.256,7.287,0
0.257,13.329,0
0.258,22.485,0
0.259,38.598,0
0.26,53.979,0
0.261,55.993,0
0.262,43.176,0
0.263,28.161,0
0.264,-2.052,0
0.265,-23.658,0
0.266,-27.503,0
0.267,-30.982,0
0.268,-34.095,0
0.269,-37.025,0
0.27,-34.461,0
0.271,-32.081,0
0.272,-29.884,0
0.273,-27.869,0
0.274,-26.038,0
0.275,-17.799,0
0.276,-16.334,0
0.277,-15.052,0
0.278,-9.01,0
0.279,-5.714,0
0.28,-4.798,0
0.281,-3.883,0
0.282,1.794,0
0.283,2.526,0
0.284,0.695,0
0.285,3.808,0
0.286,4.357,0
0.287,6.738,0
0.288,9.85,0
0.289,8.752,0
0.29,8.385,0
0.291,10.949,0
0.292,8.202,0
0.293,6.371,0
0.294,6.005,0
0.295,8.019,0
0.296,5.456,0
0.297,4.357,0
0.298,5.09,0
0.299,4.906,0
0.3,2.526,0
0.301,0.512,0
0.302,0.329,0
0.303,3.808,0
0.304,4.174,0
0.305,4.54,0
0.306,5.456,0
0.307,11.132,0
0.308,21.935,0
0.309,29.443,0
0.31,49.95,0
0.311,64.782,0
0.312,40.612,0
0.313,11.315,0
0.314,-8.277,0
0.315,-18.897,0
0.316,-22.01,0
0.317,-30.799,0
0.318,-28.236,0
0.319,-30.616,0
0.32,-28.419,0
0.321,-26.405,0
0.322,-20.911,0
0.323,-15.968,0
0.324,-14.503,0
0.325,-10.474,0
0.326,-9.376,0
0.327,-8.277,0
0.328,-9.193,0
0.329,-6.446,0
0.33,-5.714,0
0.331,-6.446,0
0.332,3.808,0
0.333,5.273,0
0.334,3.991,0
0.335,5.09,0
0.336,6.188,0
0.337,7.104,0
0.338,9.85,0
0.339,5.822,0
0.34,5.09,0
0.341,3.259,0
0.342,1.427,0
0.343,3.075,0
0.344,0.695,0
0.345,2.892,0
0.346,1.794,0
0.347,4.357,0
0.348,2.526,0
0.349,1.061,0
0.35,1.794,0
0.351,1.061,0
0.352,4.54,0
0.353,4.906,0
0.354,5.273,0
0.355,4.174,0
0.356,4.54,0
0.357,6.921,0
0.358,5.09,0
0.359,9.667,0
0.36,19.921,0
0.361,42.443,0
0.362,64.965,0
0.363,38.232,0
0.364,6.005,0
0.365,-15.601,0
0.366,-19.447,0
0.367,-30.067,0
0.368,-26.954,0
0.369,-29.884,0
0.37,-22.01,0
0.371,-24.39,0
0.372,-17.799,0
0.373,-15.784,0
0.374,-13.953,0
0.375,-15.601,0
0.376,-17.066,0
0.377,-10.291,0
0.378,-6.812,0
0.379,-7.911,0
0.38,-2.967,0
0.381,1.611,0
0.382,0.878,0
0.383,1.611,0
0.384,-0.22,0
0.385,-2.052,0
0.386,-0.404,0
0.387,-0.037,0
0.388,2.16,0
0.389,4.906,0
0.39,4.54,0
0.391,1.977,0
0.392,3.442,0
0.393,1.611,0
0.394,5.639,0
0.395,10.766,0
0.396,7.47,0
0.397,8.019,0
0.398,4.174,0
0.399,2.892,0
0.4,3.259,0
0.401,3.625,0
0.402,1.794,0
0.403,4.357,0
0.404,1.611,0
0.405,3.442,0
0.406,3.075,0
0.407,0.329,0
0.408,1.794,0
0.409,4.357,0
0.41,9.85,0
0.411,18.273,0
0.412,35.302,0
0.413,47.387,0
0.414,53.979,0
0.415,68.078,0
0.416,62.585,0
0.417,37.682,0
0.418,-8.826,0
0.419,-27.686,0
0.42,-44.898,0
0.421,-50.025,0
0.422,-45.264,0
0.423,-41.053,0
0.424,-37.208,0
0.425,-40.687,0
0.426,-31.165,0
0.427,-34.095,0
0.428,-26.221,0
0.429,-23.841,0
0.43,-17.249,0
0.431,-11.207,0
0.432,-9.376,0
0.433,-7.728,0
0.434,-3.333,0
0.435,-7.362,0
0.436,-3.883,0
0.437,-0.587,0
0.438,-1.502,0
0.439,4.906,0
0.44,5.639,0
0.441,7.836,0
0.442,9.667,0
0.443,6.554,0
0.444,8.202,0
0.445,4.906,0
0.446,10.033,0
0.447,6.738,0
0.448,11.132,0
0.449,10.583,0
0.45,5.09,0
0.451,7.287,0
0.452,7.836,0
0.453,6.005,0
0.454,2.16,0
0.455,3.442,0
0.456,4.723,0
0.457,6.738,0
0.458,4.174,0
0.459,5.456,0
0.46,2.892,0
0.461,7.47,0
0.462,17.724,0
0.463,40.246,0
0.464,56.359,0
0.465,77.05,0
0.466,74.487,0
0.467,38.049,0
0.468,1.427,0
0.469,-22.376,0
0.47,-35.194,0
0.471,-39.039,0
0.472,-35.56,0
0.473,-38.673,0
0.474,-35.743,0
0.475,-33.179,0
0.476,-30.799,0
0.477,-32.996,0
0.478,-18.897,0
0.479,-9.742,0
0.48,15.16,0
0.481,11.681,0
0.482,2.16,0
0.483,-6.629,0
0.484,-9.193,0
0.485,-16.334,0
0.486,-14.136,0
0.487,-12.122,0
0.488,-10.291,0
0.489,-8.643,0
0.49,-10.108,0
0.491,-6.08,0
0.492,-4.981,0
0.493,-1.685,0
0.494,-0.77,0
0.495,0.146,0
0.496,0.878,0
0.497,3.075,0
0.498,4.906,0
0.499,3.075,0
0.5,3.625,0
0.501,4.906,0
0.502,6.188,0
0.503,7.287,0
0.504,6.188,0
0.505,7.287,0
0.506,10.583,0
0.507,6.371,0
0.508,3.625,0
0.509,1.244,0
0.51,1.061,0
0.511,4.174,0
0.512,10.4,0
0.513,18.823,0
0.514,35.851,0
0.515,72.289,0
0.516,77.416,0
0.517,53.613,0
0.518,14.611,0
0.519,-11.573,0
0.52,-25.855,0
0.521,-30.067,0
0.522,-33.912,0
0.523,-30.433,0
0.524,-27.32,0
0.525,-30.25,0
0.526,-22.376,0
0.527,-19.996,0
0.528,-17.799,0
0.529,-15.784,0
0.53,-13.953,0
0.531,-12.305,0
0.532,-7.911,0
0.533,-6.629,0
0.534,-7.728,0
0.535,-6.629,0
0.536,-1.685,0
0.537,1.061,0
0.538,1.794,0
0.539,2.526,0
0.54,0.695,0
0.541,3.808,0
0.542,6.554,0
0.543,4.174,0
0.544,4.54,0
0.545,7.287,0
0.546,6.921,0
0.547,7.287,0
0.548,7.47,0
0.549,6.188,0
0.55,3.259,0
0.551,1.427,0
0.552,4.723,0
0.553,0.146,0
0.554,-0.404,0
0.555,2.343,0
0.556,3.625,0
0.557,2.343,0
0.558,3.442,0
0.559,4.54,0
0.56,3.442,0
0.561,3.991,0
0.562,4.174,0
0.563,8.385,0
0.564,10.217,0
0.565,18.639,0
0.566,37.133,0
0.567,50.5,0
0.568,23.766,0
0.569,-1.136,0
0.57,-17.249,0
0.571,-20.179,0
0.572,-28.052,0
0.573,-30.433,0
0.574,-28.236,0
0.575,-30.25,0
0.576,-32.081,0
0.577,-27.137,0
0.578,-22.742,0
0.579,-24.024,0
0.58,-20.545,0
0.581,-12.672,0
0.582,-7.728,0
0.583,-6.812,0
0.584,-4.432,0
0.585,-2.235,0
0.586,2.343,0
0.587,0.512,0
0.588,3.259,0
0.589,0.878,0
0.59,3.991,0
0.591,2.892,0
0.592,1.794,0
0.593,-0.77,0
0.594,-0.953,0
0.595,1.611,0
0.596,4.906,0
0.597,3.808,0
0.598,5.639,0
0.599,3.808,0
0.6,4.54,0
0.601,5.273,0
0.602,5.456,0
0.603,6.005,0
0.604,2.709,0
0.605,5.822,0
0.606,6.921,0
0.607,3.442,0
0.608,4.723,0
0.609,3.625,0
0.61,-1.319,0
0.611,-1.868,0
0.612,-4.798,0
0.613,-1.685,0
0.614,6.738,0
0.615,22.851,0
0.616,42.809,0
0.617,50.683,0
0.618,67.529,0
0.619,65.331,0
0.62,35.119,0
0.621,4.906,0
0.622,-22.559,0
0.623,-26.038,0
0.624,-35.56,0
0.625,-38.49,0
0.626,-41.053,0
0.627,-33.912,0
0.628,-36.109,0
0.629,-26.038,0
0.63,-24.207,0
0.631,-19.263,0
0.632,-14.869,0
0.633,-10.841,0
0.634,-7.362,0
0.635,-8.46,0
0.636,-3.516,0
0.637,-0.77,0
0.638,1.611,0
0.639,-0.587,0
0.64,3.991,0
0.641,4.54,0
0.642,5.09,0
0.643,3.808,0
0.644,8.019,0
0.645,1.794,0
0.646,2.526,0
0.647,3.259,0
0.648,-0.037,0
0.649,3.075,0
0.65,1.427,0
0.651,1.794,0
0.652,1.427,0
0.653,2.526,0
0.654,6.005,0
0.655,7.287,0
0.656,1.794,0
0.657,1.061,0
0.658,5.639,0
0.659,3.808,0
0.66,2.16,0
0.661,3.442,0
0.662,4.723,0
0.663,6.188,0
0.664,3.442,0
0.665,9.118,0
0.666,21.569,0
0.667,49.035,0
0.668,68.627,0
0.669,50.866,0
0.67,15.16,0
0.671,-8.643,0
0.672,-12.855,0
0.673,-24.573,0
0.674,-21.094,0
0.675,-30.616,0
0.676,-27.686,0
0.677,-25.123,0
0.678,-22.742,0
0.679,-24.94,0
0.68,-18.897,0
0.681,-13.404,0
0.682,-8.46,0
0.683,-12.855,0
0.684,-8.826,0
0.685,-5.347,0
0.686,-2.052,0
0.687,-2.967,0
0.688,-0.22,0
0.689,-2.601,0
0.69,-0.404,0
0.691,0.146,0
0.692,1.977,0
0.693,0.329,0
0.694,2.709,0
0.695,-0.404,0
0.696,4.174,0
0.697,6.005,0
0.698,5.456,0
0.699,5.822,0
0.7,4.54,0
0.701,0.695,0
0.702,3.991,0
0.703,3.625,0
0.704,5.639,0
0.705,1.427,0
0.706,5.273,0
0.707,5.639,0
0.708,6.005,0
0.709,2.16,0
0.71,0.878,0
0.711,5.09,0
0.712,3.442,0
0.713,2.16,0
0.714,-0.404,0
0.715,-0.77,0
0.716,-2.784,0
0.717,2.892,0
0.718,15.344,0
0.719,42.809,0
0.72,54.528,0
0.721,22.302,0
0.722,0.695,0
0.723,-3.15,0
0.724,-13.77,0
0.725,2.343,0
0.726,17.175,0
0.727,19.738,0
0.728,7.653,0
0.729,5.456,0
0.73,-4.615,0
0.731,-6.446,0
0.732,-8.094,0
0.733,-12.489,0
0.734,-8.46,0
0.735,-11.939,0
0.736,-19.813,0
0.737,-30.982,0
0.738,-38.49,0
0.739,-42.518,0
0.74,-45.997,0
0.741,-47.095,0
0.742,-40.137,0
0.743,-26.221,0
0.744,-12.122,0
0.745,-28.602,0
0.746,-48.56,0
0.747,-67.237,0
0.748,-84.083,0
0.749,-112.83,0
0.75,-108.98,0
0.751,-112.46,0
0.752,-128.58,0
0.753,-155.31,0
0.754,-151.83,0
0.755,-142.31,0
0.756,-127.48,0
0.757,-108.8,0
0.758,-82.069,0
0.759,-28.419,0
0.76,71.74,0
0.761,140.04,0
0.762,152.49,0
0.763,163.66,0
0.764,132.9,0
0.765,109.46,0
0.766,100.12,0
0.767,108.54,0
0.768,116.23,0
0.769,151.21,0
0.77,195.52,0
0.771,201.2,0
0.772,196.07,0
0.773,172.26,0
0.774,159.45,0
0.775,139.85,0
0.776,122.09,0
0.777,112.57,0
0.778,91.882,0
0.779,62.402,0
0.78,42.809,0
0.781,32.189,0
0.782,16.076,0
0.783,19.006,0
0.784,5.639,0
0.785,-6.446,0
0.786,-8.643,0
0.787,-10.657,0
0.788,-27.137,0
0.789,-29.334,0
0.79,-27.32,0
0.791,-32.813,0
0.792,-41.053,0
0.793,-48.56,0
0.794,-47.279,0
0.795,-48.377,0
0.796,-42.701,0
0.797,-51.856,0
0.798,-52.955,0
0.799,-60.828,0
0.8,-67.786,0
0.801,-68.702,0
0.802,-76.209,0
0.803,-79.139,0
0.804,-74.561,0
0.805,-72.181,0
0.806,-66.871,0
0.807,-62.293,0
0.808,-61.744,0
0.809,-53.321,0
0.81,-44.898,0
0.811,-45.997,0
0.812,-36.842,0
0.813,-33.363,0
0.814,-27.686,0
0.815,-24.757,0
0.816,-23.109,0
0.817,-18.531,0
0.818,-6.08,0
0.819,6.738,0
0.82,28.344,0
0.821,37.133,0
0.822,45.007,0
0.823,57.092,0
0.824,54.894,0
0.825,56.908,0
0.826,29.443,0
0.827,-6.08,0
0.828,-29.884,0
0.829,-34.095,0
0.83,-37.94,0
0.831,-41.419,0
0.832,-44.532,0
0.833,-41.602,0
0.834,-33.729,0
0.835,-31.348,0
0.836,-29.151,0
0.837,-19.08,0
0.838,-17.249,0
0.839,-12.305,0
0.84,-7.911,0
0.841,-6.629,0
0.842,-3.15,0
0.843,2.526,0
0.844,7.47,0
0.845,8.385,0
0.846,7.653,0
0.847,11.498,0
0.848,17.724,0
0.849,15.344,0
0.85,14.611,0
0.851,12.78,0
0.852,18.456,0
0.853,17.724,0
0.854,18.273,0
0.855,15.16,0
0.856,16.808,0
0.857,13.512,0
0.858,16.625,0
0.859,15.527,0
0.86,13.696,0
0.861,11.132,0
0.862,11.315,0
0.863,12.048,0
0.864,9.118,0
0.865,11.681,0
0.866,10.583,0
0.867,9.85,0
0.868,8.385,0
0.869,7.653,0
0.87,11.681,0
0.871,20.104,0
0.872,38.598,0
0.873,68.078,0
0.874,71.923,0
0.875,47.021,0
0.876,11.315,0
0.877,-12.489,0
0.878,-25.306,0
0.879,-37.025,0
0.88,-40.504,0
0.881,-37.391,0
0.882,-40.321,0
0.883,-32.447,0
0.884,-34.827,0
0.885,-32.63,0
0.886,-22.559,0
0.887,-17.066,0
0.888,-12.122,0
0.889,-7.728,0
0.89,-6.446,0
0.891,-2.967,0
0.892,-4.066,0
0.893,-1.136,0
0.894,-0.22,0
0.895,-2.601,0
0.896,2.709,0
0.897,3.259,0
0.898,5.09,0
0.899,6.738,0
0.9,10.033,0
0.901,6.921,0
0.902,2.343,0
0.903,-0.77,0
0.904,3.075,0
0.905,4.357,0
0.906,4.723,0
0.907,5.822,0
0.908,7.653,0
0.909,5.09,0
0.91,5.273,0
0.911,6.005,0
0.912,8.385,0
0.913,5.09,0
0.914,1.977,0
0.915,0.878,0
0.916,1.244,0
0.917,2.343,0
0.918,2.526,0
0.919,3.259,0
0.92,7.47,0
0.921,16.991,0
0.922,37.499,0
0.923,64.233,0
0.924,53.613,0
0.925,17.907,0
0.926,-5.897,0
0.927,-18.714,0
0.928,-22.559,0
0.929,-26.038,0
0.93,-22.926,0
0.931,-25.855,0
0.932,-28.419,0
0.933,-21.278,0
0.934,-14.686,0
0.935,-16.7,0
0.936,-14.869,0
0.937,-9.925,0
0.938,-5.531,0
0.939,-6.812,0
0.94,-0.77,0
0.941,-4.066,0
0.942,-6.995,0
0.943,-11.573,0
0.944,-15.601,0
0.945,-4.066,0
0.946,-5.714,0
0.947,-7.178,0
0.948,-3.15,0
0.949,-2.052,0
0.95,-0.953,0
0.951,-0.037,0
0.952,6.371,0
0.953,3.991,0
0.954,1.794,0
0.955,6.371,0
0.956,13.329,0
0.957,10.583,0
0.958,11.315,0
0.959,4.357,0
0.96,5.273,0
0.961,4.54,0
0.962,5.273,0
0.963,5.822,0
0.964,6.371,0
0.965,1.244,0
0.966,5.822,0
0.967,7.653,0
0.968,4.906,0
0.969,1.794,0
0.97,7.287,0
0.971,15.71,0
0.972,30.541,0
0.973,12.414,0
0.974,10.033,0
0.975,25.414,0
0.976,39.513,0
0.977,59.655,0
0.978,40.978,0
0.979,14.245,0
0.98,-10.657,0
0.981,-26.771,0
0.982,-41.602,0
0.983,-39.039,0
0.984,-41.419,0
0.985,-39.222,0
0.986,-37.208,0
0.987,-35.377,0
0.988,-30.433,0
0.989,-26.038,0
0.99,-13.77,0
0.991,-15.418,0
0.992,-11.024,0
0.993,-9.742,0
0.994,-3.699,0
0.995,-2.601,0
0.996,2.343,0
0.997,-2.235,0
0.998,0.146,0
0.999,3.991,0
1,11.498,0
1.001,6.554,0
1.002,12.963,0
1.003,8.935,0
1.004,12.78,0
1.005,9.484,0
1.006,5.09,0
1.007,6.738,0
1.008,8.019,0
1.009,3.808,0
1.01,1.061,0
1.011,6.554,0
1.012,10.4,0
1.013,5.822,0
1.014,2.709,0
1.015,3.259,0
1.016,6.554,0
1.017,8.752,0
1.018,6.005,0
1.019,7.104,0
1.02,5.456,0
1.021,8.752,0
1.022,14.977,0
1.023,28.893,0
1.024,42.992,0
1.025,66.796,0
1.026,50.683,0
1.027,23.949,0
1.028,-0.953,0
1.029,-10.474,0
1.03,-31.165,0
1.031,-33.729,0
1.032,-36.109,0
1.033,-29.517,0
1.034,-27.503,0
1.035,-29.334,0
1.036,-21.094,0
1.037,-16.7,0
1.038,-15.418,0
1.039,-18.897,0
1.04,-15.601,0
1.041,-12.672,0
1.042,-11.756,0
1.043,-9.376,0
1.044,-5.531,0
1.045,-4.981,0
1.046,-3.15,0
1.047,-5.897,0
1.048,0.695,0
1.049,1.611,0
1.05,9.118,0
1.051,4.174,0
1.052,10.583,0
1.053,4.906,0
1.054,5.639,0
1.055,2.343,0
1.056,6.738,0
1.057,6.188,0
1.058,8.569,0
1.059,2.526,0
1.06,4.906,0
1.061,5.639,0
1.062,7.47,0
1.063,4.357,0
1.064,4.906,0
1.065,3.625,0
1.066,6.738,0
1.067,2.892,0
1.068,4.174,0
1.069,3.808,0
1.07,5.822,0
1.071,3.259,0
1.072,5.09,0
1.073,10.583,0
1.074,17.541,0
1.075,31.457,0
1.076,49.584,0
1.077,51.965,0
1.078,54.162,0
1.079,48.119,0
1.08,38.964,0
1.081,14.062,0
1.082,-18.165,0
1.083,-30.982,0
1.084,-42.701,0
1.085,-46.18,0
1.086,-43.067,0
1.087,-45.997,0
1.088,-43.433,0
1.089,-36.292,0
1.09,-34.095,0
1.091,-28.052,0
1.092,-26.221,0
1.093,-27.869,0
1.094,-20.362,0
1.095,-13.587,0
1.096,-10.108,0
1.097,-6.812,0
1.098,-1.868,0
1.099,2.709,0
1.1,3.442,0
1.101,4.174,0
1.102,2.343,0
1.103,6.738,0
1.104,6.188,0
1.105,6.554,0
1.106,6.188,0
1.107,6.554,0
1.108,7.653,0
1.109,6.554,0
1.11,5.822,0
1.111,6.005,0
1.112,6.738,0
1.113,6.188,0
1.114,7.653,0
1.115,6.738,0
1.116,7.653,0
1.117,9.667,0
1.118,5.639,0
1.119,6.005,0
1.12,3.808,0
1.121,6.554,0
1.122,10.583,0
1.123,8.752,0
1.124,3.259,0
1.125,14.794,0
1.126,39.697,0
1.127,50.317,0
1.128,59.838,0
1.129,68.627,0
1.13,60.754,0
1.131,53.613,0
1.132,29.26,0
1.133,-13.038,0
1.134,-41.785,0
1.135,-46.912,0
1.136,-51.673,0
1.137,-55.885,0
1.138,-52.039,0
1.139,-48.56,0
1.14,-45.448,0
1.141,-36.658,0
1.142,-28.785,0
1.143,-31.165,0
1.144,-20.179,0
1.145,-18.165,0
1.146,-9.01,0
1.147,-10.657,0
1.148,-9.193,0
1.149,-7.911,0
1.15,-4.432,0
1.151,3.442,0
1.152,0.512,0
1.153,5.09,0
1.154,5.822,0
1.155,8.019,0
1.156,7.47,0
1.157,5.639,0
1.158,2.892,0
1.159,6.188,0
1.16,8.385,0
1.161,9.484,0
1.162,6.005,0
1.163,4.723,0
1.164,3.625,0
1.165,1.061,0
1.166,6.554,0
1.167,8.752,0
1.168,8.202,0
1.169,6.371,0
1.17,12.597,0
1.171,10.217,0
1.172,10.949,0
1.173,12.78,0
1.174,13.329,0
1.175,19.006,0
1.176,18.273,0
1.177,28.527,0
1.178,51.049,0
1.179,60.571,0
1.18,27.978,0
1.181,6.371,0
1.182,-13.221,0
1.183,-23.841,0
1.184,-33.363,0
1.185,-30.433,0
1.186,-27.869,0
1.187,-30.25,0
1.188,-28.052,0
1.189,-22.01,0
1.19,-23.841,0
1.191,-22.193,0
1.192,-17.799,0
1.193,-13.77,0
1.194,-14.869,0
1.195,-9.193,0
1.196,-6.263,0
1.197,-1.685,0
1.198,-2.418,0
1.199,1.427,0
1.2,-0.404,0
1.201,1.427,0
1.202,6.554,0
1.203,7.104,0
1.204,11.498,0
1.205,9.85,0
1.206,3.259,0
1.207,0.512,0
1.208,4.54,0
1.209,3.808,0
1.21,0.512,0
1.211,-0.037,0
1.212,2.709,0
1.213,6.005,0
1.214,6.371,0
1.215,4.357,0
1.216,6.921,0
1.217,12.414,0
1.218,23.949,0
1.219,19.006,0
1.22,8.569,0
1.221,1.794,0
1.222,-6.629,0
1.223,-9.925,0
1.224,-4.066,0
1.225,-6.995,0
1.226,-0.587,0
1.227,11.865,0
1.228,35.668,0
1.229,64.965,0
1.23,68.81,0
1.231,43.908,0
1.232,8.202,0
1.233,-15.601,0
1.234,-28.419,0
1.235,-32.264,0
1.236,-35.743,0
1.237,-32.63,0
1.238,-29.7,0
1.239,-27.137,0
1.24,-29.517,0
1.241,-22.926,0
1.242,-16.883,0
1.243,-15.052,0
1.244,-16.7,0
1.245,-9.193,0
1.246,-7.911,0
1.247,-6.812,0
1.248,-7.911,0
1.249,-6.995,0
1.25,-2.418,0
1.251,1.611,0
1.252,2.343,0
1.253,0.512,0
1.254,2.343,0
1.255,0.695,0
1.256,7.287,0
1.257,6.371,0
1.258,10.4,0
1.259,9.667,0
1.26,7.836,0
1.261,7.287,0
1.262,4.54,0
1.263,4.906,0
1.264,0.695,0
1.265,2.343,0
1.266,2.709,0
1.267,1.427,0
1.268,-0.587,0
1.269,2.892,0
1.27,1.611,0
1.271,1.977,0
1.272,6.921,0
1.273,3.625,0
1.274,6.738,0
1.275,4.723,0
1.276,1.977,0
1.277,9.484,0
1.278,19.738,0
1.279,40.246,0
1.28,60.937,0
1.281,74.303,0
1.282,52.331,0
1.283,13.696,0
1.284,-1.868,0
1.285,-16.151,0
1.286,-28.968,0
1.287,-32.813,0
1.288,-36.292,0
1.289,-39.405,0
1.29,-30.616,0
1.291,-28.052,0
1.292,-25.672,0
1.293,-23.475,0
1.294,-25.489,0
1.295,-16.334,0
1.296,-11.39,0
1.297,-9.925,0
1.298,-3.15,0
1.299,-4.249,0
1.3,-5.347,0
1.301,-0.404,0
1.302,2.343,0
1.303,8.019,0
1.304,5.822,0
1.305,3.991,0
1.306,8.385,0
1.307,6.738,0
1.308,3.442,0
1.309,2.16,0
1.31,4.906,0
1.311,3.808,0
1.312,5.639,0
1.313,8.385,0
1.314,8.752,0
1.315,6.921,0
1.316,3.625,0
1.317,-1.502,0
1.318,3.075,0
1.319,4.906,0
1.32,2.16,0
1.321,4.54,0
1.322,7.653,0
1.323,3.808,0
1.324,6.188,0
1.325,3.075,0
1.326,2.526,0
1.327,1.427,0
1.328,7.104,0
1.329,19.555,0
1.33,47.021,0
1.331,66.613,0
1.332,77.233,0
1.333,41.528,0
1.334,8.202,0
1.335,-13.404,0
1.336,-17.249,0
1.337,-27.869,0
1.338,-30.982,0
1.339,-33.912,0
1.34,-36.475,0
1.341,-34.095,0
1.342,-31.898,0
1.343,-29.884,0
1.344,-28.052,0
1.345,-23.109,0
1.346,-18.714,0
1.347,-14.686,0
1.348,-11.207,0
1.349,-7.911,0
1.35,-6.995,0
1.351,-2.418,0
1.352,-0.037,0
1.353,2.16,0
1.354,0.329,0
1.355,2.16,0
1.356,4.906,0
1.357,4.54,0
1.358,1.427,0
1.359,1.061,0
1.36,3.625,0
1.361,3.259,0
1.362,6.554,0
1.363,6.188,0
1.364,8.935,0
1.365,7.836,0
1.366,4.54,0
1.367,5.639,0
1.368,3.075,0
1.369,5.639,0
1.37,7.104,0
1.371,8.385,0
1.372,9.118,0
1.373,8.569,0
1.374,5.273,0
1.375,0.146,0
1.376,3.442,0
1.377,2.526,0
1.378,3.075,0
1.379,10.4,0
1.38,21.569,0
1.381,41.161,0
1.382,49.035,0
1.383,56.176,0
1.384,58.373,0
1.385,68.444,0
1.386,48.302,0
1.387,13.329,0
1.388,-19.996,0
1.389,-32.813,0
1.39,-44.532,0
1.391,-48.011,0
1.392,-51.124,0
1.393,-48.194,0
1.394,-45.631,0
1.395,-43.25,0
1.396,-36.658,0
1.397,-30.616,0
1.398,-25.123,0
1.399,-23.475,0
1.4,-19.08,0
1.401,-15.052,0
1.402,-9.01,0
1.403,-7.911,0
1.404,-2.967,0
1.405,1.611,0
1.406,-0.77,0
1.407,1.427,0
1.408,6.005,0
1.409,2.892,0
1.41,6.738,0
1.411,9.118,0
1.412,6.005,0
1.413,8.752,0
1.414,6.188,0
1.415,8.019,0
1.416,12.597,0
1.417,5.09,0
1.418,8.019,0
1.419,10.766,0
1.42,10.033,0
1.421,9.301,0
1.422,8.752,0
1.423,11.865,0
1.424,9.118,0
1.425,8.752,0
1.426,7.47,0
1.427,8.569,0
1.428,5.456,0
1.429,1.244,0
1.43,5.09,0
1.431,12.597,0
1.432,29.626,0
1.433,61.303,0
1.434,74.12,0
1.435,46.655,0
1.436,14.428,0
1.437,-7.178,0
1.438,-18.897,0
1.439,-29.517,0
1.44,-26.405,0
1.441,-29.334,0
1.442,-31.898,0
1.443,-34.278,0
1.444,-27.686,0
1.445,-25.672,0
1.446,-20.179,0
1.447,-18.531,0
1.448,-14.136,0
1.449,-10.108,0
1.45,-11.207,0
1.451,-7.911,0
1.452,-4.981,0
1.453,3.442,0
1.454,2.343,0
1.455,5.273,0
1.456,6.188,0
1.457,8.569,0
1.458,10.766,0
1.459,8.935,0
1.46,5.822,0
1.461,8.569,0
1.462,15.16,0
1.463,29.076,0
1.464,31.091,0
1.465,10.949,0
1.466,3.075,0
1.467,-9.01,0
1.468,-2.418,0
1.469,-4.432,0
1.47,-6.263,0
1.471,-7.911,0
1.472,-6.446,0
1.473,-7.728,0
1.474,-6.629,0
1.475,-5.531,0
1.476,-2.601,0
1.477,-5.347,0
1.478,-6.08,0
1.479,-4.066,0
1.48,-1.868,0
1.481,2.709,0
1.482,12.231,0
1.483,32.739,0
1.484,71.374,0
1.485,76.501,0
1.486,52.697,0
1.487,13.696,0
1.488,-12.489,0
1.489,-17.249,0
1.49,-30.067,0
1.491,-33.912,0
1.492,-37.391,0
1.493,-34.278,0
1.494,-31.348,0
1.495,-28.785,0
1.496,-26.405,0
1.497,-19.813,0
1.498,-17.799,0
1.499,-19.63,0
1.5,-11.39,0
1.501,-9.925,0
1.502,-5.897,0
1.503,-2.418,0
1.504,-3.516,0
1.505,1.427,0
1.506,4.174,0
1.507,3.442,0
1.508,-0.404,0
1.509,4.174,0
1.51,1.061,0
1.511,4.906,0
1.512,4.54,0
1.513,5.822,0
1.514,3.808,0
1.515,0.329,0
1.516,1.611,0
1.517,4.357,0
1.518,2.526,0
1.519,4.357,0
1.52,3.625,0
1.521,6.738,0
1.522,7.104,0
1.523,5.273,0
1.524,5.639,0
1.525,6.371,0
1.526,8.202,0
1.527,4.723,0
1.528,1.611,0
1.529,-1.136,0
1.53,0.329,0
1.531,4.54,0
1.532,12.963,0
1.533,21.386,0
1.534,38.415,0
1.535,55.26,0
1.536,66.247,0
1.537,56.176,0
1.538,28.71,0
1.539,-6.812,0
1.54,-21.094,0
1.541,-25.306,0
1.542,-29.151,0
1.543,-25.672,0
1.544,-28.785,0
1.545,-19.996,0
1.546,-17.432,0
1.547,-10.291,0
1.548,-3.699,0
1.549,-1.685,0
1.55,3.808,0
1.551,8.752,0
1.552,13.146,0
1.553,11.865,0
1.554,15.344,0
1.555,14.245,0
1.556,7.287,0
1.557,-6.629,0
1.558,-16.7,0
1.559,-22.193,0
1.56,-30.433,0
1.561,-40.87,0
1.562,-42.152,0
1.563,-33.729,0
1.564,-25.855,0
1.565,-16.7,0
1.566,-17.799,0
1.567,-28.052,0
1.568,-48.56,0
1.569,-63.392,0
1.57,-76.759,0
1.571,-83.9,0
1.572,-94.886,0
1.573,-108.98,0
1.574,-110.82,0
1.575,-125.83,0
1.576,-119.79,0
1.577,-121.62,0
1.578,-106.61,0
1.579,-80.421,0
1.58,-26.771,0
1.581,72.839,0
1.582,126.67,0
1.583,161.65,0
1.584,167.87,0
1.585,173.55,0
1.586,168.42,0
1.587,106.35,0
1.588,81.078,0
1.589,42.626,0
1.59,35.668,0
1.591,41.894,0
1.592,82.177,0
1.593,77.05,0
1.594,91.332,0
1.595,87.121,0
1.596,83.276,0
1.597,79.797,0
1.598,89.318,0
1.599,98.107,0
1.6,90.234,0
1.601,68.261,0
1.602,47.57,0
1.603,39.697,0
1.604,32.555,0
1.605,39.147,0
1.606,37.133,0
1.607,31.64,0
1.608,23.4,0
1.609,12.963,0
1.61,0.695,0
1.611,-7.545,0
1.612,-9.01,0
1.613,-7.728,0
1.614,-21.278,0
1.615,-30.433,0
1.616,-35.377,0
1.617,-33.912,0
1.618,-29.884,0
1.619,-33.363,0
1.62,-39.039,0
1.621,-39.954,0
1.622,-46.363,0
1.623,-52.039,0
1.624,-57.349,0
1.625,-67.603,0
1.626,-66.138,0
1.627,-67.42,0
1.628,-68.519,0
1.629,-65.223,0
1.63,-58.265,0
1.631,-53.687,0
1.632,-50.208,0
1.633,-47.828,0
1.634,-36.292,0
1.635,-11.39,0
1.636,20.837,0
1.637,42.443,0
1.638,22.851,0
1.639,-9.376,0
1.64,-22.193,0
1.641,-33.912,0
1.642,-37.391,0
1.643,-40.504,0
1.644,-37.574,0
1.645,-35.01,0
1.646,-27.869,0
1.647,-25.672,0
1.648,-23.658,0
1.649,-21.827,0
1.65,-16.883,0
1.651,-9.376,0
1.652,-10.657,0
1.653,-2.235,0
1.654,1.061,0
1.655,1.977,0
1.656,2.892,0
1.657,6.921,0
1.658,7.653,0
1.659,8.202,0
1.66,10.033,0
1.661,9.484,0
1.662,9.85,0
1.663,9.484,0
1.664,11.498,0
1.665,14.062,0
1.666,10.766,0
1.667,8.752,0
1.668,12.231,0
1.669,9.118,0
1.67,8.019,0
1.671,13.696,0
1.672,11.315,0
1.673,9.118,0
1.674,9.667,0
1.675,6.554,0
1.676,8.202,0
1.677,9.484,0
1.678,7.287,0
1.679,7.653,0
1.68,5.09,0
1.681,3.991,0
1.682,8.569,0
1.683,6.188,0
1.684,6.738,0
1.685,16.259,0
1.686,20.287,0
1.687,38.781,0
1.688,73.754,0
1.689,59.472,0
1.69,20.47,0
1.691,4.906,0
1.692,-9.376,0
1.693,-13.587,0
1.694,-25.306,0
1.695,-21.827,0
1.696,-24.94,0
1.697,-27.869,0
1.698,-25.306,0
1.699,-22.926,0
1.7,-16.334,0
1.701,-10.291,0
1.702,-8.46,0
1.703,-10.108,0
1.704,-8.643,0
1.705,-9.925,0
1.706,-6.446,0
1.707,-0.77,0
1.708,10.4,0
1.709,20.837,0
1.71,22.118,0
1.711,8.569,0
1.712,3.075,0
1.713,-1.868,0
1.714,-3.333,0
1.715,-2.052,0
1.716,-5.531,0
1.717,-4.432,0
1.718,-1.502,0
1.719,-0.587,0
1.72,-1.319,0
1.721,-0.587,0
1.722,-2.418,0
1.723,-1.868,0
1.724,1.977,0
1.725,1.611,0
1.726,-1.502,0
1.727,0.512,0
1.728,3.075,0
1.729,4.906,0
1.73,7.653,0
1.731,2.709,0
1.732,3.259,0
1.733,6.371,0
1.734,6.921,0
1.735,7.47,0
1.736,14.062,0
1.737,20.47,0
1.738,32.922,0
1.739,60.387,0
1.74,64.233,0
1.741,39.33,0
1.742,10.033,0
1.743,-9.559,0
1.744,-20.179,0
1.745,-29.7,0
1.746,-26.771,0
1.747,-29.334,0
1.748,-31.715,0
1.749,-29.517,0
1.75,-23.475,0
1.751,-21.644,0
1.752,-16.7,0
1.753,-15.235,0
1.754,-16.517,0
1.755,-10.474,0
1.756,-7.178,0
1.757,-6.263,0
1.758,-3.516,0
1.759,-7.545,0
1.76,-0.587,0
1.761,0.329,0
1.762,-0.404,0
1.763,-2.601,0
1.764,1.977,0
1.765,5.09,0
1.766,3.442,0
1.767,1.061,0
1.768,-0.22,0
1.769,-0.587,0
1.77,2.892,0
1.771,5.09,0
1.772,4.723,0
1.773,5.09,0
1.774,6.921,0
1.775,4.906,0
1.776,7.47,0
1.777,8.569,0
1.778,3.991,0
1.779,2.16,0
1.78,1.611,0
1.781,4.357,0
1.782,3.075,0
1.783,3.442,0
1.784,5.456,0
1.785,3.259,0
1.786,4.357,0
1.787,8.385,0
1.788,8.752,0
1.789,15.71,0
1.79,30.907,0
1.791,55.26,0
1.792,19.555,0
1.793,5.273,0
1.794,-7.545,0
1.795,-19.263,0
1.796,-29.884,0
1.797,-32.996,0
1.798,-30.067,0
1.799,-27.503,0
1.8,-20.362,0
1.801,-22.559,0
1.802,-16.517,0
1.803,-18.348,0
1.804,-13.404,0
1.805,-11.939,0
1.806,-13.221,0
1.807,-7.178,0
1.808,-3.883,0
1.809,-2.967,0
1.81,-2.052,0
1.811,0.329,0
1.812,-1.868,0
1.813,2.709,0
1.814,3.259,0
1.815,4.906,0
1.816,9.484,0
1.817,5.09,0
1.818,7.836,0
1.819,7.47,0
1.82,5.273,0
1.821,7.287,0
1.822,9.85,0
1.823,8.752,0
1.824,8.935,0
1.825,5.273,0
1.826,2.892,0
1.827,5.09,0
1.828,2.343,0
1.829,1.244,0
1.83,0.146,0
1.831,2.16,0
1.832,0.878,0
1.833,2.709,0
1.834,0.146,0
1.835,1.977,0
1.836,-2.601,0
1.837,1.977,0
1.838,12.231,0
1.839,22.668,0
1.84,40.429,0
1.841,52.514,0
1.842,72.472,0
1.843,48.302,0
1.844,19.006,0
1.845,-8.46,0
1.846,-19.08,0
1.847,-28.602,0
1.848,-31.531,0
1.849,-34.095,0
1.85,-36.475,0
1.851,-34.278,0
1.852,-32.264,0
1.853,-26.771,0
1.854,-21.827,0
1.855,-20.362,0
1.856,-16.334,0
1.857,-12.855,0
1.858,-11.756,0
1.859,-10.841,0
1.86,-8.094,0
1.861,-8.826,0
1.862,-1.868,0
1.863,-4.615,0
1.864,-0.587,0
1.865,1.611,0
1.866,2.16,0
1.867,-3.516,0
1.868,1.794,0
1.869,5.09,0
1.87,3.259,0
1.871,3.808,0
1.872,7.104,0
1.873,5.822,0
1.874,9.667,0
1.875,6.371,0
1.876,7.653,0
1.877,6.554,0
1.878,7.653,0
1.879,10.949,0
1.88,7.104,0
1.881,3.808,0
1.882,0.695,0
1.883,3.442,0
1.884,4.54,0
1.885,1.977,0
1.886,4.723,0
1.887,2.526,0
1.888,5.09,0
1.889,10.583,0
1.89,22.118,0
1.891,37.133,0
1.892,59.289,0
1.893,74.12,0
1.894,49.95,0
1.895,20.654,0
1.896,-14.869,0
1.897,-29.151,0
1.898,-33.363,0
1.899,-37.208,0
1.9,-33.729,0
1.901,-36.842,0
1.902,-33.912,0
1.903,-31.348,0
1.904,-24.207,0
1.905,-22.01,0
1.906,-15.968,0
1.907,-14.136,0
1.908,-9.193,0
1.909,-7.728,0
1.91,-9.01,0
1.911,-12.489,0
1.912,-6.812,0
1.913,-7.728,0
1.914,-6.812,0
1.915,-2.784,0
1.916,-0.587,0
1.917,1.244,0
1.918,4.357,0
1.919,7.104,0
1.92,5.822,0
1.921,4.54,0
1.922,4.174,0
1.923,7.653,0
1.924,8.935,0
1.925,8.569,0
1.926,8.935,0
1.927,8.569,0
1.928,6.554,0
1.929,2.343,0
1.93,8.019,0
1.931,5.822,0
1.932,3.991,0
1.933,5.822,0
1.934,6.371,0
1.935,3.075,0
1.936,-0.037,0
1.937,2.709,0
1.938,1.794,0
1.939,2.892,0
1.94,8.385,0
1.941,19.921,0
1.942,44.823,0
1.943,69.726,0
1.944,47.204,0
1.945,14.611,0
1.946,-6.995,0
1.947,-18.714,0
1.948,-22.193,0
1.949,-25.306,0
1.95,-28.236,0
1.951,-25.672,0
1.952,-23.292,0
1.953,-16.7,0
1.954,1.427,0
1.955,13.512,0
1.956,2.526,0
1.957,-7.545,0
1.958,-13.038,0
1.959,-17.982,0
1.96,-13.587,0
1.961,-14.869,0
1.962,-15.968,0
1.963,-12.672,0
1.964,-11.756,0
1.965,-7.178,0
1.966,-7.911,0
1.967,-8.643,0
1.968,-6.812,0
1.969,-2.418,0
1.97,2.709,0
1.971,0.878,0
1.972,1.427,0
1.973,5.273,0
1.974,3.991,0
1.975,1.794,0
1.976,3.808,0
1.977,5.639,0
1.978,5.273,0
1.979,5.456,0
1.98,8.569,0
1.981,6.554,0
1.982,5.456,0
1.983,3.625,0
1.984,1.611,0
1.985,4.174,0
1.986,0.878,0
1.987,4.723,0
1.988,5.09,0
1.989,6.188,0
1.99,1.061,0
1.991,7.287,0
1.992,19.738,0
1.993,39.88,0
1.994,53.246,0
1.995,75.219,0
1.996,66.43,0
1.997,26.147,0
1.998,-2.601,0
1.999,-18.165,0
2,-32.447,0
2.001,-28.236,0
2.002,-39.954,0
2.003,-36.475,0
2.004,-33.363,0
2.005,-36.292,0
2.006,-28.419,0
2.007,-26.038,0
2.008,-19.447,0
2.009,-21.461,0
2.01,-15.968,0
2.011,-11.024,0
2.012,-9.559,0
2.013,-8.277,0
2.014,-4.798,0
2.015,-3.699,0
2.016,-0.77,0
2.017,0.146,0
2.018,2.526,0
2.019,4.723,0
2.02,9.301,0
2.021,6.188,0
2.022,8.935,0
2.023,6.554,0
2.024,8.752,0
2.025,8.385,0
2.026,6.554,0
2.027,5.456,0
2.028,8.752,0
2.029,4.54,0
2.03,3.991,0
2.031,4.357,0
2.032,3.991,0
2.033,2.892,0
2.034,1.794,0
2.035,5.822,0
2.036,3.442,0
2.037,3.808,0
2.038,2.709,0
2.039,4.54,0
2.04,3.991,0
2.041,6.554,0
2.042,11.132,0
2.043,21.386,0
2.044,43.908,0
2.045,73.205,0
2.046,53.613,0
2.047,28.71,0
2.048,-0.587,0
2.049,-12.305,0
2.05,-22.926,0
2.051,-26.038,0
2.052,-28.968,0
2.053,-26.405,0
2.054,-28.785,0
2.055,-30.982,0
2.056,-24.94,0
2.057,-19.447,0
2.058,-21.094,0
2.059,-19.63,0
2.06,-15.601,0
2.061,-12.122,0
2.062,-8.826,0
2.063,-7.911,0
2.064,-6.995,0
2.065,-2.967,0
2.066,-3.699,0
2.067,-0.404,0
2.068,0.146,0
2.069,-2.601,0
2.07,3.991,0
2.071,6.738,0
2.072,9.118,0
2.073,9.85,0
2.074,6.554,0
2.075,4.723,0
2.076,5.273,0
2.077,3.991,0
2.078,4.357,0
2.079,3.991,0
2.08,5.09,0
2.081,6.921,0
2.082,6.188,0
2.083,3.075,0
2.084,5.822,0
2.085,3.259,0
2.086,5.09,0
2.087,3.075,0
2.088,3.259,0
2.089,6.188,0
2.09,3.625,0
2.091,3.991,0
2.092,2.16,0
2.093,-1.868,0
2.094,6.554,0
2.095,25.048,0
2.096,49.218,0
2.097,52.331,0
2.098,67.162,0
2.099,59.289,0
2.1,27.612,0
2.101,-2.601,0
2.102,-22.193,0
2.103,-39.954,0
2.104,-36.842,0
2.105,-45.631,0
2.106,-37.757,0
2.107,-40.137,0
2.108,-42.335,0
2.109,-32.264,0
2.11,-30.433,0
2.111,-28.785,0
2.112,-24.39,0
2.113,-23.109,0
2.114,-17.066,0
2.115,-11.39,0
2.116,-6.446,0
2.117,-3.699,0
2.118,-1.319,0
2.119,0.878,0
2.12,2.709,0
2.121,4.54,0
2.122,6.188,0
2.123,5.822,0
2.124,7.104,0
2.125,4.357,0
2.126,5.456,0
2.127,8.019,0
2.128,7.836,0
2.129,7.104,0
2.13,5.273,0
2.131,6.738,0
2.132,8.202,0
2.133,9.118,0
2.134,10.033,0
2.135,8.019,0
2.136,6.921,0
2.137,8.385,0
2.138,8.569,0
2.139,6.188,0
2.14,8.202,0
2.141,5.639,0
2.142,3.259,0
2.143,5.822,0
2.144,10.4,0
2.145,20.654,0
2.146,43.176,0
2.147,52.697,0
2.148,73.388,0
2.149,65.514,0
2.15,29.076,0
2.151,2.892,0
2.152,-20.911,0
2.153,-33.729,0
2.154,-37.574,0
2.155,-34.095,0
2.156,-37.208,0
2.157,-34.278,0
2.158,-31.715,0
2.159,-29.334,0
2.16,-27.137,0
2.161,-25.123,0
2.162,-19.63,0
2.163,-17.982,0
2.164,-13.587,0
2.165,-14.869,0
2.166,-11.39,0
2.167,-8.094,0
2.168,-3.15,0
2.169,-2.235,0
2.17,1.794,0
2.171,-0.404,0
2.172,4.174,0
2.173,-0.22,0
2.174,4.906,0
2.175,5.456,0
2.176,3.625,0
2.177,5.273,0
2.178,8.569,0
2.179,7.287,0
2.18,6.188,0
2.181,8.752,0
2.182,5.456,0
2.183,6.554,0
2.184,6.188,0
2.185,8.752,0
2.186,6.005,0
2.187,6.371,0
2.188,6.738,0
2.189,6.921,0
2.19,2.709,0
2.191,2.16,0
2.192,-2.967,0
2.193,-3.333,0
2.194,2.892,0
2.195,0.512,0
2.196,2.709,0
2.197,2.16,0
2.198,3.991,0
2.199,12.414,0
2.2,28.527,0
2.201,35.119,0
2.202,16.991,0
2.203,19.372,0
2.204,21.569,0
2.205,39.697,0
2.206,42.077,0
2.207,48.669,0
2.208,42.626,0
2.209,37.133,0
2.21,28.893,0
2.211,15.344,0
2.212,31.823,0
2.213,34.02,0
2.214,7.836,0
2.215,-24.39,0
2.216,-54.603,0
2.217,-66.322,0
2.218,-69.801,0
2.219,-66.688,0
2.22,-63.758,0
2.221,-55.885,0
2.222,-53.504,0
2.223,-46.912,0
2.224,-40.87,0
2.225,-35.377,0
2.226,-30.433,0
2.227,-26.038,0
2.228,-16.517,0
2.229,-15.418,0
2.23,-9.742,0
2.231,-4.798,0
2.232,-3.883,0
2.233,-1.502,0
2.234,3.808,0
2.235,7.104,0
2.236,8.935,0
2.237,8.385,0
2.238,10.766,0
2.239,12.048,0
2.24,14.062,0
2.241,12.231,0
2.242,11.132,0
2.243,11.315,0
2.244,9.85,0
2.245,11.681,0
2.246,15.71,0
2.247,24.133,0
2.248,42.626,0
2.249,82.909,0
2.25,54.162,0
2.251,27.978,0
2.252,4.174,0
2.253,-8.643,0
2.254,-20.362,0
2.255,-16.883,0
2.256,-19.996,0
2.257,-17.066,0
2.258,-19.63,0
2.259,-17.249,0
2.26,-15.052,0
2.261,-13.038,0
2.262,-11.207,0
2.263,-12.855,0
2.264,-5.347,0
2.265,-6.629,0
2.266,-3.15,0
2.267,0.146,0
2.268,-0.77,0
2.269,0.146,0
2.27,0.878,0
2.271,1.611,0
2.272,4.906,0
2.273,3.075,0
2.274,3.625,0
2.275,2.343,0
2.276,3.625,0
2.277,3.259,0
2.278,1.427,0
2.279,6.921,0
2.28,4.723,0
2.281,4.174,0
2.282,4.723,0
2.283,4.174,0
2.284,5.456,0
2.285,5.09,0
2.286,7.104,0
2.287,7.47,0
2.288,6.371,0
2.289,3.075,0
2.29,6.188,0
2.291,2.343,0
2.292,1.061,0
2.293,0.695,0
2.294,2.709,0
2.295,-1.868,0
2.296,-1.502,0
2.297,3.991,0
2.298,15.527,0
2.299,40.429,0
2.3,72.656,0
2.301,59.838,0
2.302,24.316,0
2.303,0.512,0
2.304,-12.305,0
2.305,-16.151,0
2.306,-19.63,0
2.307,-16.517,0
2.308,-19.447,0
2.309,-11.573,0
2.31,-9.193,0
2.311,1.794,0
2.312,3.808,0
2.313,1.977,0
2.314,0.329,0
2.315,1.794,0
2.316,3.075,0
2.317,-0.404,0
2.318,-6.08,0
2.319,-17.249,0
2.32,-21.644,0
2.321,-25.672,0
2.322,-31.715,0
2.323,-37.391,0
2.324,-38.306,0
2.325,-37.391,0
2.326,-31.715,0
2.327,-21.644,0
2.328,-9.376,0
2.329,-14.32,0
2.33,-30.799,0
2.331,-46.18,0
2.332,-60.279,0
2.333,-73.096,0
2.334,-97.999,0
2.335,-101.48,0
2.336,-98.365,0
2.337,-107.15,0
2.338,-104.59,0
2.339,-111.73,0
2.34,-96.351,0
2.341,-66.138,0
2.342,-1.136,0
2.343,82.909,0
2.344,116.6,0
2.345,126.86,0
2.346,126.31,0
2.347,116.97,0
2.348,125.39,0
2.349,86.938,0
2.35,93.896,0
2.351,100.12,0
2.352,82.909,0
2.353,56.725,0
2.354,42.443,0
2.355,55.26,0
2.356,51.415,0
2.357,54.894,0
2.358,51.781,0
2.359,60.571,0
2.36,58.007,0
2.361,70.092,0
2.362,67.895,0
2.363,69.909,0
2.364,49.767,0
2.365,31.091,0
2.366,23.949,0
2.367,21.752,0
2.368,31.823,0
2.369,40.978,0
2.37,32.739,0
2.371,25.231,0
2.372,21.203,0
2.373,15.16,0
2.374,7.287,0
2.375,0.329,0
2.376,4.906,0
2.377,-7.545,0
2.378,-20.362,0
2.379,-22.01,0
2.38,-23.475,0
2.381,-30.25,0
2.382,-29.151,0
2.383,-37.025,0
2.384,-37.94,0
2.385,-46.363,0
2.386,-49.659,0
2.387,-52.589,0
2.388,-57.166,0
2.389,-64.674,0
2.39,-63.758,0
2.391,-61.011,0
2.392,-55.335,0
2.393,-53.138,0
2.394,-52.589,0
2.395,-50.758,0
2.396,-44.532,0
2.397,-39.954,0
2.398,-32.447,0
2.399,-17.249,0
2.4,-1.868,0
2.401,28.344,0
2.402,49.95,0
2.403,22.485,0
2.404,-2.418,0
2.405,-18.531,0
2.406,-33.363,0
2.407,-30.799,0
2.408,-37.94,0
2.409,-35.743,0
2.41,-33.729,0
2.411,-28.236,0
2.412,-23.292,0
2.413,-18.897,0
2.414,-17.615,0
2.415,-11.573,0
2.416,-12.672,0
2.417,-7.728,0
2.418,-4.981,0
2.419,0.695,0
2.42,2.892,0
2.421,3.442,0
2.422,6.554,0
2.423,8.202,0
2.424,10.583,0
2.425,7.47,0
2.426,11.315,0
2.427,12.597,0
2.428,9.484,0
2.429,8.385,0
2.43,10.217,0
2.431,14.245,0
2.432,11.865,0
2.433,9.667,0
2.434,10.766,0
2.435,5.822,0
2.436,10.4,0
2.437,12.231,0
2.438,12.78,0
2.439,13.146,0
2.44,17.358,0
2.441,8.935,0
2.442,5.456,0
2.443,8.752,0
2.444,9.667,0
2.445,18.09,0
2.446,35.119,0
2.447,37.499,0
2.448,15.71,0
2.449,4.723,0
2.45,-1.319,0
2.451,-3.15,0
2.452,-4.798,0
2.453,17.724,0
2.454,60.021,0
2.455,54.345,0
2.456,17.724,0
2.457,-6.08,0
2.458,-18.897,0
2.459,-22.742,0
2.46,-26.221,0
2.461,-29.334,0
2.462,-26.405,0
2.463,-28.968,0
2.464,-26.588,0
2.465,-24.39,0
2.466,-22.376,0
2.467,-16.883,0
2.468,-11.939,0
2.469,-10.474,0
2.47,-9.193,0
2.471,-5.714,0
2.472,-4.615,0
2.473,0.329,0
2.474,1.244,0
2.475,1.977,0
2.476,4.174,0
2.477,4.723,0
2.478,4.174,0
2.479,3.625,0
2.48,4.906,0
2.481,5.273,0
2.482,6.371,0
2.483,5.273,0
2.484,6.371,0
2.485,7.836,0
2.486,7.653,0
2.487,6.371,0
2.488,4.906,0
2.489,5.456,0
2.49,2.526,0
2.491,3.625,0
2.492,4.723,0
2.493,5.09,0
2.494,9.667,0
2.495,6.371,0
2.496,5.822,0
2.497,1.977,0
2.498,3.259,0
2.499,0.329,0
2.5,2.526,0
2.501,8.752,0
2.502,17.175,0
2.503,34.203,0
2.504,70.641,0
2.505,55.077,0
2.506,21.752,0
2.507,0.146,0
2.508,-19.447,0
2.509,-30.067,0
2.51,-33.179,0
2.511,-30.25,0
2.512,-32.813,0
2.513,-30.433,0
2.514,-28.236,0
2.515,-26.221,0
2.516,-20.728,0
2.517,-15.784,0
2.518,-17.249,0
2.519,-10.474,0
2.52,-9.376,0
2.521,-6.08,0
2.522,-3.15,0
2.523,-4.066,0
2.524,-1.685,0
2.525,-2.418,0
2.526,0.878,0
2.527,1.427,0
2.528,3.075,0
2.529,1.794,0
2.53,-0.404,0
2.531,0.695,0
2.532,-2.784,0
2.533,-3.15,0
2.534,1.427,0
2.535,0.878,0
2.536,3.625,0
2.537,3.259,0
2.538,5.456,0
2.539,5.822,0
2.54,2.343,0
2.541,5.456,0
2.542,2.709,0
2.543,2.343,0
2.544,2.709,0
2.545,1.244,0
2.546,4.906,0
2.547,3.625,0
2.548,7.836,0
2.549,5.09,0
2.55,5.456,0
2.551,5.822,0
2.552,12.78,0
2.553,27.978,0
2.554,61.12,0
2.555,65.881,0
2.556,44.274,0
2.557,8.752,0
2.558,-5.531,0
2.559,-18.348,0
2.56,-22.193,0
2.561,-25.672,0
2.562,-28.785,0
2.563,-25.855,0
2.564,-23.292,0
2.565,-20.911,0
2.566,-18.714,0
2.567,-16.7,0
2.568,-14.869,0
2.569,-9.925,0
2.57,-5.531,0
2.571,-4.249,0
2.572,-3.15,0
2.573,-2.052,0
2.574,-1.136,0
2.575,1.611,0
2.576,2.343,0
2.577,3.075,0
2.578,4.906,0
2.579,6.738,0
2.58,5.09,0
2.581,2.709,0
2.582,3.991,0
2.583,2.892,0
2.584,4.723,0
2.585,2.892,0
2.586,7.47,0
2.587,4.174,0
2.588,8.569,0
2.589,5.822,0
2.59,5.456,0
2.591,4.174,0
2.592,2.16,0
2.593,2.526,0
2.594,3.625,0
2.595,-0.953,0
2.596,3.625,0
2.597,4.174,0
2.598,3.625,0
2.599,-0.953,0
2.6,-1.502,0
2.601,-2.601,0
2.602,1.244,0
2.603,8.752,0
2.604,19.006,0
2.605,39.513,0
2.606,66.247,0
2.607,69.726,0
2.608,40.429,0
2.609,4.906,0
2.61,-9.376,0
2.611,-22.193,0
2.612,-33.912,0
2.613,-37.391,0
2.614,-34.278,0
2.615,-31.348,0
2.616,-33.912,0
2.617,-31.531,0
2.618,-29.334,0
2.619,-27.32,0
2.62,-21.827,0
2.621,-20.179,0
2.622,-18.714,0
2.623,-9.193,0
2.624,-8.094,0
2.625,-6.995,0
2.626,-6.08,0
2.627,-3.333,0
2.628,-2.601,0
2.629,1.244,0
2.63,3.075,0
2.631,4.906,0
2.632,4.357,0
2.633,1.977,0
2.634,6.188,0
2.635,7.836,0
2.636,6.554,0
2.637,8.752,0
2.638,9.85,0
2.639,8.019,0
2.64,6.188,0
2.641,4.723,0
2.642,3.442,0
2.643,4.723,0
2.644,6.921,0
2.645,5.639,0
2.646,3.808,0
2.647,3.991,0
2.648,3.442,0
2.649,0.512,0
2.65,0.146,0
2.651,2.709,0
2.652,4.723,0
2.653,5.822,0
2.654,10.4,0
2.655,20.654,0
2.656,43.176,0
2.657,52.697,0
2.658,73.388,0
2.659,54.711,0
2.66,23.034,0
2.661,1.427,0
2.662,-18.165,0
2.663,-28.785,0
2.664,-38.306,0
2.665,-41.236,0
2.666,-38.673,0
2.667,-36.292,0
2.668,-29.7,0
2.669,-27.686,0
2.67,-22.193,0
2.671,-20.545,0
2.672,-19.08,0
2.673,-20.362,0
2.674,-16.883,0
2.675,-11.207,0
2.676,-6.263,0
2.677,-1.685,0
2.678,-2.418,0
2.679,-3.15,0
2.68,0.146,0
2.681,3.259,0
2.682,4.906,0
2.683,2.526,0
2.684,5.639,0
2.685,7.653,0
2.686,6.554,0
2.687,10.583,0
2.688,6.005,0
2.689,2.892,0
2.69,4.54,0
2.691,12.048,0
2.692,24.499,0
2.693,29.443,0
2.694,12.963,0
2.695,6.371,0
2.696,0.329,0
2.697,-5.164,0
2.698,-3.516,0
2.699,-7.911,0
2.7,-6.629,0
2.701,-7.728,0
2.702,-4.432,0
2.703,-3.333,0
2.704,-0.404,0
2.705,-1.319,0
2.706,11.132,0
2.707,38.598,0
2.708,66.064,0
2.709,55.444,0
2.71,32.922,0
2.711,0.329,0
2.712,-12.489,0
2.713,-24.207,0
2.714,-27.686,0
2.715,-30.799,0
2.716,-33.729,0
2.717,-31.165,0
2.718,-28.785,0
2.719,-22.193,0
2.72,-20.179,0
2.721,-14.686,0
2.722,-13.038,0
2.723,-8.643,0
2.724,-9.925,0
2.725,-6.446,0
2.726,-7.545,0
2.727,-2.601,0
2.728,-1.685,0
2.729,-2.418,0
2.73,-1.685,0
2.731,1.611,0
2.732,2.16,0
2.733,3.808,0
2.734,2.526,0
2.735,3.808,0
2.736,9.301,0
2.737,7.104,0
2.738,10.4,0
2.739,7.287,0
2.74,2.16,0
2.741,6.738,0
2.742,3.625,0
2.743,3.075,0
2.744,6.371,0
2.745,5.09,0
2.746,3.991,0
2.747,1.427,0
2.748,2.526,0
2.749,4.54,0
2.75,3.259,0
2.751,1.977,0
2.752,2.526,0
2.753,2.709,0
2.754,3.991,0
2.755,5.273,0
2.756,6.188,0
2.757,8.202,0
2.758,13.696,0
2.759,25.231,0
2.76,50.134,0
2.761,53.613,0
2.762,44.091,0
2.763,41.161,0
2.764,38.598,0
2.765,36.218,0
2.766,38.415,0
2.767,32.372,0
2.768,4.906,0
2.769,-30.616,0
2.77,-54.42,0
2.771,-58.631,0
2.772,-62.476,0
2.773,-65.955,0
2.774,-62.843,0
2.775,-54.053,0
2.776,-51.49,0
2.777,-49.11,0
2.778,-38.123,0
2.779,-32.081,0
2.78,-26.588,0
2.781,-18.348,0
2.782,-10.841,0
2.783,-9.559,0
2.784,-13.038,0
2.785,-5.164,0
2.786,-2.235,0
2.787,0.512,0
2.788,6.188,0
2.789,6.921,0
2.79,8.752,0
2.791,9.301,0
2.792,13.146,0
2.793,13.512,0
2.794,14.794,0
2.795,10.949,0
2.796,11.315,0
2.797,12.597,0
2.798,12.231,0
2.799,12.597,0
2.8,7.104,0
2.801,10.949,0
2.802,11.498,0
2.803,10.949,0
2.804,9.301,0
2.805,12.78,0
2.806,11.498,0
2.807,18.456,0
2.808,33.654,0
2.809,66.796,0
2.81,71.557,0
2.811,49.95,0
2.812,14.428,0
2.813,0.146,0
2.814,-12.672,0
2.815,-16.517,0
2.816,-19.996,0
2.817,-23.109,0
2.818,-26.038,0
2.819,-23.475,0
2.82,-21.094,0
2.821,-18.897,0
2.822,-16.883,0
2.823,-15.052,0
2.824,-13.404,0
2.825,-11.939,0
2.826,-10.657,0
2.827,-9.559,0
2.828,-6.263,0
2.829,-5.347,0
2.83,-0.77,0
2.831,-0.037,0
2.832,2.16,0
2.833,0.329,0
2.834,-5.347,0
2.835,3.075,0
2.836,6.371,0
2.837,7.287,0
2.838,4.54,0
2.839,6.921,0
2.84,7.653,0
2.841,8.202,0
2.842,3.808,0
2.843,2.16,0
2.844,5.456,0
2.845,2.343,0
2.846,0.329,0
2.847,2.892,0
2.848,4.723,0
2.849,3.991,0
2.85,2.16,0
2.851,0.878,0
2.852,1.977,0
2.853,3.991,0
2.854,1.061,0
2.855,1.427,0
2.856,2.526,0
2.857,4.357,0
2.858,8.935,0
2.859,19.189,0
2.86,41.711,0
2.861,51.232,0
2.862,71.923,0
2.863,42.443,0
2.864,30.724,0
2.865,-1.502,0
2.866,-23.109,0
2.867,-34.827,0
2.868,-38.306,0
2.869,-41.419,0
2.87,-38.49,0
2.871,-41.053,0
2.872,-33.912,0
2.873,-36.109,0
2.874,-26.038,0
2.875,-24.207,0
2.876,-19.263,0
2.877,-17.799,0
2.878,-19.08,0
2.879,-15.601,0
2.88,-5.347,0
2.881,-1.319,0
2.882,-2.418,0
2.883,-1.319,0
2.884,5.639,0
2.885,4.723,0
2.886,2.343,0
2.887,4.54,0
2.888,-0.037,0
2.889,3.075,0
2.89,5.822,0
2.891,5.456,0
2.892,9.667,0
2.893,8.019,0
2.894,6.738,0
2.895,8.019,0
2.896,2.526,0
2.897,1.794,0
2.898,2.343,0
2.899,4.174,0
2.9,3.625,0
2.901,8.202,0
2.902,6.371,0
2.903,5.822,0
2.904,2.526,0
2.905,2.892,0
2.906,3.991,0
2.907,2.526,0
2.908,2.892,0
2.909,-2.601,0
2.91,8.935,0
2.911,33.837,0
2.912,66.064,0
2.913,53.246,0
2.914,17.724,0
2.915,3.442,0
2.916,-9.376,0
2.917,-21.094,0
2.918,-24.573,0
2.919,-21.461,0
2.92,-24.39,0
2.921,-21.827,0
2.922,-24.207,0
2.923,-17.615,0
2.924,-19.63,0
2.925,-17.799,0
2.926,-12.855,0
2.927,-11.39,0
2.928,-10.108,0
2.929,-6.629,0
2.93,-5.531,0
2.931,-2.601,0
2.932,-5.347,0
2.933,-4.615,0
2.934,-5.347,0
2.935,-3.516,0
2.936,-1.685,0
2.937,6.738,0
2.938,25.231,0
2.939,22.668,0
2.94,10.583,0
2.941,3.991,0
2.942,-6.08,0
2.943,-4.249,0
2.944,-5.897,0
2.945,1.611,0
2.946,0.329,0
2.947,-0.77,0
2.948,-4.066,0
2.949,-6.995,0
2.95,-7.911,0
2.951,-5.531,0
2.952,-9.376,0
2.953,-8.826,0
2.954,-4.432,0
2.955,-0.587,0
2.956,0.695,0
2.957,2.892,0
2.958,5.456,0
2.959,3.442,0
2.96,9.118,0
2.961,21.569,0
2.962,49.035,0
2.963,60.754,0
2.964,78.515,0
2.965,49.218,0
2.966,13.696,0
2.967,-10.108,0
2.968,-22.926,0
2.969,-26.771,0
2.97,-30.25,0
2.971,-33.363,0
2.972,-30.433,0
2.973,-27.869,0
2.974,-25.489,0
2.975,-18.897,0
2.976,-12.855,0
2.977,-11.024,0
2.978,-9.376,0
2.979,-1.868,0
2.98,-0.587,0
2.981,0.512,0
2.982,-5.164,0
2.983,-6.08,0
2.984,-3.333,0
2.985,-2.601,0
2.986,-1.868,0
2.987,-3.699,0
2.988,-3.15,0
2.989,1.977,0
2.99,-1.319,0
2.991,1.794,0
2.992,-2.052,0
2.993,0.329,0
2.994,3.442,0
2.995,4.54,0
2.996,7.104,0
2.997,3.808,0
2.998,4.174,0
2.999,2.343,0
3,0.512,0
3.001,3.259,0
3.002,5.822,0
3.003,4.723,0
3.004,3.991,0
3.005,7.104,0
3.006,7.47,0
3.007,1.794,0
3.008,-3.883,0
3.009,-1.868,0
3.01,0.329,0
3.011,10.583,0
3.012,21.02,0
3.013,41.528,0
3.014,56.359,0
3.015,58.923,0
3.016,51.781,0
3.017,27.428,0
3.018,-1.868,0
3.019,-21.461,0
3.02,-24.94,0
3.021,-34.461,0
3.022,-37.391,0
3.023,-34.827,0
3.024,-32.447,0
3.025,-25.855,0
3.026,-27.869,0
3.027,-29.7,0
3.028,-24.757,0
3.029,-20.362,0
3.03,-16.334,0
3.031,-15.235,0
3.032,-9.559,0
3.033,-10.474,0
3.034,-5.897,0
3.035,-6.629,0
3.036,-4.432,0
3.037,-1.136,0
3.038,1.977,0
3.039,5.822,0
3.04,5.456,0
3.041,6.738,0
3.042,8.752,0
3.043,8.385,0
3.044,5.822,0
3.045,6.554,0
3.046,7.836,0
3.047,8.569,0
3.048,11.132,0
3.049,9.301,0
3.05,6.005,0
3.051,3.808,0
3.052,4.906,0
3.053,4.54,0
3.054,7.104,0
3.055,2.526,0
3.056,4.357,0
3.057,1.244,0
3.058,0.695,0
3.059,3.991,0
3.06,6.188,0
3.061,7.47,0
3.062,13.696,0
3.063,27.612,0
3.064,57.824,0
3.065,79.43,0
3.066,51.965,0
3.067,19.738,0
3.068,6.921,0
3.069,3.075,0
3.07,-0.404,0
3.071,2.709,0
3.072,-6.08,0
3.073,-8.643,0
3.074,-6.263,0
3.075,-12.855,0
3.076,-10.841,0
3.077,-23.658,0
3.078,-28.602,0
3.079,-32.996,0
3.08,-34.278,0
3.081,-40.321,0
3.082,-45.997,0
3.083,-45.081,0
3.084,-31.165,0
3.085,-17.066,0
3.086,-18.897,0
3.087,-30.433,0
3.088,-43.983,0
3.089,-60.462,0
3.09,-80.421,0
3.091,-93.787,0
3.092,-105.87,0
3.093,-112.46,0
3.094,-118.51,0
3.095,-124,0
3.096,-139.01,0
3.097,-128.94,0
3.098,-123.45,0
3.099,-101.84,0
3.1,-57.349,0
3.101,38.049,0
3.102,106.35,0
3.103,143.7,0
3.104,154.87,0
3.105,124.11,0
3.106,114.77,0
3.107,89.501,0
3.108,81.811,0
3.109,74.853,0
3.11,68.627,0
3.111,86.755,0
3.112,115.5,0
3.113,141.69,0
3.114,155.97,0
3.115,186.18,0
3.116,182.34,0
3.117,192.96,0
3.118,170.43,0
3.119,143.7,0
3.12,97.192,0
3.121,52.88,0
3.122,24.133,0
3.123,-2.052,0
3.124,-6.812,0
3.125,-11.024,0
3.126,0.695,0
3.127,-2.784,0
3.128,-12.305,0
3.129,-15.235,0
3.13,-23.109,0
3.131,-30.25,0
3.132,-28.052,0
3.133,-26.038,0
3.134,-38.856,0
3.135,-43.8,0
3.136,-42.335,0
3.137,-43.616,0
3.138,-35.194,0
3.139,-38.49,0
3.14,-45.448,0
3.141,-42.701,0
3.142,-50.208,0
3.143,-59.364,0
3.144,-62.843,0
3.145,-61.744,0
3.146,-68.702,0
3.147,-64.124,0
3.148,-63.392,0
3.149,-58.082,0
3.15,-58.631,0
3.151,-50.391,0
3.152,-49.293,0
3.153,-42.335,0
3.154,-41.419,0
3.155,-32.264,0
3.156,-28.785,0
3.157,-25.489,0
3.158,-24.573,0
3.159,-18.165,0
3.16,-20.545,0
3.161,-13.587,0
3.162,-6.995,0
3.163,-6.08,0
3.164,6.371,0
3.165,22.851,0
3.166,47.204,0
3.167,56.725,0
3.168,47.936,0
3.169,29.26,0
3.17,7.287,0
3.171,-7.545,0
3.172,-15.418,0
3.173,-22.559,0
3.174,-24.757,0
3.175,-26.771,0
3.176,-21.278,0
3.177,-26.221,0
3.178,-15.784,0
3.179,-14.503,0
3.18,-11.024,0
3.181,-7.728,0
3.182,7.47,0
3.183,22.851,0
3.184,28.893,0
3.185,16.076,0
3.186,4.54,0
3.187,0.146,0
3.188,-3.883,0
3.189,-2.784,0
3.19,-1.685,0
3.191,-0.77,0
3.192,-3.516,0
3.193,-1.136,0
3.194,1.061,0
3.195,5.639,0
3.196,5.09,0
3.197,7.836,0
3.198,5.456,0
3.199,7.653,0
3.2,6.554,0
3.201,6.921,0
3.202,8.019,0
3.203,10.766,0
3.204,8.935,0
3.205,5.639,0
3.206,9.484,0
3.207,14.977,0
3.208,9.667,0
3.209,11.498,0
3.21,7.104,0
3.211,4.357,0
3.212,3.075,0
3.213,3.991,0
3.214,9.118,0
3.215,9.667,0
3.216,19.189,0
3.217,39.697,0
3.218,60.387,0
3.219,79.064,0
3.22,71.923,0
3.221,38.781,0
3.222,5.456,0
3.223,-16.151,0
3.224,-27.869,0
3.225,-31.348,0
3.226,-34.461,0
3.227,-37.391,0
3.228,-34.827,0
3.229,-32.447,0
3.23,-30.25,0
3.231,-24.207,0
3.232,-22.376,0
3.233,-20.728,0
3.234,-13.221,0
3.235,-11.939,0
3.236,-8.46,0
3.237,-7.362,0
3.238,-6.446,0
3.239,-3.699,0
3.24,-2.967,0
3.241,-2.235,0
3.242,-0.404,0
3.243,2.709,0
3.244,4.357,0
3.245,5.639,0
3.246,5.273,0
3.247,7.287,0
3.248,7.653,0
3.249,8.752,0
3.25,8.935,0
3.251,7.653,0
3.252,6.921,0
3.253,10.033,0
3.254,8.935,0
3.255,8.569,0
3.256,7.47,0
3.257,7.653,0
3.258,3.442,0
3.259,1.611,0
3.26,2.16,0
3.261,2.526,0
3.262,2.892,0
3.263,8.385,0
3.264,7.653,0
3.265,2.343,0
3.266,12.597,0
3.267,32.189,0
3.268,56.359,0
3.269,72.472,0
3.27,45.739,0
3.271,13.512,0
3.272,-8.094,0
3.273,-19.813,0
3.274,-23.292,0
3.275,-20.179,0
3.276,-28.968,0
3.277,-31.531,0
3.278,-29.151,0
3.279,-22.559,0
3.28,-24.573,0
3.281,-19.08,0
3.282,-14.136,0
3.283,-12.672,0
3.284,-11.39,0
3.285,-7.911,0
3.286,-4.615,0
3.287,-3.699,0
3.288,-6.446,0
3.289,-5.714,0
3.29,-4.981,0
3.291,-3.15,0
3.292,-2.601,0
3.293,1.244,0
3.294,3.625,0
3.295,1.427,0
3.296,7.653,0
3.297,3.075,0
3.298,5.456,0
3.299,3.259,0
3.3,2.709,0
3.301,4.54,0
3.302,5.09,0
3.303,6.371,0
3.304,3.259,0
3.305,2.16,0
3.306,1.061,0
3.307,4.357,0
3.308,2.343,0
3.309,-1.868,0
3.31,-2.418,0
3.311,-0.037,0
3.312,-2.235,0
3.313,-0.22,0
3.314,2.343,0
3.315,8.385,0
3.316,3.625,0
3.317,13.146,0
3.318,19.921,0
3.319,38.415,0
3.32,67.895,0
3.321,56.176,0
3.322,23.949,0
3.323,2.343,0
3.324,-17.249,0
3.325,-27.869,0
3.326,-24.757,0
3.327,-27.686,0
3.328,-25.123,0
3.329,-27.503,0
3.33,-25.306,0
3.331,-19.263,0
3.332,-17.432,0
3.333,-19.08,0
3.334,-14.686,0
3.335,-13.404,0
3.336,-4.981,0
3.337,-3.883,0
3.338,1.061,0
3.339,0.146,0
3.34,2.526,0
3.341,-1.319,0
3.342,-3.15,0
3.343,-0.037,0
3.344,1.611,0
3.345,4.906,0
3.346,8.019,0
3.347,10.033,0
3.348,5.822,0
3.349,4.174,0
3.35,2.892,0
3.351,5.09,0
3.352,7.836,0
3.353,5.273,0
3.354,4.174,0
3.355,0.146,0
3.356,2.892,0
3.357,6.188,0
3.358,3.075,0
3.359,5.822,0
3.36,5.456,0
3.361,0.695,0
3.362,2.526,0
3.363,5.273,0
3.364,-0.22,0
3.365,3.625,0
3.366,2.526,0
3.367,4.357,0
3.368,13.879,0
3.369,26.147,0
3.37,51.049,0
3.371,61.669,0
3.372,71.191,0
3.373,44.457,0
3.374,5.09,0
3.375,-10.474,0
3.376,-24.757,0
3.377,-37.574,0
3.378,-41.419,0
3.379,-44.898,0
3.38,-41.785,0
3.381,-32.996,0
3.382,-30.433,0
3.383,-28.052,0
3.384,-25.855,0
3.385,-19.813,0
3.386,-17.982,0
3.387,-16.334,0
3.388,-14.869,0
3.389,-10.841,0
3.39,-9.742,0
3.391,-6.446,0
3.392,0.512,0
3.393,1.427,0
3.394,3.808,0
3.395,-0.037,0
3.396,4.54,0
3.397,3.991,0
3.398,6.738,0
3.399,5.456,0
3.4,6.738,0
3.401,7.104,0
3.402,2.892,0
3.403,4.54,0
3.404,4.906,0
3.405,8.019,0
3.406,9.118,0
3.407,6.554,0
3.408,10.583,0
3.409,9.301,0
3.41,4.174,0
3.411,4.723,0
3.412,5.273,0
3.413,3.625,0
3.414,4.906,0
3.415,3.625,0
3.416,2.526,0
3.417,2.526,0
3.418,6.738,0
3.419,1.611,0
3.42,2.16,0
3.421,6.554,0
3.422,4.906,0
3.423,2.526,0
3.424,5.639,0
3.425,1.061,0
3.426,2.892,0
3.427,4.54,0
3.428,7.836,0
3.429,14.794,0
3.43,29.992,0
3.431,10.033,0
3.432,7.47,0
3.433,29.443,0
3.434,44.274,0
3.435,41.711,0
3.436,48.852,0
3.437,59.838,0
3.438,37.682,0
3.439,-0.953,0
3.44,-27.137,0
3.441,-41.419,0
3.442,-45.631,0
3.443,-49.476,0
3.444,-45.997,0
3.445,-42.884,0
3.446,-45.814,0
3.447,-43.25,0
3.448,-36.109,0
3.449,-33.912,0
3.45,-27.869,0
3.451,-22.376,0
3.452,-10.841,0
3.453,-15.235,0
3.454,-11.207,0
3.455,-7.728,0
3.456,-4.432,0
3.457,-3.516,0
3.458,2.892,0
3.459,2.16,0
3.46,7.47,0
3.461,8.019,0
3.462,9.85,0
3.463,9.301,0
3.464,8.019,0
3.465,6.738,0
3.466,4.723,0
3.467,2.16,0
3.468,6.921,0
3.469,10.949,0
3.47,15.527,0
3.471,25.048,0
3.472,45.556,0
3.473,66.247,0
3.474,63.683,0
3.475,36.95,0
3.476,12.048,0
3.477,-10.474,0
3.478,-13.404,0
3.479,-21.278,0
3.48,-23.658,0
3.481,-30.25,0
3.482,-32.264,0
3.483,-26.771,0
3.484,-18.531,0
3.485,-19.996,0
3.486,-15.968,0
3.487,-12.489,0
3.488,-9.193,0
3.489,-10.108,0
3.49,-7.362,0
3.491,-9.742,0
3.492,-9.01,0
3.493,-5.714,0
3.494,-0.037,0
3.495,3.808,0
3.496,8.385,0
3.497,8.935,0
3.498,5.09,0
3.499,3.808,0
3.5,4.174,0
3.501,3.808,0
3.502,9.484,0
3.503,7.104,0
3.504,6.371,0
3.505,5.822,0
3.506,6.371,0
3.507,8.019,0
3.508,3.442,0
3.509,6.554,0
3.51,6.005,0
3.511,7.287,0
3.512,5.09,0
3.513,3.991,0
3.514,0.512,0
3.515,5.639,0
3.516,2.343,0
3.517,0.512,0
3.518,-0.037,0
3.519,-1.136,0
3.52,0.146,0
3.521,7.104,0
3.522,22.302,0
3.523,55.444,0
3.524,79.247,0
3.525,57.641,0
3.526,22.118,0
3.527,-1.685,0
3.528,-14.503,0
3.529,-26.221,0
3.53,-29.7,0
3.531,-26.588,0
3.532,-29.517,0
3.533,-26.954,0
3.534,-24.573,0
3.535,-22.376,0
3.536,-24.39,0
3.537,-18.897,0
3.538,-13.953,0
3.539,-15.418,0
3.54,-11.39,0
3.541,-7.911,0
3.542,-2.235,0
3.543,-1.319,0
3.544,-4.066,0
3.545,1.611,0
3.546,2.343,0
3.547,2.892,0
3.548,6.005,0
3.549,2.16,0
3.55,0.878,0
3.551,-0.404,0
3.552,-1.502,0
3.553,0.329,0
3.554,-0.77,0
3.555,1.977,0
3.556,2.343,0
3.557,0.512,0
3.558,2.526,0
3.559,3.808,0
3.56,-0.22,0
3.561,3.625,0
3.562,4.906,0
3.563,7.104,0
3.564,6.738,0
3.565,4.174,0
3.566,3.808,0
3.567,3.991,0
3.568,4.723,0
3.569,0.695,0
3.57,0.329,0
3.571,6.554,0
3.572,19.006,0
3.573,24.499,0
3.574,46.105,0
3.575,60.937,0
3.576,58.373,0
3.577,51.232,0
3.578,26.879,0
3.579,-2.418,0
3.58,-14.136,0
3.581,-24.757,0
3.582,-34.278,0
3.583,-37.208,0
3.584,-39.771,0
3.585,-37.391,0
3.586,-35.194,0
3.587,-29.151,0
3.588,-23.658,0
3.589,-22.01,0
3.59,-20.545,0
3.591,-19.263,0
3.592,-13.221,0
3.593,-9.925,0
3.594,-9.01,0
3.595,-2.601,0
3.596,-0.22,0
3.597,-2.418,0
3.598,3.808,0
3.599,1.427,0
3.6,3.625,0
3.601,3.075,0
3.602,3.625,0
3.603,6.371,0
3.604,5.09,0
3.605,5.456,0
3.606,4.357,0
3.607,3.991,0
3.608,2.16,0
3.609,2.892,0
3.61,4.723,0
3.611,7.653,0
3.612,9.484,0
3.613,6.188,0
3.614,8.202,0
3.615,9.301,0
3.616,4.54,0
3.617,1.427,0
3.618,0.878,0
3.619,-2.418,0
3.62,3.625,0
3.621,9.118,0
3.622,5.09,0
3.623,16.625,0
3.624,28.161,0
3.625,50.683,0
3.626,60.204,0
3.627,68.993,0
3.628,44.823,0
3.629,9.118,0
3.63,-14.686,0
3.631,-18.897,0
3.632,-30.616,0
3.633,-34.095,0
3.634,-37.208,0
3.635,-28.419,0
3.636,-30.982,0
3.637,-28.602,0
3.638,-26.405,0
3.639,-20.362,0
3.64,-18.531,0
3.641,-13.587,0
3.642,-12.122,0
3.643,-8.094,0
3.644,-4.615,0
3.645,-3.516,0
3.646,1.427,0
3.647,-1.319,0
3.648,-0.587,0
3.649,-1.319,0
3.65,0.512,0
3.651,-1.319,0
3.652,-0.77,0
3.653,0.512,0
3.654,3.625,0
3.655,2.526,0
3.656,5.09,0
3.657,5.456,0
3.658,6.188,0
3.659,6.371,0
3.66,7.104,0
3.661,4.54,0
3.662,7.836,0
3.663,6.738,0
3.664,3.259,0
3.665,3.625,0
3.666,3.259,0
3.667,4.357,0
3.668,3.991,0
3.669,7.287,0
3.67,5.09,0
3.671,3.075,0
3.672,-0.404,0
3.673,1.427,0
3.674,6.921,0
3.675,12.231,0
3.676,22.485,0
3.677,23.949,0
3.678,27.978,0
3.679,39.147,0
3.68,40.612,0
3.681,55.627,0
3.682,53.613,0
3.683,55.444,0
3.684,30.541,0
3.685,-1.685,0
3.686,-31.898,0
3.687,-43.616,0
3.688,-54.237,0
3.689,-51.124,0
3.69,-54.053,0
3.691,-51.49,0
3.692,-44.349,0
3.693,-37.757,0
3.694,-31.715,0
3.695,-26.221,0
3.696,-27.869,0
3.697,-20.362,0
3.698,-16.334,0
3.699,-12.855,0
3.7,-7.178,0
3.701,-4.249,0
3.702,-3.333,0
3.703,0.695,0
3.704,1.427,0
3.705,-0.404,0
3.706,6.554,0
3.707,3.808,0
3.708,7.836,0
3.709,8.569,0
3.71,10.4,0
3.711,10.949,0
3.712,14.794,0
3.713,12.414,0
3.714,9.301,0
3.715,8.202,0
3.716,10.033,0
3.717,11.865,0
3.718,7.287,0
3.719,6.738,0
3.72,2.343,0
3.721,3.991,0
3.722,6.371,0
3.723,3.259,0
3.724,0.146,0
3.725,6.371,0
3.726,20.287,0
3.727,50.5,0
3.728,63.317,0
3.729,51.598,0
3.73,19.372,0
3.731,-2.235,0
3.732,-13.953,0
3.733,-17.432,0
3.734,-26.954,0
3.735,-29.884,0
3.736,-27.32,0
3.737,-24.94,0
3.738,-27.137,0
3.739,-25.123,0
3.74,-23.292,0
3.741,-15.052,0
3.742,-10.657,0
3.743,-6.629,0
3.744,-5.531,0
3.745,0.146,0
3.746,1.061,0
3.747,1.977,0
3.748,-0.404,0
3.749,3.442,0
3.75,0.146,0
3.751,-0.404,0
3.752,-2.052,0
3.753,-3.333,0
3.754,3.625,0
3.755,4.54,0
3.756,3.625,0
3.757,4.357,0
3.758,2.16,0
3.759,6.738,0
3.76,2.343,0
3.761,2.892,0
3.762,6.188,0
3.763,9.301,0
3.764,12.048,0
3.765,8.569,0
3.766,6.371,0
3.767,3.625,0
3.768,7.836,0
3.769,5.09,0
3.77,3.808,0
3.771,5.09,0
3.772,2.343,0
3.773,1.244,0
3.774,-1.868,0
3.775,-4.432,0
3.776,0.146,0
3.777,10.4,0
3.778,32.922,0
3.779,62.219,0
3.78,42.626,0
3.781,10.4,0
3.782,-11.207,0
3.783,-22.926,0
3.784,-26.405,0
3.785,-29.517,0
3.786,-26.588,0
3.787,-29.151,0
3.788,-26.771,0
3.789,-24.573,0
3.79,-22.559,0
3.791,-20.728,0
3.792,-12.489,0
3.793,-13.953,0
3.794,-12.672,0
3.795,-9.193,0
3.796,-5.897,0
3.797,-4.981,0
3.798,-0.404,0
3.799,1.977,0
3.8,-1.868,0
3.801,-0.037,0
3.802,0.512,0
3.803,2.16,0
3.804,3.442,0
3.805,2.16,0
3.806,0.146,0
3.807,3.625,0
3.808,5.822,0
3.809,7.836,0
3.81,7.47,0
3.811,3.442,0
3.812,8.019,0
3.813,7.47,0
3.814,5.822,0
3.815,2.526,0
3.816,2.892,0
3.817,0.146,0
3.818,2.709,0
3.819,2.343,0
3.82,2.526,0
3.821,-0.587,0
3.822,0.512,0
3.823,0.878,0
3.824,-0.953,0
3.825,0.329,0
3.826,0.512,0
3.827,4.723,0
3.828,14.245,0
3.829,34.753,0
3.83,67.345,0
3.831,45.739,0
3.832,10.217,0
3.833,-4.066,0
3.834,-16.883,0
3.835,-20.728,0
3.836,-24.207,0
3.837,-27.32,0
3.838,-30.25,0
3.839,-27.686,0
3.84,-20.545,0
3.841,-18.348,0
3.842,-20.362,0
3.843,-18.531,0
3.844,-13.587,0
3.845,-12.122,0
3.846,-8.094,0
3.847,-6.995,0
3.848,0.878,0
3.849,3.808,0
3.85,2.892,0
3.851,3.625,0
3.852,8.935,0
3.853,10.766,0
3.854,11.315,0
3.855,12.963,0
3.856,16.259,0
3.857,19.372,0
3.858,25.597,0
3.859,28.344,0
3.86,25.964,0
3.861,23.766,0
3.862,24.316,0
3.863,22.485,0
3.864,17.358,0
3.865,11.132,0
3.866,1.977,0
3.867,-9.193,0
3.868,-16.7,0
3.869,-26.221,0
3.87,-32.264,0
3.871,-37.94,0
3.872,-26.771,0
3.873,-13.221,0
3.874,-7.728,0
3.875,-19.263,0
3.876,-39.222,0
3.877,-55.701,0
3.878,-66.688,0
3.879,-84.815,0
3.88,-58.082,0
3.881,-47.462,0
3.882,-69.984,0
3.883,-114.48,0
3.884,-146.16,0
3.885,-163.37,0
3.886,-158.24,0
3.887,-143.96,0
3.888,-113.75,0
3.889,-54.603,0
3.89,38.598,0
3.891,100.85,0
3.892,112.02,0
3.893,122.28,0
3.894,112.94,0
3.895,87.67,0
3.896,64.599,0
3.897,71.557,0
3.898,65.331,0
3.899,82.543,0
3.9,98.107,0
3.901,121.91,0
3.902,134.73,0
3.903,130.88,0
3.904,127.4,0
3.905,117.88,0
3.906,109.09,0
3.907,111.66,0
3.908,99.572,0
3.909,84.191,0
3.91,62.035,0
3.911,41.344,0
3.912,43.908,0
3.913,41.528,0
3.914,43.725,0
3.915,33.654,0
3.916,28.161,0
3.917,13.146,0
3.918,7.104,0
3.919,-2.052,0
3.92,9.484,0
3.921,25.964,0
3.922,6.005,0
3.923,-18.165,0
3.924,-27.686,0
3.925,-42.518,0
3.926,-45.081,0
3.927,-45.814,0
3.928,-52.955,0
3.929,-50.758,0
3.93,-44.715,0
3.931,-17.249,0
3.932,-13.404,0
3.933,-9.925,0
3.934,-32.447,0
3.935,-65.04,0
3.936,-86.646,0
3.937,-90.491,0
3.938,-101.11,0
3.939,-91.59,0
3.94,-94.52,0
3.941,-86.646,0
3.942,-79.505,0
3.943,-68.519,0
3.944,-58.448,0
3.945,-49.293,0
3.946,-47.645,0
3.947,-37.208,0
3.948,-27.686,0
3.949,-24.207,0
3.95,-23.109,0
3.951,-16.151,0
3.952,-13.404,0
3.953,-7.728,0
3.954,-3.883,0
3.955,-4.432,0
3.956,1.244,0
3.957,5.09,0
3.958,6.921,0
3.959,10.033,0
3.96,13.879,0
3.961,13.512,0
3.962,13.146,0
3.963,10.4,0
3.964,12.231,0
3.965,14.062,0
3.966,14.794,0
3.967,19.006,0
3.968,14.611,0
3.969,11.865,0
3.97,8.569,0
3.971,8.202,0
3.972,9.301,0
3.973,10.4,0
3.974,14.428,0
3.975,11.132,0
3.976,11.498,0
3.977,6.921,0
3.978,11.315,0
3.979,14.428,0
3.98,22.851,0
3.981,38.964,0
3.982,58.923,0
3.983,56.359,0
3.984,73.205,0
3.985,79.797,0
3.986,53.613,0
3.987,14.245,0
3.988,-11.939,0
3.989,-26.221,0
3.99,-30.433,0
3.991,-42.152,0
3.992,-45.631,0
3.993,-42.518,0
3.994,-39.588,0
3.995,-31.715,0
3.996,-29.334,0
3.997,-22.742,0
3.998,-20.728,0
3.999,-15.235,0
4,-10.291,0
4.001,-5.897,0
4.002,-4.615,0
4.003,-5.714,0
4.004,-4.615,0
4.005,-1.685,0
4.006,2.892,0
4.007,2.16,0
4.008,1.427,0
4.009,6.005,0
4.01,7.836,0
4.011,9.484,0
4.012,9.85,0
4.013,10.217,0
4.014,4.723,0
4.015,8.569,0
4.016,5.273,0
4.017,4.723,0
4.018,6.371,0
4.019,7.653,0
4.02,6.371,0
4.021,3.625,0
4.022,7.836,0
4.023,6.188,0
4.024,8.569,0
4.025,6.371,0
4.026,4.357,0
4.027,3.259,0
4.028,7.287,0
4.029,5.456,0
4.03,5.822,0
4.031,12.78,0
4.032,25.964,0
4.033,53.429,0
4.034,65.148,0
4.035,68.627,0
4.036,46.105,0
4.037,13.512,0
4.038,-8.094,0
4.039,-19.813,0
4.04,-30.433,0
4.041,-33.546,0
4.042,-36.475,0
4.043,-33.912,0
4.044,-26.771,0
4.045,-24.573,0
4.046,-22.559,0
4.047,-20.728,0
4.048,-19.08,0
4.049,-14.686,0
4.05,-13.404,0
4.051,-12.305,0
4.052,-9.01,0
4.053,-6.08,0
4.054,-5.164,0
4.055,-4.432,0
4.056,-5.164,0
4.057,-0.587,0
4.058,1.244,0
4.059,3.991,0
4.06,5.273,0
4.061,8.385,0
4.062,7.287,0
4.063,10.766,0
4.064,9.484,0
4.065,9.85,0
4.066,8.019,0
4.067,6.188,0
4.068,4.723,0
4.069,2.892,0
4.07,5.273,0
4.071,2.526,0
4.072,2.892,0
4.073,2.526,0
4.074,1.794,0
4.075,3.625,0
4.076,3.808,0
4.077,0.329,0
4.078,0.695,0
4.079,-0.587,0
4.08,3.991,0
4.081,2.892,0
4.082,8.569,0
4.083,17.724,0
4.084,36.218,0
4.085,49.584,0
4.086,56.725,0
4.087,54.528,0
4.088,40.429,0
4.089,49.584,0
4.09,51.232,0
4.091,28.71,0
4.092,-13.587,0
4.093,-30.799,0
4.094,-46.363,0
4.095,-60.645,0
4.096,-56.434,0
4.097,-60.279,0
4.098,-49.659,0
4.099,-46.546,0
4.1,-43.616,0
4.101,-41.053,0
4.102,-33.912,0
4.103,-31.715,0
4.104,-21.644,0
4.105,-16.151,0
4.106,-11.207,0
4.107,-12.672,0
4.108,-5.897,0
4.109,-2.418,0
4.11,3.259,0
4.111,8.202,0
4.112,9.118,0
4.113,9.85,0
4.114,10.583,0
4.115,11.132,0
4.116,8.019,0
4.117,8.569,0
4.118,10.949,0
4.119,13.146,0
4.12,12.048,0
4.121,13.879,0
4.122,11.315,0
4.123,11.498,0
4.124,12.231,0
4.125,10.4,0
4.126,9.85,0
4.127,12.231,0
4.128,10.217,0
4.129,7.653,0
4.13,6.554,0
4.131,12.048,0
4.132,12.231,0
4.133,16.442,0
4.134,25.964,0
4.135,46.471,0
4.136,61.303,0
4.137,53.429,0
4.138,31.457,0
4.139,4.723,0
4.14,-13.038,0
4.141,-22.559,0
4.142,-31.348,0
4.143,-33.912,0
4.144,-31.531,0
4.145,-29.334,0
4.146,-27.32,0
4.147,-25.489,0
4.148,-20.545,0
4.149,-19.08,0
4.15,-17.799,0
4.151,-14.32,0
4.152,-11.024,0
4.153,-8.094,0
4.154,-9.01,0
4.155,-6.629,0
4.156,-8.826,0
4.157,-4.249,0
4.158,-4.798,0
4.159,1.427,0
4.16,2.16,0
4.161,1.427,0
4.162,1.977,0
4.163,6.371,0
4.164,2.526,0
4.165,10.033,0
4.166,24.865,0
4.167,38.964,0
4.168,18.823,0
4.169,5.456,0
4.17,3.075,0
4.171,0.878,0
4.172,-1.136,0
4.173,-6.629,0
4.174,-8.277,0
4.175,-9.742,0
4.176,-5.714,0
4.177,-6.812,0
4.178,-3.516,0
4.179,-2.601,0
4.18,-3.516,0
4.181,-1.136,0
4.182,2.526,0
4.183,3.259,0
4.184,7.836,0
4.185,17.358,0
4.186,37.865,0
4.187,64.599,0
4.188,75.219,0
4.189,45.922,0
4.19,10.4,0
4.191,-13.404,0
4.192,-17.615,0
4.193,-29.334,0
4.194,-32.813,0
4.195,-35.926,0
4.196,-32.996,0
4.197,-25.123,0
4.198,-27.503,0
4.199,-25.306,0
4.2,-23.292,0
4.201,-17.799,0
4.202,-12.855,0
4.203,-11.39,0
4.204,-10.108,0
4.205,-9.01,0
4.206,-3.333,0
4.207,-2.418,0
4.208,-3.333,0
4.209,0.695,0
4.21,2.892,0
4.211,4.723,0
4.212,4.174,0
4.213,8.019,0
4.214,5.639,0
4.215,6.005,0
4.216,5.639,0
4.217,6.738,0
4.218,6.371,0
4.219,7.104,0
4.22,6.371,0
4.221,3.442,0
4.222,3.808,0
4.223,4.174,0
4.224,4.906,0
4.225,3.075,0
4.226,0.146,0
4.227,4.357,0
4.228,1.611,0
4.229,4.906,0
4.23,7.104,0
4.231,8.202,0
4.232,5.639,0
4.233,3.259,0
4.234,-0.037,0
4.235,6.188,0
4.236,20.104,0
4.237,42.26,0
4.238,57.092,0
4.239,70.458,0
4.24,48.486,0
4.241,27.795,0
4.242,-1.685,0
4.243,-13.404,0
4.244,-24.024,0
4.245,-33.546,0
4.246,-30.616,0
4.247,-33.179,0
4.248,-35.56,0
4.249,-33.363,0
4.25,-27.32,0
4.251,-29.151,0
4.252,-24.207,0
4.253,-19.813,0
4.254,-18.531,0
4.255,-15.052,0
4.256,-11.756,0
4.257,-8.826,0
4.258,-11.573,0
4.259,-5.897,0
4.26,-3.699,0
4.261,-1.868,0
4.262,-2.418,0
4.263,-0.77,0
4.264,0.512,0
4.265,2.709,0
4.266,4.723,0
4.267,5.09,0
4.268,6.188,0
4.269,7.653,0
4.27,6.921,0
4.271,8.202,0
4.272,6.005,0
4.273,3.442,0
4.274,6.738,0
4.275,5.639,0
4.276,7.47,0
4.277,9.301,0
4.278,9.118,0
4.279,10.4,0
4.28,10.583,0
4.281,11.132,0
4.282,7.836,0
4.283,2.709,0
4.284,3.991,0
4.285,2.16,0
4.286,11.681,0
4.287,29.443,0
4.288,41.528,0
4.289,65.881,0
4.29,75.402,0
4.291,42.809,0
4.292,12.597,0
4.293,-6.995,0
4.294,-24.757,0
4.295,-34.278,0
4.296,-31.348,0
4.297,-33.912,0
4.298,-36.292,0
4.299,-34.095,0
4.3,-32.081,0
4.301,-26.588,0
4.302,-21.644,0
4.303,-20.179,0
4.304,-18.897,0
4.305,-12.855,0
4.306,-9.559,0
4.307,-4.615,0
4.308,-5.531,0
4.309,-3.15,0
4.31,-0.953,0
4.311,-0.404,0
4.312,1.427,0
4.313,0.878,0
4.314,3.259,0
4.315,3.625,0
4.316,-1.868,0
4.317,0.329,0
4.318,2.16,0
4.319,7.836,0
4.32,8.569,0
4.321,3.991,0
4.322,4.54,0
4.323,5.09,0
4.324,5.456,0
4.325,4.174,0
4.326,1.427,0
4.327,5.639,0
4.328,2.892,0
4.329,4.174,0
4.33,2.892,0
4.331,3.259,0
4.332,5.09,0
4.333,2.526,0
4.334,4.54,0
4.335,6.188,0
4.336,3.075,0
4.337,9.301,0
4.338,23.217,0
4.339,53.429,0
4.34,75.036,0
4.341,47.57,0
4.342,22.668,0
4.343,-6.629,0
4.344,-18.348,0
4.345,-21.827,0
4.346,-24.94,0
4.347,-27.869,0
4.348,-30.433,0
4.349,-28.052,0
4.35,-25.855,0
4.351,-23.841,0
4.352,-22.01,0
4.353,-17.066,0
4.354,-12.672,0
4.355,-13.953,0
4.356,-7.911,0
4.357,-9.01,0
4.358,-8.094,0
4.359,-3.516,0
4.36,-1.136,0
4.361,1.061,0
4.362,2.892,0
4.363,4.723,0
4.364,5.273,0
4.365,6.554,0
4.366,1.427,0
4.367,0.878,0
4.368,2.709,0
4.369,2.16,0
4.37,3.442,0
4.371,6.554,0
4.372,5.456,0
4.373,8.019,0
4.374,7.653,0
4.375,6.188,0
4.376,2.526,0
4.377,4.906,0
4.378,1.794,0
4.379,-0.953,0
4.38,4.723,0
4.381,5.456,0
4.382,1.611,0
4.383,1.061,0
4.384,5.456,0
4.385,2.709,0
4.386,0.329,0
4.387,3.625,0
4.388,8.752,0
4.389,19.006,0
4.39,41.528,0
4.391,70.824,0
4.392,74.67,0
4.393,42.443,0
4.394,3.442,0
4.395,-12.122,0
4.396,-16.883,0
4.397,-29.7,0
4.398,-41.419,0
4.399,-37.94,0
4.4,-34.827,0
4.401,-31.898,0
4.402,-29.334,0
4.403,-26.954,0
4.404,-20.362,0
4.405,-22.376,0
4.406,-13.221,0
4.407,-14.869,0
4.408,-13.404,0
4.409,-6.629,0
4.41,-5.531,0
4.411,2.343,0
4.412,17.541,0
4.413,28.527,0
4.414,14.428,0
4.415,1.611,0
4.416,-6.629,0
4.417,-2.235,0
4.418,-3.516,0
4.419,-4.615,0
4.42,-7.911,0
4.421,-4.981,0
4.422,-4.066,0
4.423,-4.798,0
4.424,-2.601,0
4.425,-3.15,0
4.426,-1.319,0
4.427,-1.868,0
4.428,3.625,0
4.429,4.357,0
4.43,-1.868,0
4.431,3.808,0
4.432,4.54,0
4.433,5.09,0
4.434,1.977,0
4.435,3.625,0
4.436,3.991,0
4.437,5.456,0
4.438,5.09,0
4.439,10.583,0
4.44,22.118,0
4.441,43.725,0
4.442,58.556,0
4.443,71.923,0
4.444,69.543,0
4.445,36.401,0
4.446,3.075,0
4.447,-9.742,0
4.448,-21.461,0
4.449,-32.081,0
4.45,-41.602,0
4.451,-38.673,0
4.452,-36.109,0
4.453,-38.49,0
4.454,-31.898,0
4.455,-29.884,0
4.456,-28.052,0
4.457,-23.109,0
4.458,-15.601,0
4.459,-11.573,0
4.46,-8.094,0
4.461,-6.995,0
4.462,-4.066,0
4.463,-1.319,0
4.464,1.061,0
4.465,4.906,0
4.466,4.357,0
4.467,3.808,0
4.468,7.653,0
4.469,8.019,0
4.47,9.301,0
4.471,6.554,0
4.472,3.075,0
4.473,4.357,0
4.474,2.343,0
4.475,2.709,0
4.476,0.878,0
4.477,4.174,0
4.478,2.892,0
4.479,9.118,0
4.48,6.371,0
4.481,3.991,0
4.482,3.259,0
4.483,3.808,0
4.484,5.639,0
4.485,5.09,0
4.486,3.808,0
4.487,5.09,0
4.488,6.188,0
4.489,3.442,0
4.49,9.118,0
4.491,21.569,0
4.492,38.049,0
4.493,62.402,0
4.494,78.515,0
4.495,57.824,0
4.496,22.851,0
4.497,-10.474,0
4.498,-23.292,0
4.499,-35.01,0
4.5,-31.531,0
4.501,-41.053,0
4.502,-32.264,0
4.503,-34.827,0
4.504,-27.686,0
4.505,-21.094,0
4.506,-19.08,0
4.507,-20.911,0
4.508,-19.263,0
4.509,-17.799,0
4.51,-13.77,0
4.511,-14.869,0
4.512,-6.995,0
4.513,-4.066,0
4.514,-1.319,0
4.515,-0.587,0
4.516,1.611,0
4.517,1.061,0
4.518,2.892,0
4.519,4.54,0
4.52,2.16,0
4.521,5.273,0
4.522,6.371,0
4.523,6.738,0
4.524,4.906,0
4.525,4.174,0
4.526,3.991,0
4.527,2.709,0
4.528,6.188,0
4.529,8.569,0
4.53,5.456,0
4.531,4.357,0
4.532,6.921,0
4.533,9.484,0
4.534,4.906,0
4.535,5.456,0
4.536,2.343,0
4.537,3.991,0
4.538,4.357,0
4.539,1.794,0
4.54,6.005,0
4.541,14.428,0
4.542,30.541,0
4.543,41.528,0
4.544,63.683,0
4.545,72.472,0
4.546,48.302,0
4.547,12.597,0
4.548,-11.207,0
4.549,-32.813,0
4.55,-36.658,0
4.551,-40.137,0
4.552,-37.025,0
4.553,-39.954,0
4.554,-32.081,0
4.555,-29.7,0
4.556,-27.503,0
4.557,-25.489,0
4.558,-19.996,0
4.559,-21.644,0
4.56,-17.249,0
4.561,-13.221,0
4.562,-4.798,0
4.563,3.075,0
4.564,6.005,0
4.565,3.259,0
4.566,-0.77,0
4.567,4.54,0
4.568,9.118,0
4.569,6.005,0
4.57,6.554,0
4.571,6.188,0
4.572,6.554,0
4.573,7.653,0
4.574,9.484,0
4.575,7.653,0
4.576,6.921,0
4.577,6.188,0
4.578,5.456,0
4.579,5.639,0
4.58,5.456,0
4.581,6.371,0
4.582,4.723,0
4.583,3.259,0
4.584,0.329,0
4.585,1.427,0
4.586,3.991,0
4.587,1.427,0
4.588,-0.587,0
4.589,1.977,0
4.59,-1.136,0
4.591,-0.77,0
4.592,3.808,0
4.593,14.062,0
4.594,36.584,0
4.595,65.881,0
4.596,54.162,0
4.597,14.794,0
4.598,-11.39,0
4.599,-16.151,0
4.6,-20.362,0
4.601,-32.081,0
4.602,-28.602,0
4.603,-31.715,0
4.604,-28.785,0
4.605,-26.221,0
4.606,-23.841,0
4.607,-17.249,0
4.608,-19.263,0
4.609,-10.108,0
4.61,-8.46,0
4.611,-12.855,0
4.612,-8.826,0
4.613,-5.347,0
4.614,-4.249,0
4.615,-1.319,0
4.616,-0.404,0
4.617,3.625,0
4.618,1.427,0
4.619,1.977,0
4.62,3.808,0
4.621,4.357,0
4.622,3.991,0
4.623,4.357,0
4.624,4.723,0
4.625,6.554,0
4.626,5.456,0
4.627,3.442,0
4.628,1.611,0
4.629,3.442,0
4.63,2.343,0
4.631,4.723,0
4.632,5.456,0
4.633,1.244,0
4.634,0.695,0
4.635,1.244,0
4.636,0.878,0
4.637,5.09,0
4.638,2.343,0
4.639,4.723,0
4.64,5.09,0
4.641,4.723,0
4.642,5.822,0
4.643,11.498,0
4.644,19.006,0
4.645,34.203,0
4.646,49.584,0
4.647,51.598,0
4.648,60.754,0
4.649,45.739,0
4.65,35.668,0
4.651,8.202,0
4.652,-19.263,0
4.653,-44.166,0
4.654,-47.279,0
4.655,-50.208,0
4.656,-47.645,0
4.657,-35.56,0
4.658,-11.207,0
4.659,-14.32,0
4.66,-17.249,0
4.661,-19.813,0
4.662,-17.432,0
4.663,-19.63,0
4.664,-13.587,0
4.665,-8.094,0
4.666,0.146,0
4.667,4.54,0
4.668,14.062,0
4.669,15.16,0
4.67,14.062,0
4.671,13.146,0
4.672,10.4,0
4.673,11.132,0
4.674,5.822,0
4.675,-3.15,0
4.676,-9.193,0
4.677,-14.869,0
4.678,-21.827,0
4.679,-28.236,0
4.68,-32.264,0
4.681,-23.841,0
4.682,-11.39,0
4.683,-3.15,0
4.684,-7.545,0
4.685,-25.306,0
4.686,-47.279,0
4.687,-62.11,0
4.688,-80.787,0
4.689,-87.928,0
4.69,-103.31,0
4.691,-113.38,0
4.692,-121.25,0
4.693,-134.07,0
4.694,-125.83,0
4.695,-103.31,0
4.696,-80.787,0
4.697,-36.292,0
4.698,33.654,0
4.699,117.7,0
4.7,128.87,0
4.701,139.12,0
4.702,129.78,0
4.703,87.487,0
4.704,64.416,0
4.705,43.542,0
4.706,37.316,0
4.707,31.64,0
4.708,36.767,0
4.709,60.571,0
4.71,82.177,0
4.711,101.77,0
4.712,112.39,0
4.713,115.5,0
4.714,112.57,0
4.715,110.01,0
4.716,107.63,0
4.717,109.83,0
4.718,99.755,0
4.719,75.951,0
4.72,53.429,0
4.721,44.64,0
4.722,42.077,0
4.723,49.218,0
4.724,47.021,0
4.725,36.95,0
4.726,24.133,0
4.727,12.597,0
4.728,2.16,0
4.729,-7.362,0
4.73,-10.841,0
4.731,-11.939,0
4.732,-27.137,0
4.733,-38.123,0
4.734,-40.137,0
4.735,-34.644,0
4.736,-36.292,0
4.737,-40.687,0
4.738,-47.462,0
4.739,-48.56,0
4.74,-58.814,0
4.741,-60.096,0
4.742,-66.138,0
4.743,-66.322,0
4.744,-67.42,0
4.745,-52.222,0
4.746,-41.236,0
4.747,-19.08,0
4.748,1.611,0
4.749,20.287,0
4.75,13.146,0
4.751,-15.601,0
4.752,-43.067,0
4.753,-60.828,0
4.754,-63.941,0
4.755,-66.871,0
4.756,-64.307,0
4.757,-57.166,0
4.758,-54.969,0
4.759,-52.955,0
4.76,-43.8,0
4.761,-38.856,0
4.762,-31.348,0
4.763,-27.32,0
4.764,-21.278,0
4.765,-15.601,0
4.766,-12.672,0
4.767,-4.249,0
4.768,1.427,0
4.769,-1.502,0
4.77,3.075,0
4.771,3.808,0
4.772,9.118,0
4.773,9.667,0
4.774,10.217,0
4.775,12.963,0
4.776,16.259,0
4.777,14.977,0
4.778,16.991,0
4.779,18.823,0
4.78,15.527,0
4.781,12.78,0
4.782,10.217,0
4.783,11.315,0
4.784,12.78,0
4.785,11.498,0
4.786,12.231,0
4.787,12.048,0
4.788,12.231,0
4.789,12.78,0
4.79,13.696,0
4.791,11.681,0
4.792,9.118,0
4.793,11.132,0
4.794,9.85,0
4.795,10.033,0
4.796,14.062,0
4.797,22.485,0
4.798,40.978,0
4.799,75.951,0
4.8,52.148,0
4.801,39.33,0
4.802,3.808,0
4.803,-10.474,0
4.804,-14.686,0
4.805,-26.405,0
4.806,-29.884,0
4.807,-26.771,0
4.808,-29.7,0
4.809,-27.137,0
4.81,-19.996,0
4.811,-17.799,0
4.812,-15.784,0
4.813,-13.953,0
4.814,-9.01,0
4.815,-4.615,0
4.816,-5.897,0
4.817,-2.418,0
4.818,-1.319,0
4.819,-0.404,0
4.82,2.343,0
4.821,1.611,0
4.822,3.808,0
4.823,1.977,0
4.824,5.09,0
4.825,5.639,0
4.826,8.019,0
4.827,5.822,0
4.828,6.188,0
4.829,4.357,0
4.83,6.921,0
4.831,7.653,0
4.832,8.935,0
4.833,6.005,0
4.834,5.639,0
4.835,3.808,0
4.836,2.343,0
4.837,0.512,0
4.838,3.991,0
4.839,2.709,0
4.84,2.343,0
4.841,0.512,0
4.842,3.808,0
4.843,2.709,0
4.844,3.808,0
4.845,4.723,0
4.846,6.554,0
4.847,11.132,0
4.848,21.386,0
4.849,43.908,0
4.85,66.43,0
4.851,63.5,0
4.852,34.02,0
4.853,6.554,0
4.854,-18.348,0
4.855,-27.869,0
4.856,-36.658,0
4.857,-34.095,0
4.858,-36.475,0
4.859,-34.278,0
4.86,-32.264,0
4.861,-23.109,0
4.862,-21.461,0
4.863,-17.066,0
4.864,-15.784,0
4.865,-9.742,0
4.866,-10.841,0
4.867,-9.925,0
4.868,-9.01,0
4.869,-1.502,0
4.87,1.427,0
4.871,-3.15,0
4.872,-5.531,0
4.873,-1.685,0
4.874,1.611,0
4.875,-1.502,0
4.876,0.146,0
4.877,1.427,0
4.878,1.794,0
4.879,8.019,0
4.88,3.442,0
4.881,5.822,0
4.882,3.625,0
4.883,6.921,0
4.884,5.09,0
4.885,4.54,0
4.886,6.921,0
4.887,4.723,0
4.888,5.822,0
4.889,3.991,0
4.89,5.822,0
4.891,1.244,0
4.892,-0.587,0
4.893,-0.037,0
4.894,-1.685,0
4.895,1.611,0
4.896,4.723,0
4.897,5.09,0
4.898,3.991,0
4.899,2.892,0
4.9,1.794,0
4.901,2.526,0
4.902,1.244,0
4.903,5.273,0
4.904,13.696,0
4.905,19.738,0
4.906,11.865,0
4.907,18.823,0
4.908,32.739,0
4.909,62.951,0
4.91,41.344,0
4.911,13.879,0
4.912,-11.024,0
4.913,-20.545,0
4.914,-35.377,0
4.915,-37.94,0
4.916,-40.321,0
4.917,-38.123,0
4.918,-36.109,0
4.919,-30.616,0
4.92,-25.672,0
4.921,-24.207,0
4.922,-17.432,0
4.923,-16.334,0
4.924,-10.657,0
4.925,-7.728,0
4.926,-4.981,0
4.927,-7.362,0
4.928,-2.052,0
4.929,-0.22,0
4.93,4.174,0
4.931,2.526,0
4.932,3.808,0
4.933,3.442,0
4.934,3.808,0
4.935,8.019,0
4.936,9.667,0
4.937,8.385,0
4.938,7.104,0
4.939,8.202,0
4.94,9.301,0
4.941,3.808,0
4.942,9.118,0
4.943,10.949,0
4.944,7.836,0
4.945,5.09,0
4.946,4.723,0
4.947,7.653,0
4.948,9.85,0
4.949,16.076,0
4.95,28.161,0
4.951,49.767,0
4.952,64.599,0
4.953,67.162,0
4.954,40.429,0
4.955,8.202,0
4.956,-13.404,0
4.957,-25.123,0
4.958,-28.602,0
4.959,-31.715,0
4.96,-34.644,0
4.961,-32.081,0
4.962,-29.7,0
4.963,-27.503,0
4.964,-25.489,0
4.965,-19.996,0
4.966,-18.348,0
4.967,-13.953,0
4.968,-15.235,0
4.969,-11.756,0
4.97,-10.657,0
4.971,-9.742,0
4.972,-10.657,0
4.973,-4.981,0
4.974,-4.249,0
4.975,-3.699,0
4.976,0.695,0
4.977,-2.052,0
4.978,0.329,0
4.979,5.456,0
4.98,2.16,0
4.981,2.709,0
4.982,7.836,0
4.983,3.259,0
4.984,3.808,0
4.985,4.357,0
4.986,6.738,0
4.987,5.456,0
4.988,6.554,0
4.989,5.456,0
4.99,6.554,0
4.991,2.526,0
4.992,5.273,0
4.993,3.991,0
4.994,4.357,0
4.995,3.259,0
4.996,6.738,0
4.997,5.456,0
4.998,1.794,0
4.999,2.892,0
5,8.569,0
5.001,21.02,0
5.002,48.486,0
5.003,68.078,0
5.004,50.317,0
5.005,14.611,0
5.006,-9.193,0
5.007,-13.404,0
5.008,-25.123,0
5.009,-28.602,0
5.01,-25.489,0
5.011,-22.559,0
5.012,-25.123,0
5.013,-22.742,0
5.014,-20.545,0
5.015,-18.531,0
5.016,-16.7,0
5.017,-11.756,0
5.018,-10.291,0
5.019,-9.01,0
5.02,-7.911,0
5.021,-6.812,0
5.022,-1.868,0
5.023,-0.953,0
5.024,-1.685,0
5.025,-0.953,0
5.026,3.625,0
5.027,4.174,0
5.028,5.822,0
5.029,6.188,0
5.03,6.554,0
5.031,1.977,0
5.032,0.146,0
5.033,-1.502,0
5.034,3.991,0
5.035,6.188,0
5.036,5.639,0
5.037,3.808,0
5.038,4.357,0
5.039,1.977,0
5.04,6.188,0
5.041,2.343,0
5.042,2.709,0
5.043,5.822,0
5.044,6.188,0
5.045,3.625,0
5.046,6.921,0
5.047,3.075,0
5.048,2.709,0
5.049,3.259,0
5.05,0.146,0
5.051,6.371,0
5.052,20.287,0
5.053,46.471,0
5.054,64.233,0
5.055,48.119,0
5.056,21.386,0
5.057,-3.516,0
5.058,-19.63,0
5.059,-28.419,0
5.06,-30.982,0
5.061,-33.363,0
5.062,-31.165,0
5.063,-29.151,0
5.064,-23.658,0
5.065,-22.01,0
5.066,-20.545,0
5.067,-16.517,0
5.068,-15.418,0
5.069,-12.122,0
5.07,-9.193,0
5.071,-4.615,0
5.072,-5.347,0
5.073,-4.615,0
5.074,-6.446,0
5.075,-0.77,0
5.076,-1.502,0
5.077,3.075,0
5.078,-0.037,0
5.079,1.611,0
5.08,4.906,0
5.081,4.54,0
5.082,10.033,0
5.083,7.836,0
5.084,6.005,0
5.085,4.174,0
5.086,5.822,0
5.087,4.54,0
5.088,8.752,0
5.089,8.202,0
5.09,5.822,0
5.091,2.709,0
5.092,0.695,0
5.093,1.061,0
5.094,2.16,0
5.095,4.174,0
5.096,4.906,0
5.097,6.738,0
5.098,6.921,0
5.099,3.625,0
5.1,-1.136,0
5.101,1.977,0
5.102,8.202,0
5.103,22.118,0
5.104,40.246,0
5.105,52.331,0
5.106,54.528,0
5.107,52.514,0
5.108,25.048,0
5.109,-10.474,0
5.11,-24.757,0
5.111,-28.968,0
5.112,-40.687,0
5.113,-37.208,0
5.114,-40.321,0
5.115,-37.391,0
5.116,-29.517,0
5.117,-27.137,0
5.118,-24.94,0
5.119,-22.926,0
5.12,-21.094,0
5.121,-12.855,0
5.122,-11.39,0
5.123,-10.108,0
5.124,-6.629,0
5.125,-0.953,0
5.126,-0.037,0
5.127,0.878,0
5.128,4.906,0
5.129,5.639,0
5.13,5.09,0
5.131,4.54,0
5.132,5.09,0
5.133,3.808,0
5.134,6.005,0
5.135,3.259,0
5.136,6.738,0
5.137,4.54,0
5.138,5.639,0
5.139,6.005,0
5.14,7.836,0
5.141,3.259,0
5.142,5.09,0
5.143,-0.587,0
5.144,1.611,0
5.145,2.16,0
5.146,7.836,0
5.147,7.104,0
5.148,13.329,0
5.149,25.781,0
5.15,34.936,0
5.151,17.175,0
5.152,5.639,0
5.153,-1.868,0
5.154,-5.897,0
5.155,2.526,0
5.156,8.202,0
5.157,23.4,0
5.158,43.359,0
5.159,45.922,0
5.16,43.542,0
5.161,45.739,0
5.162,51.781,0
5.163,38.964,0
5.164,40.612,0
5.165,18.09,0
5.166,-30.616,0
5.167,-51.49,0
5.168,-57.716,0
5.169,-63.392,0
5.17,-58.265,0
5.171,-63.026,0
5.172,-58.814,0
5.173,-54.969,0
5.174,-51.49,0
5.175,-41.969,0
5.176,-33.179,0
5.177,-25.306,0
5.178,-18.165,0
5.179,-15.968,0
5.18,-9.925,0
5.181,-4.432,0
5.182,0.512,0
5.183,4.906,0
5.184,3.625,0
5.185,7.104,0
5.186,12.78,0
5.187,15.71,0
5.188,14.794,0
5.189,15.527,0
5.19,16.259,0
5.191,10.033,0
5.192,14.062,0
5.193,11.865,0
5.194,10.033,0
5.195,10.583,0
5.196,11.132,0
5.197,9.85,0
5.198,9.484,0
5.199,4.906,0
5.2,6.738,0
5.201,9.484,0
5.202,9.85,0
5.203,6.554,0
5.204,11.681,0
5.205,21.935,0
5.206,44.457,0
5.207,60.571,0
5.208,69.36,0
5.209,50.683,0
5.21,28.71,0
5.211,1.977,0
5.212,-15.784,0
5.213,-25.306,0
5.214,-34.095,0
5.215,-36.658,0
5.216,-39.039,0
5.217,-32.447,0
5.218,-38.49,0
5.219,-29.334,0
5.22,-24.39,0
5.221,-19.996,0
5.222,-18.714,0
5.223,-15.235,0
5.224,-11.939,0
5.225,-11.024,0
5.226,-8.277,0
5.227,-5.897,0
5.228,-3.699,0
5.229,-1.868,0
5.23,3.808,0
5.231,6.005,0
5.232,4.174,0
5.233,6.005,0
5.234,4.357,0
5.235,5.639,0
5.236,6.921,0
5.237,4.174,0
5.238,4.54,0
5.239,6.371,0
5.24,5.639,0
5.241,2.526,0
5.242,4.54,0
5.243,8.752,0
5.244,7.104,0
5.245,4.723,0
5.246,6.005,0
5.247,5.639,0
5.248,7.47,0
5.249,5.639,0
5.25,2.343,0
5.251,3.625,0
5.252,3.991,0
5.253,1.794,0
5.254,0.695,0
5.255,6.188,0
5.256,17.724,0
5.257,42.626,0
5.258,60.387,0
5.259,57.275,0
5.26,30.541,0
5.261,-1.685,0
5.262,-14.503,0
5.263,-26.221,0
5.264,-29.7,0
5.265,-32.813,0
5.266,-35.743,0
5.267,-33.179,0
5.268,-30.799,0
5.269,-24.207,0
5.27,-26.221,0
5.271,-20.728,0
5.272,-19.08,0
5.273,-11.573,0
5.274,-15.601,0
5.275,-7.178,0
5.276,-6.08,0
5.277,-5.164,0
5.278,1.244,0
5.279,5.273,0
5.28,1.427,0
5.281,1.977,0
5.282,1.427,0
5.283,3.075,0
5.284,4.357,0
5.285,5.639,0
5.286,1.061,0
5.287,4.174,0
5.288,3.625,0
5.289,2.343,0
5.29,-0.77,0
5.291,-0.404,0
5.292,3.808,0
5.293,6.554,0
5.294,6.188,0
5.295,3.991,0
5.296,2.892,0
5.297,3.259,0
5.298,4.357,0
5.299,3.625,0
5.3,5.456,0
5.301,2.526,0
5.302,2.892,0
5.303,1.061,0
5.304,2.526,0
5.305,1.061,0
5.306,5.273,0
5.307,14.794,0
5.308,35.302,0
5.309,62.035,0
5.31,72.656,0
5.311,50.134,0
5.312,11.498,0
5.313,-14.686,0
5.314,-28.968,0
5.315,-33.179,0
5.316,-37.025,0
5.317,-33.546,0
5.318,-36.658,0
5.319,-27.869,0
5.32,-30.433,0
5.321,-23.292,0
5.322,-25.489,0
5.323,-19.447,0
5.324,-17.615,0
5.325,-12.672,0
5.326,-11.207,0
5.327,-7.178,0
5.328,-3.699,0
5.329,-4.798,0
5.33,-5.714,0
5.331,-2.967,0
5.332,-3.699,0
5.333,-1.502,0
5.334,3.075,0
5.335,4.906,0
5.336,7.653,0
5.337,8.019,0
5.338,6.738,0
5.339,3.991,0
5.34,5.822,0
5.341,5.456,0
5.342,6.921,0
5.343,7.653,0
5.344,6.921,0
5.345,10.033,0
5.346,8.935,0
5.347,6.371,0
5.348,9.667,0
5.349,9.301,0
5.35,3.625,0
5.351,2.892,0
5.352,3.625,0
5.353,8.202,0
5.354,8.752,0
5.355,5.456,0
5.356,8.202,0
5.357,12.78,0
5.358,22.302,0
5.359,42.809,0
5.36,69.543,0
5.361,73.022,0
5.362,50.5,0
5.363,11.865,0
5.364,-3.699,0
5.365,-27.503,0
5.366,-31.715,0
5.367,-35.56,0
5.368,-39.039,0
5.369,-42.152,0
5.37,-33.363,0
5.371,-35.926,0
5.372,-28.785,0
5.373,-26.588,0
5.374,-24.573,0
5.375,-19.08,0
5.376,-17.432,0
5.377,-15.968,0
5.378,-9.193,0
5.379,-5.714,0
5.38,-4.615,0
5.381,-5.531,0
5.382,-0.953,0
5.383,1.427,0
5.384,5.273,0
5.385,5.822,0
5.386,6.371,0
5.387,3.625,0
5.388,4.906,0
5.389,2.709,0
5.39,3.075,0
5.391,4.174,0
5.392,7.47,0
5.393,7.104,0
5.394,12.78,0
5.395,25.231,0
5.396,38.049,0
5.397,19.738,0
5.398,2.892,0
5.399,-3.699,0
5.4,-1.685,0
5.401,-7.178,0
5.402,-5.531,0
5.403,-6.995,0
5.404,-2.967,0
5.405,-6.446,0
5.406,-7.728,0
5.407,-4.432,0
5.408,10.766,0
5.409,26.147,0
5.41,52.331,0
5.411,62.951,0
5.412,72.472,0
5.413,45.739,0
5.414,6.371,0
5.415,-9.193,0
5.416,-23.475,0
5.417,-36.292,0
5.418,-32.447,0
5.419,-35.926,0
5.42,-32.813,0
5.421,-29.884,0
5.422,-32.447,0
5.423,-25.306,0
5.424,-23.109,0
5.425,-21.094,0
5.426,-19.263,0
5.427,-11.024,0
5.428,-9.559,0
5.429,-8.277,0
5.43,-7.178,0
5.431,-1.502,0
5.432,-2.418,0
5.433,3.991,0
5.434,3.259,0
5.435,5.456,0
5.436,7.287,0
5.437,7.836,0
5.438,7.287,0
5.439,6.921,0
5.44,6.554,0
5.441,7.653,0
5.442,11.132,0
5.443,12.414,0
5.444,12.048,0
5.445,14.611,0
5.446,17.175,0
5.447,17.907,0
5.448,16.076,0
5.449,20.104,0
5.45,27.428,0
5.451,32.372,0
5.452,35.119,0
5.453,25.964,0
5.454,19.921,0
5.455,21.02,0
5.456,20.104,0
5.457,17.175,0
5.458,5.09,0
5.459,0.146,0
5.46,7.653,0
5.461,14.428,0
5.462,20.47,0
5.463,32.922,0
5.464,14.611,0
5.465,-2.235,0
5.466,-22.193,0
5.467,-35.56,0
5.468,-62.293,0
5.469,-80.054,0
5.47,-102.58,0
5.471,-129.31,0
5.472,-139.93,0
5.473,-143.04,0
5.474,-151.83,0
5.475,-159.71,0
5.476,-171.79,0
5.477,-169.59,0
5.478,-155.49,0
5.479,-139.01,0
5.48,-119.06,0
5.481,-89.576,0
5.482,-30.433,0
5.483,79.797,0
5.484,124.84,0
5.485,165.67,0
5.486,153.22,0
5.487,119.53,0
5.488,109.28,0
5.489,99.938,0
5.49,91.515,0
5.491,83.825,0
5.492,104.7,0
5.493,123.56,0
5.494,140.77,0
5.495,156.34,0
5.496,161.09,0
5.497,156.88,0
5.498,137.29,0
5.499,126.67,0
5.5,129.78,0
5.501,109.09,0
5.502,84.924,0
5.503,62.402,0
5.504,41.711,0
5.505,33.837,0
5.506,36.218,0
5.507,29.626,0
5.508,24.499,0
5.509,14.428,0
5.51,19.921,0
5.511,21.569,0
5.512,23.034,0
5.513,43.542,0
5.514,58.373,0
5.515,23.4,0
5.516,-19.63,0
5.517,-48.377,0
5.518,-63.941,0
5.519,-78.223,0
5.52,-82.435,0
5.521,-86.28,0
5.522,-89.759,0
5.523,-92.872,0
5.524,-89.942,0
5.525,-97.816,0
5.526,-95.435,0
5.527,-97.633,0
5.528,-95.618,0
5.529,-86.463,0
5.53,-78.223,0
5.531,-73.829,0
5.532,-67.054,0
5.533,-58.631,0
5.534,-52.955,0
5.535,-45.997,0
5.536,-37.574,0
5.537,-29.7,0
5.538,-26.771,0
5.539,-20.362,0
5.54,-21.094,0
5.541,-15.784,0
5.542,-12.489,0
5.543,-10.657,0
5.544,-7.911,0
5.545,-4.615,0
5.546,-1.502,0
5.547,2.343,0
5.548,3.625,0
5.549,5.822,0
5.55,6.921,0
5.551,9.484,0
5.552,10.583,0
5.553,10.766,0
5.554,12.597,0
5.555,13.329,0
5.556,13.512,0
5.557,12.963,0
5.558,12.048,0
5.559,12.78,0
5.56,14.428,0
5.561,17.724,0
5.562,24.682,0
5.563,39.88,0
5.564,73.022,0
5.565,49.218,0
5.566,19.006,0
5.567,-0.587,0
5.568,-11.207,0
5.569,-14.32,0
5.57,-17.249,0
5.571,-19.813,0
5.572,-17.432,0
5.573,-19.63,0
5.574,-17.615,0
5.575,-15.784,0
5.576,-10.841,0
5.577,-9.376,0
5.578,-8.094,0
5.579,-6.995,0
5.58,-1.319,0
5.581,1.611,0
5.582,2.526,0
5.583,1.794,0
5.584,3.991,0
5.585,4.54,0
5.586,5.09,0
5.587,7.836,0
5.588,7.47,0
5.589,8.752,0
5.59,10.766,0
5.591,5.822,0
5.592,5.273,0
5.593,8.385,0
5.594,3.259,0
5.595,7.836,0
5.596,6.005,0
5.597,8.752,0
5.598,6.371,0
5.599,9.484,0
5.6,10.583,0
5.601,8.019,0
5.602,5.456,0
5.603,3.442,0
5.604,4.723,0
5.605,5.456,0
5.606,1.977,0
5.607,3.259,0
5.608,3.625,0
5.609,5.639,0
5.61,4.723,0
5.611,0.512,0
5.612,8.935,0
5.613,20.104,0
5.614,42.626,0
5.615,52.148,0
5.616,55.077,0
5.617,57.641,0
5.618,55.26,0
5.619,39.88,0
5.62,13.696,0
5.621,-18.531,0
5.622,-31.348,0
5.623,-43.067,0
5.624,-46.546,0
5.625,-49.659,0
5.626,-40.87,0
5.627,-38.306,0
5.628,-40.687,0
5.629,-38.49,0
5.63,-32.447,0
5.631,-26.954,0
5.632,-22.01,0
5.633,-14.503,0
5.634,-7.728,0
5.635,-6.629,0
5.636,-5.531,0
5.637,-2.601,0
5.638,-1.685,0
5.639,0.695,0
5.64,4.54,0
5.641,14.794,0
5.642,28.344,0
5.643,15.527,0
5.644,7.287,0
5.645,-0.22,0
5.646,-1.502,0
5.647,-0.404,0
5.648,2.892,0
5.649,-2.052,0
5.65,-1.136,0
5.651,2.892,0
5.652,2.16,0
5.653,-2.418,0
5.654,0.695,0
5.655,1.244,0
5.656,-0.037,0
5.657,2.16,0
5.658,1.061,0
5.659,2.892,0
5.66,1.061,0
5.661,3.259,0
5.662,6.005,0
5.663,11.681,0
5.664,24.133,0
5.665,47.936,0
5.666,70.458,0
5.667,67.529,0
5.668,43.359,0
5.669,14.062,0
5.67,-5.531,0
5.671,-16.151,0
5.672,-32.264,0
5.673,-29.334,0
5.674,-31.898,0
5.675,-34.278,0
5.676,-27.686,0
5.677,-25.672,0
5.678,-20.179,0
5.679,-18.531,0
5.68,-17.066,0
5.681,-13.038,0
5.682,-11.939,0
5.683,-6.263,0
5.684,-5.347,0
5.685,-4.432,0
5.686,-3.699,0
5.687,-2.967,0
5.688,-1.136,0
5.689,0.695,0
5.69,-3.15,0
5.691,1.427,0
5.692,1.977,0
5.693,5.822,0
5.694,5.456,0
5.695,5.822,0
5.696,4.723,0
5.697,7.287,0
5.698,4.723,0
5.699,5.456,0
5.7,1.244,0
5.701,4.357,0
5.702,4.906,0
5.703,3.625,0
5.704,5.822,0
5.705,4.723,0
5.706,2.892,0
5.707,6.921,0
5.708,3.625,0
5.709,6.738,0
5.71,4.723,0
5.711,5.822,0
5.712,4.723,0
5.713,5.09,0
5.714,9.667,0
5.715,19.921,0
5.716,42.443,0
5.717,78.149,0
5.718,54.345,0
5.719,24.133,0
5.72,-3.333,0
5.721,-13.953,0
5.722,-23.475,0
5.723,-26.405,0
5.724,-28.968,0
5.725,-31.348,0
5.726,-24.757,0
5.727,-26.771,0
5.728,-21.278,0
5.729,-19.63,0
5.73,-15.235,0
5.731,-13.953,0
5.732,-10.474,0
5.733,-11.573,0
5.734,-6.629,0
5.735,-5.714,0
5.736,-3.333,0
5.737,-4.066,0
5.738,-4.615,0
5.739,-1.502,0
5.74,-0.953,0
5.741,1.427,0
5.742,-0.77,0
5.743,1.977,0
5.744,3.075,0
5.745,4.906,0
5.746,4.723,0
5.747,2.892,0
5.748,0.512,0
5.749,-0.953,0
5.75,0.878,0
5.751,4.906,0
5.752,6.554,0
5.753,6.188,0
5.754,5.822,0
5.755,1.244,0
5.756,0.695,0
5.757,3.442,0
5.758,2.16,0
5.759,-2.052,0
5.76,0.695,0
5.761,0.329,0
5.762,1.611,0
5.763,-0.404,0
5.764,1.611,0
5.765,7.287,0
5.766,14.794,0
5.767,29.992,0
5.768,63.134,0
5.769,48.852,0
5.77,18.639,0
5.771,-0.953,0
5.772,-18.714,0
5.773,-21.827,0
5.774,-30.616,0
5.775,-33.179,0
5.776,-30.799,0
5.777,-28.602,0
5.778,-26.588,0
5.779,-21.094,0
5.78,-19.447,0
5.781,-15.052,0
5.782,-11.024,0
5.783,-9.925,0
5.784,-8.826,0
5.785,-3.883,0
5.786,-4.798,0
5.787,-2.418,0
5.788,-0.22,0
5.789,-0.77,0
5.79,2.343,0
5.791,1.794,0
5.792,4.174,0
5.793,5.456,0
5.794,4.357,0
5.795,3.259,0
5.796,3.625,0
5.797,3.808,0
5.798,3.075,0
5.799,5.456,0
5.8,3.442,0
5.801,4.723,0
5.802,4.906,0
5.803,8.385,0
5.804,8.019,0
5.805,3.808,0
5.806,1.061,0
5.807,2.343,0
5.808,3.625,0
5.809,3.259,0
5.81,0.695,0
5.811,0.329,0
5.812,2.343,0
5.813,1.611,0
5.814,3.991,0
5.815,4.174,0
5.816,7.653,0
5.817,15.16,0
5.818,32.189,0
5.819,63.866,0
5.82,68.078,0
5.821,32.555,0
5.822,8.752,0
5.823,-12.855,0
5.824,-24.573,0
5.825,-28.052,0
5.826,-31.165,0
5.827,-34.095,0
5.828,-31.531,0
5.829,-24.39,0
5.83,-22.193,0
5.831,-24.207,0
5.832,-22.376,0
5.833,-20.728,0
5.834,-19.263,0
5.835,-12.489,0
5.836,-13.587,0
5.837,-10.291,0
5.838,-3.333,0
5.839,-2.418,0
5.84,-4.798,0
5.841,-4.066,0
5.842,-4.615,0
5.843,-2.784,0
5.844,4.54,0
5.845,5.456,0
5.846,10.033,0
5.847,6.005,0
5.848,3.808,0
5.849,1.977,0
5.85,5.09,0
5.851,7.836,0
5.852,7.47,0
5.853,4.357,0
5.854,4.723,0
5.855,6.554,0
5.856,4.723,0
5.857,1.977,0
5.858,0.878,0
5.859,1.244,0
5.86,0.512,0
5.861,1.794,0
5.862,2.526,0
5.863,1.977,0
5.864,3.442,0
5.865,4.723,0
5.866,2.526,0
5.867,6.738,0
5.868,16.259,0
5.869,36.767,0
5.87,69.36,0
5.871,56.542,0
5.872,21.02,0
5.873,-2.784,0
5.874,-15.601,0
5.875,-19.447,0
5.876,-22.926,0
5.877,-32.447,0
5.878,-29.517,0
5.879,-26.954,0
5.88,-19.813,0
5.881,-22.01,0
5.882,-19.996,0
5.883,-18.165,0
5.884,-16.517,0
5.885,-15.052,0
5.886,-0.037,0
5.887,14.062,0
5.888,12.231,0
5.889,0.695,0
5.89,-3.699,0
5.891,-4.981,0
5.892,-8.46,0
5.893,-11.756,0
5.894,-8.826,0
5.895,-6.08,0
5.896,-5.347,0
5.897,-3.15,0
5.898,-6.446,0
5.899,-4.615,0
5.9,0.512,0
5.901,-0.037,0
5.902,-0.587,0
5.903,2.16,0
5.904,1.794,0
5.905,-1.319,0
5.906,1.427,0
5.907,3.991,0
5.908,2.16,0
5.909,2.892,0
5.91,1.611,0
5.911,5.639,0
5.912,2.892,0
5.913,3.259,0
5.914,6.371,0
5.915,3.625,0
5.916,4.723,0
5.917,3.625,0
5.918,7.653,0
5.919,15.16,0
5.92,32.189,0
5.921,54.162,0
5.922,68.993,0
5.923,66.43,0
5.924,39.697,0
5.925,7.47,0
5.926,-14.136,0
5.927,-33.729,0
5.928,-37.208,0
5.929,-40.321,0
5.93,-37.391,0
5.931,-34.827,0
5.932,-32.447,0
5.933,-34.644,0
5.934,-28.602,0
5.935,-26.771,0
5.936,-18.531,0
5.937,-14.136,0
5.938,-10.108,0
5.939,-11.207,0
5.94,-3.333,0
5.941,-2.418,0
5.942,-3.333,0
5.943,-0.953,0
5.944,1.244,0
5.945,3.075,0
5.946,3.625,0
5.947,7.47,0
5.948,7.104,0
5.949,5.822,0
5.95,11.315,0
5.951,7.47,0
5.952,8.019,0
5.953,7.47,0
5.954,3.625,0
5.955,3.991,0
5.956,4.357,0
5.957,4.723,0
5.958,2.16,0
5.959,2.526,0
5.96,-0.22,0
5.961,1.611,0
5.962,6.371,0
5.963,3.259,0
5.964,2.709,0
5.965,3.991,0
5.966,6.188,0
5.967,6.188,0
5.968,5.09,0
5.969,10.766,0
5.97,23.217,0
5.971,50.683,0
5.972,70.275,0
5.973,52.514,0
5.974,16.808,0
5.975,-6.995,0
5.976,-19.813,0
5.977,-23.658,0
5.978,-27.137,0
5.979,-30.25,0
5.98,-27.32,0
5.981,-24.757,0
5.982,-22.376,0
5.983,-20.179,0
5.984,-18.165,0
5.985,-16.334,0
5.986,-11.39,0
5.987,-9.925,0
5.988,-8.643,0
5.989,-7.545,0
5.99,-8.643,0
5.991,-1.685,0
5.992,-4.432,0
5.993,-3.699,0
5.994,-1.502,0
5.995,1.794,0
5.996,7.47,0
5.997,2.16,0
5.998,2.709,0
5.999,4.54,0
6,1.794,0
6.001,2.16,0
6.002,5.273,0
6.003,7.287,0
6.004,3.808,0
6.005,6.005,0
6.006,4.906,0
6.007,0.695,0
6.008,2.343,0
6.009,-2.235,0
6.01,2.16,0
6.011,1.611,0
6.012,4.906,0
6.013,7.104,0
6.014,6.005,0
6.015,7.836,0
6.016,3.075,0
6.017,4.906,0
6.018,6.188,0
6.019,3.442,0
6.02,10.949,0
6.021,23.4,0
6.022,41.711,0
6.023,48.852,0
6.024,64.233,0
6.025,42.077,0
6.026,27.245,0
6.027,-7.728,0
6.028,-22.01,0
6.029,-34.827,0
6.03,-38.673,0
6.031,-35.194,0
6.032,-32.081,0
6.033,-35.01,0
6.034,-32.447,0
6.035,-30.067,0
6.036,-27.869,0
6.037,-25.855,0
6.038,-20.362,0
6.039,-12.122,0
6.04,-7.728,0
6.041,-9.01,0
6.042,-2.967,0
6.043,-6.263,0
6.044,-5.347,0
6.045,-2.601,0
6.046,-1.868,0
6.047,0.329,0
6.048,2.16,0
6.049,2.709,0
6.05,3.259,0
6.051,2.892,0
6.052,5.09,0
6.053,7.104,0
6.054,5.273,0
6.055,7.836,0
6.056,6.371,0
6.057,5.639,0
6.058,8.569,0
6.059,8.202,0
6.06,7.104,0
6.061,7.836,0
6.062,8.569,0
6.063,5.639,0
6.064,3.808,0
6.065,4.906,0
6.066,3.442,0
6.067,3.259,0
6.068,-0.77,0
6.069,1.794,0
6.07,0.146,0
6.071,-2.235,0
6.072,4.723,0
6.073,19.921,0
6.074,53.063,0
6.075,67.345,0
6.076,71.557,0
6.077,44.091,0
6.078,11.865,0
6.079,-18.348,0
6.08,-30.067,0
6.081,-33.546,0
6.082,-36.658,0
6.083,-39.588,0
6.084,-37.025,0
6.085,-34.644,0
6.086,-32.447,0
6.087,-26.405,0
6.088,-24.573,0
6.089,-22.926,0
6.09,-21.461,0
6.091,-17.432,0
6.092,-11.39,0
6.093,-5.714,0
6.094,-4.798,0
6.095,-3.883,0
6.096,1.794,0
6.097,5.639,0
6.098,5.09,0
6.099,5.639,0
6.1,5.09,0
6.101,5.456,0
6.102,2.343,0
6.103,2.709,0
6.104,6.188,0
6.105,8.385,0
6.106,11.132,0
6.107,6.921,0
6.108,4.174,0
6.109,4.54,0
6.11,2.343,0
6.111,-0.404,0
6.112,2.16,0
6.113,3.991,0
6.114,5.456,0
6.115,6.188,0
6.116,3.259,0
6.117,4.357,0
6.118,0.329,0
6.119,3.625,0
6.12,4.723,0
6.121,4.357,0
6.122,10.583,0
6.123,24.499,0
6.124,54.711,0
6.125,67.529,0
6.126,55.81,0
6.127,23.583,0
6.128,1.977,0
6.129,-17.615,0
6.13,-21.094,0
6.131,-30.616,0
6.132,-9.925,0
6.133,3.442,0
6.134,-8.643,0
6.135,-19.63,0
6.136,-25.672,0
6.137,-23.841,0
6.138,-22.193,0
6.139,-23.658,0
6.14,-19.63,0
6.141,-20.728,0
6.142,-17.432,0
6.143,-10.474,0
6.144,-9.559,0
6.145,-8.826,0
6.146,-4.981,0
6.147,-8.277,0
6.148,-6.446,0
6.149,-3.699,0
6.15,-0.404,0
6.151,3.808,0
6.152,4.357,0
6.153,4.723,0
6.154,5.09,0
6.155,1.244,0
6.156,3.625,0
6.157,3.259,0
6.158,4.357,0
6.159,6.188,0
6.16,3.625,0
6.161,-0.953,0
6.162,3.625,0
6.163,6.738,0
6.164,10.583,0
6.165,7.287,0
6.166,7.653,0
6.167,6.554,0
6.168,6.921,0
6.169,8.019,0
6.17,3.991,0
6.171,3.991,0
6.172,2.343,0
6.173,6.921,0
6.174,16.442,0
6.175,36.95,0
6.176,51.781,0
6.177,54.345,0
6.178,47.204,0
6.179,27.245,0
6.18,3.075,0
6.181,-13.038,0
6.182,-33.729,0
6.183,-31.165,0
6.184,-38.306,0
6.185,-40.504,0
6.186,-34.461,0
6.187,-32.63,0
6.188,-27.686,0
6.189,-23.292,0
6.19,-22.01,0
6.191,-18.531,0
6.192,-15.235,0
6.193,-12.305,0
6.194,-5.897,0
6.195,-3.516,0
6.196,0.329,0
6.197,-0.22,0
6.198,4.174,0
6.199,5.822,0
6.2,5.456,0
6.201,5.822,0
6.202,9.667,0
6.203,7.287,0
6.204,3.075,0
6.205,5.822,0
6.206,8.202,0
6.207,8.569,0
6.208,3.991,0
6.209,2.16,0
6.21,6.005,0
6.211,3.625,0
6.212,2.343,0
6.213,5.09,0
6.214,2.526,0
6.215,5.822,0
6.216,3.075,0
6.217,1.977,0
6.218,0.878,0
6.219,2.343,0
6.22,1.611,0
6.221,-0.22,0
6.222,-0.404,0
6.223,-0.22,0
6.224,3.075,0
6.225,10.033,0
6.226,25.231,0
6.227,58.373,0
6.228,72.656,0
6.229,42.443,0
6.23,6.921,0
6.231,-7.362,0
6.232,-20.179,0
6.233,-24.024,0
6.234,-27.503,0
6.235,-30.616,0
6.236,-33.546,0
6.237,-30.982,0
6.238,-23.841,0
6.239,-21.644,0
6.24,-19.63,0
6.241,-17.799,0
6.242,-12.855,0
6.243,-11.39,0
6.244,-7.362,0
6.245,-6.263,0
6.246,-7.362,0
6.247,-4.432,0
6.248,-9.01,0
6.249,-6.629,0
6.25,1.794,0
6.251,0.695,0
6.252,1.611,0
6.253,2.526,0
6.254,4.906,0
6.255,5.639,0
6.256,3.808,0
6.257,1.977,0
6.258,10.4,0
6.259,6.921,0
6.26,8.019,0
6.261,5.09,0
6.262,7.836,0
6.263,10.217,0
6.264,8.019,0
6.265,1.794,0
6.266,1.061,0
6.267,3.259,0
6.268,5.09,0
6.269,3.259,0
6.27,0.512,0
6.271,1.794,0
6.272,4.906,0
6.273,7.653,0
6.274,4.906,0
6.275,10.583,0
6.276,23.034,0
6.277,43.176,0
6.278,56.542,0
6.279,78.515,0
6.28,63.683,0
6.281,34.203,0
6.282,-1.319,0
6.283,-25.123,0
6.284,-29.334,0
6.285,-33.179,0
6.286,-36.658,0
6.287,-33.546,0
6.288,-30.616,0
6.289,-22.742,0
6.29,-15.601,0
6.291,-4.615,0
6.292,1.427,0
6.293,6.921,0
6.294,11.865,0
6.295,10.4,0
6.296,11.681,0
6.297,10.583,0
6.298,9.484,0
6.299,6.554,0
6.3,-1.868,0
6.301,-9.742,0
6.302,-18.897,0
6.303,-24.94,0
6.304,-30.616,0
6.305,-33.546,0
6.306,-28.968,0
6.307,-16.517,0
6.308,-3.699,0
6.309,-15.235,0
6.31,-34.827,0
6.311,-53.504,0
6.312,-70.35,0
6.313,-103.49,0
6.314,-108.25,0
6.315,-112.46,0
6.316,-124.18,0
6.317,-141.94,0
6.318,-151.47,0
6.319,-142.68,0
6.32,-129.31,0
6.321,-117.22,0
6.322,-97.266,0
6.323,-56.983,0
6.324,32.555,0
6.325,96.093,0
6.326,155.24,0
6.327,178.31,0
6.328,185.26,0
6.329,179.04,0
6.33,150.29,0
6.331,124.11,0
6.332,100.3,0
6.333,96.093,0
6.334,99.938,0
6.335,110.56,0
6.336,120.08,0
6.337,128.87,0
6.338,126.31,0
6.339,119.16,0
6.34,103.78,0
6.341,101.77,0
6.342,85.29,0
6.343,65.331,0
6.344,41.161,0
6.345,31.64,0
6.346,28.71,0
6.347,31.274,0
6.348,28.893,0
6.349,17.907,0
6.35,11.865,0
6.351,10.033,0
6.352,-4.981,0
6.353,-19.08,0
6.354,-17.249,0
6.355,-18.897,0
6.356,-23.292,0
6.357,-35.56,0
6.358,-37.208,0
6.359,-41.602,0
6.36,-37.574,0
6.361,-43.616,0
6.362,-46.912,0
6.363,-47.828,0
6.364,-58.082,0
6.365,-62.11,0
6.366,-65.589,0
6.367,-73.463,0
6.368,-72.547,0
6.369,-69.801,0
6.37,-64.124,0
6.371,-66.322,0
6.372,-61.744,0
6.373,-58.631,0
6.374,-52.406,0
6.375,-46.546,0
6.376,-42.518,0
6.377,-30.982,0
6.378,-6.08,0
6.379,4.54,0
6.38,-4.981,0
6.381,-7.911,0
6.382,10.766,0
6.383,27.612,0
6.384,47.57,0
6.385,28.893,0
6.386,12.048,0
6.387,-12.305,0
6.388,-28.419,0
6.389,-37.208,0
6.39,-39.771,0
6.391,-42.152,0
6.392,-39.954,0
6.393,-37.94,0
6.394,-32.447,0
6.395,-27.503,0
6.396,-23.109,0
6.397,-19.08,0
6.398,-13.038,0
6.399,-7.362,0
6.4,-6.446,0
6.401,-1.868,0
6.402,2.16,0
6.403,6.005,0
6.404,7.836,0
6.405,9.667,0
6.406,9.118,0
6.407,5.822,0
6.408,12.78,0
6.409,13.696,0
6.41,16.442,0
6.411,14.062,0
6.412,13.329,0
6.413,13.879,0
6.414,19.555,0
6.415,18.823,0
6.416,20.654,0
6.417,16.259,0
6.418,16.808,0
6.419,10.217,0
6.42,7.47,0
6.421,3.442,0
6.422,8.752,0
6.423,9.301,0
6.424,9.85,0
6.425,14.977,0
6.426,9.85,0
6.427,14.428,0
6.428,23.949,0
6.429,30.724,0
6.43,49.218,0
6.431,84.191,0
6.432,60.387,0
6.433,30.175,0
6.434,-5.347,0
6.435,-10.108,0
6.436,-22.926,0
6.437,-26.771,0
6.438,-23.292,0
6.439,-26.405,0
6.44,-23.475,0
6.441,-26.038,0
6.442,-18.897,0
6.443,-12.305,0
6.444,-10.291,0
6.445,-12.122,0
6.446,-10.474,0
6.447,-6.08,0
6.448,-4.798,0
6.449,-3.699,0
6.45,-2.601,0
6.451,-1.685,0
6.452,4.723,0
6.453,3.991,0
6.454,6.188,0
6.455,2.892,0
6.456,4.723,0
6.457,5.273,0
6.458,8.569,0
6.459,7.287,0
6.46,4.54,0
6.461,-0.404,0
6.462,2.892,0
6.463,2.343,0
6.464,2.892,0
6.465,5.273,0
6.466,8.385,0
6.467,10.4,0
6.468,6.188,0
6.469,3.442,0
6.47,2.16,0
6.471,-0.953,0
6.472,3.625,0
6.473,0.512,0
6.474,-0.037,0
6.475,2.343,0
6.476,0.146,0
6.477,-0.404,0
6.478,1.611,0
6.479,1.977,0
6.48,7.47,0
6.481,19.006,0
6.482,43.908,0
6.483,54.528,0
6.484,57.641,0
6.485,72.472,0
6.486,48.302,0
6.487,12.597,0
6.488,-20.728,0
6.489,-42.335,0
6.49,-54.053,0
6.491,-50.574,0
6.492,-53.687,0
6.493,-50.758,0
6.494,-48.194,0
6.495,-36.109,0
6.496,-33.912,0
6.497,-27.869,0
6.498,-26.038,0
6.499,-21.094,0
6.5,-16.7,0
6.501,-9.925,0
6.502,-11.024,0
6.503,-5.347,0
6.504,-4.432,0
6.505,-1.685,0
6.506,2.343,0
6.507,1.611,0
6.508,2.16,0
6.509,1.611,0
6.51,2.16,0
6.511,5.456,0
6.512,2.343,0
6.513,5.09,0
6.514,9.301,0
6.515,4.174,0
6.516,7.47,0
6.517,6.921,0
6.518,10.766,0
6.519,12.048,0
6.52,12.414,0
6.521,13.512,0
6.522,10.949,0
6.523,6.921,0
6.524,4.54,0
6.525,4.906,0
6.526,6.005,0
6.527,5.639,0
6.528,1.061,0
6.529,5.822,0
6.53,15.344,0
6.531,33.105,0
6.532,64.782,0
6.533,68.993,0
6.534,41.528,0
6.535,9.301,0
6.536,-3.516,0
6.537,-15.235,0
6.538,-25.855,0
6.539,-28.968,0
6.54,-26.038,0
6.541,-28.602,0
6.542,-26.221,0
6.543,-24.024,0
6.544,-17.982,0
6.545,-16.151,0
6.546,-7.911,0
6.547,-6.446,0
6.548,-5.164,0
6.549,-4.066,0
6.55,-5.164,0
6.551,-10.108,0
6.552,-3.699,0
6.553,-1.319,0
6.554,-3.516,0
6.555,-1.685,0
6.556,2.709,0
6.557,-1.136,0
6.558,4.357,0
6.559,5.09,0
6.56,4.54,0
6.561,5.09,0
6.562,7.836,0
6.563,8.202,0
6.564,6.005,0
6.565,8.752,0
6.566,9.118,0
6.567,8.019,0
6.568,5.273,0
6.569,4.174,0
6.57,5.273,0
6.571,1.977,0
6.572,4.174,0
6.573,3.808,0
6.574,3.442,0
6.575,3.808,0
6.576,4.54,0
6.577,2.709,0
6.578,1.977,0
6.579,5.456,0
6.58,2.343,0
6.581,8.569,0
6.582,22.485,0
6.583,28.527,0
6.584,55.993,0
6.585,75.585,0
6.586,57.824,0
6.587,15.527,0
6.588,-13.221,0
6.589,-28.785,0
6.59,-33.546,0
6.591,-37.757,0
6.592,-33.912,0
6.593,-37.391,0
6.594,-40.504,0
6.595,-37.574,0
6.596,-29.7,0
6.597,-27.32,0
6.598,-20.728,0
6.599,-14.686,0
6.6,-12.855,0
6.601,-11.207,0
6.602,-15.601,0
6.603,-11.573,0
6.604,-5.531,0
6.605,-2.235,0
6.606,-1.319,0
6.607,-0.404,0
6.608,3.625,0
6.609,1.427,0
6.61,1.977,0
6.611,3.808,0
6.612,2.16,0
6.613,1.794,0
6.614,1.427,0
6.615,-0.587,0
6.616,5.09,0
6.617,7.47,0
6.618,5.273,0
6.619,4.723,0
6.62,6.554,0
6.621,-0.77,0
6.622,2.16,0
6.623,10.583,0
6.624,27.612,0
6.625,34.753,0
6.626,19.372,0
6.627,9.301,0
6.628,3.808,0
6.629,-1.136,0
6.63,-1.136,0
6.631,-5.531,0
6.632,3.991,0
6.633,12.414,0
6.634,29.443,0
6.635,56.176,0
6.636,66.796,0
6.637,50.683,0
6.638,6.188,0
6.639,-12.672,0
6.64,-29.884,0
6.641,-35.01,0
6.642,-39.771,0
6.643,-35.56,0
6.644,-31.715,0
6.645,-28.236,0
6.646,-25.123,0
6.647,-16.334,0
6.648,-18.897,0
6.649,-16.517,0
6.65,-18.714,0
6.651,-12.672,0
6.652,-10.841,0
6.653,-5.897,0
6.654,-4.432,0
6.655,-3.15,0
6.656,-4.249,0
6.657,1.427,0
6.658,4.357,0
6.659,5.273,0
6.66,2.892,0
6.661,-0.953,0
6.662,3.625,0
6.663,9.301,0
6.664,10.033,0
6.665,8.202,0
6.666,5.09,0
6.667,1.244,0
6.668,7.836,0
6.669,5.09,0
6.67,5.822,0
6.671,6.554,0
6.672,6.005,0
6.673,5.456,0
6.674,8.202,0
6.675,5.822,0
6.676,8.019,0
6.677,6.005,0
6.678,6.371,0
6.679,6.005,0
6.68,6.188,0
6.681,0.329,0
6.682,0.512,0
6.683,4.54,0
6.684,12.963,0
6.685,31.457,0
6.686,71.74,0
6.687,66.064,0
6.688,39.88,0
6.689,6.554,0
6.69,-15.052,0
6.691,-26.771,0
6.692,-37.391,0
6.693,-34.278,0
6.694,-37.208,0
6.695,-34.644,0
6.696,-27.503,0
6.697,-20.911,0
6.698,-22.926,0
6.699,-21.094,0
6.7,-19.447,0
6.701,-15.052,0
6.702,-11.024,0
6.703,-7.545,0
6.704,-6.446,0
6.705,-3.516,0
6.706,-4.432,0
6.707,-3.699,0
6.708,-1.502,0
6.709,0.329,0
6.71,4.723,0
6.711,5.273,0
6.712,4.906,0
6.713,10.033,0
6.714,8.202,0
6.715,6.371,0
6.716,5.822,0
6.717,3.442,0
6.718,6.554,0
6.719,6.921,0
6.72,8.019,0
6.721,6.921,0
6.722,2.343,0
6.723,-0.953,0
6.724,2.16,0
6.725,0.512,0
6.726,2.892,0
6.727,0.695,0
6.728,1.794,0
6.729,3.625,0
6.73,4.723,0
6.731,0.146,0
6.732,3.259,0
6.733,3.808,0
6.734,13.329,0
6.735,25.597,0
6.736,50.5,0
6.737,68.261,0
6.738,71.374,0
6.739,44.64,0
6.74,5.273,0
6.741,-10.291,0
6.742,-24.573,0
6.743,-28.785,0
6.744,-32.63,0
6.745,-36.109,0
6.746,-32.996,0
6.747,-30.067,0
6.748,-32.63,0
6.749,-25.489,0
6.75,-18.897,0
6.751,-12.855,0
6.752,-11.024,0
6.753,-9.376,0
6.754,-10.841,0
6.755,-9.559,0
6.756,-6.08,0
6.757,-4.981,0
6.758,-0.037,0
6.759,-2.784,0
6.76,-2.052,0
6.761,-2.784,0
6.762,-0.953,0
6.763,2.16,0
6.764,6.005,0
6.765,7.287,0
6.766,7.653,0
6.767,8.752,0
6.768,9.85,0
6.769,4.357,0
6.77,2.16,0
6.771,3.991,0
6.772,4.54,0
6.773,5.09,0
6.774,1.794,0
6.775,3.991,0
6.776,5.09,0
6.777,3.991,0
6.778,5.822,0
6.779,6.554,0
6.78,3.991,0
6.781,2.16,0
6.782,4.906,0
6.783,4.723,0
6.784,5.822,0
6.785,11.315,0
6.786,22.851,0
6.787,44.457,0
6.788,65.148,0
6.789,67.712,0
6.79,36.034,0
6.791,5.822,0
6.792,-13.77,0
6.793,-24.39,0
6.794,-27.503,0
6.795,-36.292,0
6.796,-33.729,0
6.797,-36.109,0
6.798,-33.912,0
6.799,-27.869,0
6.8,-22.376,0
6.801,-17.432,0
6.802,-13.038,0
6.803,-11.756,0
6.804,-12.855,0
6.805,-11.756,0
6.806,-6.812,0
6.807,-4.066,0
6.808,-3.333,0
6.809,0.512,0
6.81,-0.037,0
6.811,-0.587,0
6.812,-1.136,0
6.813,2.16,0
6.814,7.287,0
6.815,11.865,0
6.816,7.47,0
6.817,3.625,0
6.818,0.329,0
6.819,0.695,0
6.82,3.442,0
6.821,0.878,0
6.822,1.244,0
6.823,3.991,0
6.824,6.554,0
6.825,5.456,0
6.826,3.442,0
6.827,7.104,0
6.828,6.738,0
6.829,8.019,0
6.83,8.385,0
6.831,2.709,0
6.832,0.329,0
6.833,-1.868,0
6.834,1.061,0
6.835,4.357,0
6.836,13.879,0
6.837,20.654,0
6.838,39.147,0
6.839,68.627,0
6.84,56.908,0
6.841,24.682,0
6.842,3.075,0
6.843,-8.643,0
6.844,-12.122,0
6.845,-15.235,0
6.846,-24.024,0
6.847,-26.588,0
6.848,-28.968,0
6.849,-26.771,0
6.85,-28.785,0
6.851,-23.292,0
6.852,-24.94,0
6.853,-17.432,0
6.854,-18.714,0
6.855,-12.672,0
6.856,-11.573,0
6.857,-4.615,0
6.858,-5.531,0
6.859,6.921,0
6.86,23.4,0
6.861,43.359,0
6.862,56.725,0
6.863,68.81,0
6.864,44.457,0
6.865,15.16,0
6.866,-12.305,0
6.867,-22.926,0
6.868,-26.038,0
6.869,-17.249,0
6.87,-9.376,0
6.871,-6.995,0
6.872,-17.982,0
6.873,-28.052,0
6.874,-26.221,0
6.875,-24.573,0
6.876,-26.038,0
6.877,-22.01,0
6.878,-18.531,0
6.879,-15.235,0
6.88,-10.291,0
6.881,-7.545,0
6.882,-8.277,0
6.883,-4.432,0
6.884,-3.883,0
6.885,-0.404,0
6.886,2.709,0
6.887,11.132,0
6.888,29.626,0
6.889,59.106,0
6.89,70.824,0
6.891,53.063,0
6.892,17.358,0
6.893,3.075,0
6.894,-9.742,0
6.895,-21.461,0
6.896,-17.982,0
6.897,-14.869,0
6.898,-23.658,0
6.899,-21.094,0
6.9,-18.714,0
6.901,-16.517,0
6.902,-10.474,0
6.903,-8.643,0
6.904,-6.995,0
6.905,-5.531,0
6.906,-1.502,0
6.907,-2.601,0
6.908,0.695,0
6.909,1.611,0
6.91,2.526,0
6.911,0.146,0
6.912,3.991,0
6.913,8.569,0
6.914,5.456,0
6.915,4.906,0
6.916,3.625,0
6.917,5.822,0
6.918,5.456,0
6.919,7.287,0
6.92,3.991,0
6.921,6.738,0
6.922,5.639,0
6.923,3.808,0
6.924,1.794,0
6.925,6.005,0
6.926,2.892,0
6.927,3.442,0
6.928,4.723,0
6.929,6.921,0
6.93,4.174,0
6.931,4.54,0
6.932,3.442,0
6.933,1.977,0
6.934,-0.587,0
6.935,-3.883,0
6.936,-1.136,0
6.937,1.611,0
6.938,7.287,0
6.939,19.738,0
6.94,47.204,0
6.941,66.796,0
6.942,70.275,0
6.943,47.753,0
6.944,9.118,0
6.945,-17.066,0
6.946,-21.827,0
6.947,-26.038,0
6.948,-29.884,0
6.949,-33.363,0
6.95,-36.475,0
6.951,-33.546,0
6.952,-25.672,0
6.953,-28.052,0
6.954,-25.855,0
6.955,-19.813,0
6.956,-17.982,0
6.957,-13.038,0
6.958,-11.573,0
6.959,-7.545,0
6.96,-6.446,0
6.961,-5.347,0
6.962,-4.432,0
6.963,-1.685,0
6.964,0.695,0
6.965,2.892,0
6.966,-0.404,0
6.967,0.146,0
6.968,5.273,0
6.969,5.822,0
6.97,2.709,0
6.971,4.357,0
6.972,6.738,0
6.973,5.456,0
6.974,6.554,0
6.975,5.456,0
6.976,3.625,0
6.977,6.371,0
6.978,6.005,0
6.979,7.836,0
6.98,4.54,0
6.981,5.822,0
6.982,5.456,0
6.983,4.357,0
6.984,5.456,0
6.985,2.709,0
6.986,2.343,0
6.987,5.456,0
6.988,2.892,0
6.989,7.47,0
6.99,17.724,0
6.991,40.246,0
6.992,56.359,0
6.993,59.289,0
6.994,45.922,0
6.995,23.949,0
6.996,-2.784,0
6.997,-20.545,0
6.998,-30.067,0
6.999,-38.856,0
7,-41.419,0
7.001,-39.039,0
7.002,-32.447,0
7.003,-30.433,0
7.004,-24.94,0
7.005,-23.292,0
7.006,-21.827,0
7.007,-23.109,0
7.008,-14.686,0
7.009,-11.39,0
7.01,-8.46,0
7.011,-5.714,0
7.012,-8.094,0
7.013,-4.249,0
7.014,-0.953,0
7.015,-4.066,0
7.016,-2.418,0
7.017,-5.714,0
7.018,-3.516,0
7.019,2.709,0
7.02,5.456,0
7.021,6.188,0
7.022,3.991,0
7.023,8.569,0
7.024,4.174,0
7.025,5.822,0
7.026,7.104,0
7.027,10.217,0
7.028,9.85,0
7.029,10.217,0
7.03,8.385,0
7.031,6.921,0
7.032,3.808,0
7.033,2.709,0
7.034,4.54,0
7.035,4.906,0
7.036,8.202,0
7.037,9.484,0
7.038,6.188,0
7.039,6.554,0
7.04,12.231,0
7.041,24.682,0
7.042,52.148,0
7.043,55.993,0
7.044,52.514,0
7.045,29.992,0
7.046,3.259,0
7.047,-14.503,0
7.048,-24.024,0
7.049,-26.954,0
7.05,-34.827,0
7.051,-32.447,0
7.052,-30.25,0
7.053,-32.264,0
7.054,-30.433,0
7.055,-22.193,0
7.056,-23.658,0
7.057,-16.883,0
7.058,-15.784,0
7.059,-14.686,0
7.06,-11.756,0
7.061,-7.178,0
7.062,-4.798,0
7.063,-2.601,0
7.064,0.695,0
7.065,1.244,0
7.066,2.892,0
7.067,4.174,0
7.068,-0.037,0
7.069,1.611,0
7.07,1.977,0
7.071,2.343,0
7.072,1.977,0
7.073,5.456,0
7.074,2.343,0
7.075,3.442,0
7.076,2.343,0
7.077,3.442,0
7.078,4.906,0
7.079,6.738,0
7.08,5.456,0
7.081,3.259,0
7.082,2.526,0
7.083,5.456,0
7.084,3.625,0
7.085,6.188,0
7.086,5.456,0
7.087,6.188,0
7.088,2.16,0
7.089,2.526,0
7.09,0.878,0
7.091,8.385,0
7.092,20.837,0
7.093,39.147,0
7.094,51.232,0
7.095,71.191,0
7.096,57.824,0
7.097,31.091,0
7.098,-1.136,0
7.099,-13.953,0
7.1,-25.672,0
7.101,-36.292,0
7.102,-39.405,0
7.103,-36.475,0
7.104,-28.602,0
7.105,-30.982,0
7.106,-24.39,0
7.107,-26.405,0
7.108,-20.911,0
7.109,-19.263,0
7.11,-17.799,0
7.111,-13.77,0
7.112,-10.291,0
7.113,-11.39,0
7.114,-8.46,0
7.115,5.456,0
7.116,23.583,0
7.117,16.442,0
7.118,9.85,0
7.119,3.808,0
7.12,-1.685,0
7.121,-3.333,0
7.122,-1.868,0
7.123,-0.587,0
7.124,-1.685,0
7.125,-0.587,0
7.126,0.329,0
7.127,4.906,0
7.128,2.526,0
7.129,9.484,0
7.13,14.062,0
7.131,16.442,0
7.132,18.639,0
7.133,23.217,0
7.134,27.612,0
7.135,27.062,0
7.136,26.696,0
7.137,26.33,0
7.138,28.344,0
7.139,22.668,0
7.14,18.639,0
7.141,11.132,0
7.142,8.202,0
7.143,14.611,0
7.144,27.062,0
7.145,39.88,0
7.146,14.977,0
7.147,-24.39,0
7.148,-29.517,0
7.149,-34.278,0
7.15,-30.067,0
7.151,-41.785,0
7.152,-66.688,0
7.153,-82.801,0
7.154,-103.49,0
7.155,-122.17,0
7.156,-129.31,0
7.157,-127.11,0
7.158,-133.16,0
7.159,-149.63,0
7.16,-151.83,0
7.161,-149.82,0
7.162,-140.66,0
7.163,-125.65,0
7.164,-99.464,0
7.165,-45.814,0
7.166,38.964,0
7.167,117.88,0
7.168,128.14,0
7.169,156.15,0
7.17,130.88,0
7.171,107.81,0
7.172,86.938,0
7.173,80.712,0
7.174,86.388,0
7.175,91.515,0
7.176,115.32,0
7.177,136.93,0
7.178,140.77,0
7.179,144.25,0
7.18,147.36,0
7.181,138.57,0
7.182,119.9,0
7.183,122.28,0
7.184,111.29,0
7.185,89.135,0
7.186,68.444,0
7.187,49.767,0
7.188,47.387,0
7.189,40.795,0
7.19,42.809,0
7.191,29.626,0
7.192,24.133,0
7.193,19.189,0
7.194,20.654,0
7.195,35.668,0
7.196,53.796,0
7.197,41.711,0
7.198,8.569,0
7.199,-34.461,0
7.2,-51.673,0
7.201,-67.237,0
7.202,-71.998,0
7.203,-76.209,0
7.204,-80.054,0
7.205,-83.533,0
7.206,-86.646,0
7.207,-89.576,0
7.208,-92.139,0
7.209,-89.759,0
7.21,-87.562,0
7.211,-85.548,0
7.212,-80.054,0
7.213,-75.111,0
7.214,-64.674,0
7.215,-60.645,0
7.216,-57.166,0
7.217,-51.49,0
7.218,-44.532,0
7.219,-34.278,0
7.22,-32.996,0
7.221,-24.573,0
7.222,-23.475,0
7.223,-18.531,0
7.224,-15.784,0
7.225,-11.756,0
7.226,-9.559,0
7.227,-6.263,0
7.228,-4.432,0
7.229,-2.784,0
7.23,0.512,0
7.231,2.709,0
7.232,7.287,0
7.233,7.836,0
7.234,2.709,0
7.235,4.54,0
7.236,5.09,0
7.237,5.639,0
7.238,4.357,0
7.239,6.554,0
7.24,9.301,0
7.241,8.935,0
7.242,13.512,0
7.243,13.879,0
7.244,18.456,0
7.245,28.71,0
7.246,51.232,0
7.247,73.754,0
7.248,47.021,0
7.249,14.794,0
7.25,1.977,0
7.251,-9.742,0
7.252,-13.221,0
7.253,-22.742,0
7.254,-19.813,0
7.255,-22.376,0
7.256,-15.235,0
7.257,-17.432,0
7.258,-15.418,0
7.259,-9.925,0
7.26,-8.277,0
7.261,-3.883,0
7.262,-2.601,0
7.263,0.878,0
7.264,1.977,0
7.265,1.061,0
7.266,1.977,0
7.267,4.357,0
7.268,6.554,0
7.269,4.723,0
7.27,6.554,0
7.271,8.202,0
7.272,9.484,0
7.273,9.118,0
7.274,8.019,0
7.275,12.231,0
7.276,13.879,0
7.277,10.583,0
7.278,8.385,0
7.279,9.484,0
7.28,7.653,0
7.281,3.625,0
7.282,0.329,0
7.283,-0.037,0
7.284,1.061,0
7.285,4.54,0
7.286,3.259,0
7.287,3.625,0
7.288,8.569,0
7.289,11.865,0
7.29,6.188,0
7.291,5.456,0
7.292,6.005,0
7.293,1.061,0
7.294,1.611,0
7.295,10.033,0
7.296,28.527,0
7.297,47.204,0
7.298,59.289,0
7.299,57.092,0
7.3,30.907,0
7.301,-1.319,0
7.302,-14.136,0
7.303,-25.855,0
7.304,-29.334,0
7.305,-32.447,0
7.306,-29.517,0
7.307,-32.081,0
7.308,-24.94,0
7.309,-27.137,0
7.31,-25.123,0
7.311,-23.292,0
7.312,-18.348,0
7.313,-13.953,0
7.314,-12.672,0
7.315,-6.629,0
7.316,-5.531,0
7.317,-4.615,0
7.318,-0.037,0
7.319,0.695,0
7.32,1.427,0
7.321,7.653,0
7.322,0.146,0
7.323,-2.784,0
7.324,-1.868,0
7.325,3.808,0
7.326,6.005,0
7.327,1.427,0
7.328,5.822,0
7.329,1.977,0
7.33,5.273,0
7.331,3.991,0
7.332,2.892,0
7.333,3.991,0
7.334,6.554,0
7.335,3.259,0
7.336,3.625,0
7.337,4.723,0
7.338,7.287,0
7.339,9.118,0
7.34,4.54,0
7.341,5.09,0
7.342,-0.587,0
7.343,3.259,0
7.344,-0.404,0
7.345,0.146,0
7.346,8.385,0
7.347,23.217,0
7.348,53.429,0
7.349,66.247,0
7.35,70.092,0
7.351,45.19,0
7.352,9.484,0
7.353,-14.32,0
7.354,-18.531,0
7.355,-30.25,0
7.356,-33.729,0
7.357,-36.842,0
7.358,-33.912,0
7.359,-31.348,0
7.36,-14.503,0
7.361,-3.516,0
7.362,10.583,0
7.363,-5.897,0
7.364,-8.094,0
7.365,-14.136,0
7.366,-15.968,0
7.367,-14.32,0
7.368,-12.855,0
7.369,-14.136,0
7.37,-10.657,0
7.371,-7.362,0
7.372,-6.446,0
7.373,-9.193,0
7.374,-9.925,0
7.375,-6.08,0
7.376,0.146,0
7.377,2.526,0
7.378,4.723,0
7.379,5.273,0
7.38,7.104,0
7.381,6.554,0
7.382,8.935,0
7.383,6.738,0
7.384,4.723,0
7.385,6.554,0
7.386,6.188,0
7.387,4.723,0
7.388,3.991,0
7.389,4.723,0
7.39,4.174,0
7.391,7.104,0
7.392,3.625,0
7.393,4.906,0
7.394,7.653,0
7.395,11.315,0
7.396,8.752,0
7.397,14.245,0
7.398,25.781,0
7.399,50.683,0
7.4,68.444,0
7.401,77.966,0
7.402,51.232,0
7.403,11.865,0
7.404,-14.32,0
7.405,-28.602,0
7.406,-32.813,0
7.407,-36.658,0
7.408,-33.179,0
7.409,-36.292,0
7.41,-27.503,0
7.411,-24.94,0
7.412,-22.559,0
7.413,-20.362,0
7.414,-14.32,0
7.415,-16.151,0
7.416,-11.207,0
7.417,-9.742,0
7.418,-8.46,0
7.419,-4.981,0
7.42,-3.883,0
7.421,-0.953,0
7.422,-0.037,0
7.423,0.695,0
7.424,1.427,0
7.425,4.723,0
7.426,5.273,0
7.427,6.921,0
7.428,5.639,0
7.429,5.273,0
7.43,5.639,0
7.431,3.808,0
7.432,4.174,0
7.433,3.991,0
7.434,2.16,0
7.435,3.442,0
7.436,3.991,0
7.437,2.526,0
7.438,1.244,0
7.439,2.526,0
7.44,3.991,0
7.441,4.174,0
7.442,3.991,0
7.443,6.188,0
7.444,2.526,0
7.445,2.16,0
7.446,2.526,0
7.447,7.653,0
7.448,16.625,0
7.449,25.048,0
7.45,37.499,0
7.451,55.81,0
7.452,67.895,0
7.453,52.514,0
7.454,26.33,0
7.455,-5.897,0
7.456,-18.714,0
7.457,-38.306,0
7.458,-41.785,0
7.459,-44.898,0
7.46,-41.969,0
7.461,-39.405,0
7.462,-32.264,0
7.463,-34.461,0
7.464,-28.419,0
7.465,-26.588,0
7.466,-21.644,0
7.467,-14.136,0
7.468,-15.418,0
7.469,-9.376,0
7.47,-6.08,0
7.471,-3.15,0
7.472,1.427,0
7.473,3.808,0
7.474,-0.037,0
7.475,4.54,0
7.476,7.653,0
7.477,10.4,0
7.478,10.033,0
7.479,8.752,0
7.48,10.766,0
7.481,5.822,0
7.482,5.273,0
7.483,2.16,0
7.484,4.906,0
7.485,5.273,0
7.486,4.906,0
7.487,2.892,0
7.488,7.104,0
7.489,7.653,0
7.49,6.371,0
7.491,6.005,0
7.492,7.104,0
7.493,5.273,0
7.494,4.906,0
7.495,7.653,0
7.496,5.09,0
7.497,2.526,0
7.498,1.427,0
7.499,6.005,0
7.5,16.259,0
7.501,38.781,0
7.502,61.303,0
7.503,40.612,0
7.504,11.132,0
7.505,-8.46,0
7.506,-19.08,0
7.507,-22.193,0
7.508,-25.123,0
7.509,-27.686,0
7.51,-25.306,0
7.511,-27.503,0
7.512,-25.489,0
7.513,-23.658,0
7.514,-18.714,0
7.515,-17.249,0
7.516,-10.474,0
7.517,-11.573,0
7.518,-8.277,0
7.519,-13.221,0
7.52,-8.643,0
7.521,-6.263,0
7.522,-2.418,0
7.523,0.878,0
7.524,-0.953,0
7.525,4.174,0
7.526,0.878,0
7.527,3.991,0
7.528,7.836,0
7.529,8.202,0
7.53,6.921,0
7.531,3.075,0
7.532,1.794,0
7.533,6.005,0
7.534,7.653,0
7.535,7.287,0
7.536,5.09,0
7.537,3.991,0
7.538,2.16,0
7.539,2.526,0
7.54,3.991,0
7.541,2.709,0
7.542,3.991,0
7.543,0.512,0
7.544,0.146,0
7.545,1.427,0
7.546,4.174,0
7.547,5.273,0
7.548,5.456,0
7.549,8.019,0
7.55,12.597,0
7.551,22.851,0
7.552,36.401,0
7.553,60.204,0
7.554,76.318,0
7.555,55.627,0
7.556,15.344,0
7.557,-13.404,0
7.558,-18.531,0
7.559,-32.813,0
7.56,-37.025,0
7.561,-40.87,0
7.562,-37.391,0
7.563,-34.278,0
7.564,-31.348,0
7.565,-28.785,0
7.566,-26.405,0
7.567,-24.207,0
7.568,-18.165,0
7.569,-16.334,0
7.57,-11.39,0
7.571,-9.925,0
7.572,-8.643,0
7.573,-5.164,0
7.574,-1.868,0
7.575,-0.953,0
7.576,1.794,0
7.577,2.526,0
7.578,4.723,0
7.579,5.273,0
7.58,5.822,0
7.581,7.47,0
7.582,5.09,0
7.583,9.301,0
7.584,7.653,0
7.585,7.287,0
7.586,6.921,0
7.587,8.019,0
7.588,6.188,0
7.589,2.892,0
7.59,4.906,0
7.591,4.54,0
7.592,4.906,0
7.593,0.329,0
7.594,2.16,0
7.595,3.991,0
7.596,2.343,0
7.597,1.061,0
7.598,-0.22,0
7.599,1.794,0
7.6,0.695,0
7.601,1.061,0
7.602,4.357,0
7.603,-0.22,0
7.604,1.611,0
7.605,2.16,0
7.606,8.752,0
7.607,22.668,0
7.608,32.739,0
7.609,19.921,0
7.61,18.273,0
7.611,37.865,0
7.612,51.232,0
7.613,63.317,0
7.614,61.12,0
7.615,30.907,0
7.616,-8.094,0
7.617,-23.658,0
7.618,-37.94,0
7.619,-42.152,0
7.62,-45.997,0
7.621,-42.518,0
7.622,-45.631,0
7.623,-42.701,0
7.624,-34.827,0
7.625,-32.447,0
7.626,-25.855,0
7.627,-19.813,0
7.628,-14.32,0
7.629,-12.672,0
7.63,-8.277,0
7.631,-6.995,0
7.632,-5.897,0
7.633,-2.601,0
7.634,-3.516,0
7.635,-2.601,0
7.636,-0.22,0
7.637,1.977,0
7.638,6.554,0
7.639,6.005,0
7.64,11.132,0
7.641,11.681,0
7.642,8.569,0
7.643,6.921,0
7.644,7.287,0
7.645,6.921,0
7.646,8.019,0
7.647,10.583,0
7.648,5.09,0
7.649,4.357,0
7.65,6.921,0
7.651,8.752,0
7.652,14.428,0
7.653,25.964,0
7.654,50.866,0
7.655,75.768,0
7.656,72.656,0
7.657,40.063,0
7.658,9.85,0
7.659,-9.742,0
7.66,-20.362,0
7.661,-23.475,0
7.662,-32.264,0
7.663,-29.7,0
7.664,-27.32,0
7.665,-25.123,0
7.666,-23.109,0
7.667,-21.278,0
7.668,-16.334,0
7.669,-14.869,0
7.67,-8.094,0
7.671,-9.193,0
7.672,-10.291,0
7.673,-13.221,0
7.674,-4.798,0
7.675,-3.699,0
7.676,-0.77,0
7.677,-3.516,0
7.678,2.16,0
7.679,-1.685,0
7.68,4.54,0
7.681,2.16,0
7.682,2.892,0
7.683,7.47,0
7.684,5.639,0
7.685,7.287,0
7.686,4.906,0
7.687,8.019,0
7.688,6.921,0
7.689,8.752,0
7.69,6.188,0
7.691,5.456,0
7.692,6.188,0
7.693,3.259,0
7.694,5.822,0
7.695,5.456,0
7.696,3.991,0
7.697,3.259,0
7.698,-0.22,0
7.699,-0.587,0
7.7,-0.953,0
7.701,1.061,0
7.702,2.16,0
7.703,7.653,0
7.704,19.189,0
7.705,40.795,0
7.706,55.627,0
7.707,58.19,0
7.708,46.105,0
7.709,26.147,0
7.71,-8.826,0
7.711,-23.109,0
7.712,-27.32,0
7.713,-39.039,0
7.714,-35.56,0
7.715,-32.447,0
7.716,-35.377,0
7.717,-27.503,0
7.718,-25.123,0
7.719,-18.531,0
7.72,-24.573,0
7.721,-19.08,0
7.722,-14.136,0
7.723,-12.672,0
7.724,-13.953,0
7.725,-10.474,0
7.726,-4.798,0
7.727,-3.883,0
7.728,2.526,0
7.729,-1.502,0
7.73,2.343,0
7.731,-0.953,0
7.732,2.16,0
7.733,0.512,0
7.734,5.09,0
7.735,4.54,0
7.736,6.188,0
7.737,6.554,0
7.738,6.921,0
7.739,7.287,0
7.74,3.075,0
7.741,5.822,0
7.742,7.104,0
7.743,7.47,0
7.744,7.836,0
7.745,5.273,0
7.746,7.836,0
7.747,3.259,0
7.748,5.09,0
7.749,4.54,0
7.75,5.09,0
7.751,3.808,0
7.752,3.991,0
7.753,1.794,0
7.754,8.019,0
7.755,21.935,0
7.756,52.148,0
7.757,64.965,0
7.758,37.499,0
7.759,12.597,0
7.76,-9.925,0
7.761,-18.714,0
7.762,-21.278,0
7.763,-28.419,0
7.764,-26.221,0
7.765,-28.236,0
7.766,-26.405,0
7.767,-18.165,0
7.768,-19.63,0
7.769,-18.348,0
7.77,-14.869,0
7.771,-11.573,0
7.772,-10.657,0
7.773,-6.08,0
7.774,-3.699,0
7.775,-4.432,0
7.776,-3.883,0
7.777,-2.052,0
7.778,1.794,0
7.779,2.16,0
7.78,-0.037,0
7.781,-4.615,0
7.782,-0.22,0
7.783,1.427,0
7.784,1.794,0
7.785,3.991,0
7.786,1.977,0
7.787,-1.502,0
7.788,0.695,0
7.789,1.794,0
7.79,6.005,0
7.791,2.16,0
7.792,3.442,0
7.793,6.554,0
7.794,6.188,0
7.795,4.357,0
7.796,4.723,0
7.797,1.977,0
7.798,2.343,0
7.799,-0.22,0
7.8,3.075,0
7.801,2.709,0
7.802,3.075,0
7.803,-1.868,0
7.804,0.695,0
7.805,6.188,0
7.806,17.724,0
7.807,42.626,0
7.808,60.387,0
7.809,69.909,0
7.81,49.218,0
7.811,14.245,0
7.812,-9.559,0
7.813,-22.376,0
7.814,-26.221,0
7.815,-36.842,0
7.816,-33.729,0
7.817,-36.658,0
7.818,-34.095,0
7.819,-26.954,0
7.82,-24.757,0
7.821,-18.714,0
7.822,-16.883,0
7.823,-15.235,0
7.824,-13.77,0
7.825,-9.742,0
7.826,-6.263,0
7.827,-0.587,0
7.828,-3.516,0
7.829,1.061,0
7.83,5.09,0
7.831,7.287,0
7.832,2.709,0
7.833,3.259,0
7.834,8.385,0
7.835,7.836,0
7.836,7.287,0
7.837,6.738,0
7.838,10.033,0
7.839,7.836,0
7.84,3.991,0
7.841,4.357,0
7.842,0.146,0
7.843,-2.601,0
7.844,-0.22,0
7.845,-1.502,0
7.846,1.244,0
7.847,1.611,0
7.848,4.174,0
7.849,2.16,0
7.85,2.343,0
7.851,1.611,0
7.852,5.09,0
7.853,12.597,0
7.854,6.921,0
7.855,1.244,0
7.856,-3.699,0
7.857,-10.108,0
7.858,2.343,0
7.859,29.809,0
7.86,57.275,0
7.861,39.513,0
7.862,16.991,0
7.863,-3.699,0
7.864,-22.376,0
7.865,-29.517,0
7.866,-31.715,0
7.867,-33.729,0
7.868,-28.236,0
7.869,-26.588,0
7.87,-22.193,0
7.871,-20.911,0
7.872,-22.01,0
7.873,-20.911,0
7.874,-15.968,0
7.875,-13.221,0
7.876,-7.545,0
7.877,-6.812,0
7.878,-4.981,0
7.879,1.977,0
7.88,1.061,0
7.881,-1.319,0
7.882,0.878,0
7.883,2.709,0
7.884,3.259,0
7.885,-0.587,0
7.886,-0.22,0
7.887,0.146,0
7.888,6.371,0
7.889,5.456,0
7.89,3.075,0
7.891,6.921,0
7.892,6.371,0
7.893,5.822,0
7.894,4.174,0
7.895,5.456,0
7.896,7.653,0
7.897,5.639,0
7.898,4.54,0
7.899,4.906,0
7.9,4.174,0
7.901,1.061,0
7.902,3.808,0
7.903,5.639,0
7.904,5.273,0
7.905,1.794,0
7.906,3.259,0
7.907,7.47,0
7.908,16.991,0
7.909,37.499,0
7.91,64.233,0
7.911,67.712,0
7.912,45.19,0
7.913,12.597,0
7.914,-9.01,0
7.915,-20.728,0
7.916,-24.207,0
7.917,-27.32,0
7.918,-24.39,0
7.919,-16.517,0
7.92,-14.136,0
7.921,-11.939,0
7.922,-1.868,0
7.923,-0.037,0
7.924,8.202,0
7.925,12.597,0
7.926,8.569,0
7.927,12.048,0
7.928,8.752,0
7.929,7.836,0
7.93,3.259,0
7.931,-7.545,0
7.932,-17.982,0
7.933,-24.757,0
7.934,-28.236,0
7.935,-36.109,0
7.936,-39.039,0
7.937,-38.123,0
7.938,-27.32,0
7.939,-19.813,0
7.94,-18.531,0
7.941,-17.432,0
7.942,-34.461,0
7.943,-51.307,0
7.944,-71.265,0
7.945,-79.139,0
7.946,-95.985,0
7.947,-111.36,0
7.948,-113.38,0
7.949,-129.86,0
7.95,-127.66,0
7.951,-121.62,0
7.952,-116.13,0
7.953,-94.52,0
7.954,-61.927,0
7.955,3.075,0
7.956,101.4,0
7.957,129.42,0
7.958,154.69,0
7.959,147,0
7.96,153.95,0
7.961,160.18,0
7.962,131.43,0
7.963,105.25,0
7.964,62.219,0
7.965,45.007,0
7.966,60.571,0
7.967,74.853,0
7.968,87.67,0
7.969,83.825,0
7.97,94.445,0
7.971,91.332,0
7.972,82.543,0
7.973,85.107,0
7.974,82.726,0
7.975,76.135,0
7.976,49.95,0
7.977,39.33,0
7.978,29.809,0
7.979,32.739,0
7.98,35.302,0
7.981,32.922,0
7.982,26.33,0
7.983,16.259,0
7.984,7.104,0
7.985,-4.432,0
7.986,-8.826,0
7.987,-10.108,0
7.988,-13.587,0
7.989,-28.419,0
7.99,-34.461,0
7.991,-36.292,0
7.992,-31.348,0
7.993,-29.884,0
7.994,-36.658,0
7.995,-42.701,0
7.996,-48.377,0
7.997,-49.293,0
7.998,-53.87,0
7.999,-57.899,0
8,-66.322,0
8.001,-69.617,0
8.002,-66.688,0
8.003,-63.941,0
8.004,-59.913,0
8.005,-54.603,0
8.006,-51.307,0
8.007,-48.743,0
8.008,-43.067,0
8.009,-31.531,0
8.01,-9.925,0
8.011,16.808,0
8.012,41.711,0
8.013,25.597,0
8.014,-1.136,0
8.015,-18.897,0
8.016,-28.419,0
8.017,-37.208,0
8.018,-34.644,0
8.019,-32.264,0
8.02,-34.461,0
8.021,-32.447,0
8.022,-30.616,0
8.023,-22.376,0
8.024,-17.982,0
8.025,-16.7,0
8.026,-13.221,0
8.027,-5.347,0
8.028,-4.432,0
8.029,-1.685,0
8.03,0.695,0
8.031,2.892,0
8.032,6.188,0
8.033,5.639,0
8.034,9.484,0
8.035,8.202,0
8.036,10.4,0
8.037,10.033,0
8.038,11.132,0
8.039,11.498,0
8.04,11.315,0
8.041,8.202,0
8.042,10.949,0
8.043,12.78,0
8.044,11.681,0
8.045,12.414,0
8.046,12.231,0
8.047,11.498,0
8.048,11.315,0
8.049,11.498,0
8.05,9.667,0
8.051,12.78,0
8.052,13.146,0
8.053,11.315,0
8.054,8.752,0
8.055,8.935,0
8.056,8.202,0
8.057,6.371,0
8.058,6.921,0
8.059,6.371,0
8.06,9.667,0
8.061,16.625,0
8.062,31.823,0
8.063,60.571,0
8.064,72.289,0
8.065,47.387,0
8.066,11.681,0
8.067,-2.601,0
8.068,-24.207,0
8.069,-28.052,0
8.07,-31.531,0
8.071,-34.644,0
8.072,-31.715,0
8.073,-34.278,0
8.074,-27.137,0
8.075,-24.94,0
8.076,-18.897,0
8.077,-13.404,0
8.078,-15.052,0
8.079,-4.615,0
8.08,-5.897,0
8.081,-4.798,0
8.082,-3.699,0
8.083,1.244,0
8.084,0.329,0
8.085,-0.404,0
8.086,1.794,0
8.087,3.625,0
8.088,3.075,0
8.089,2.526,0
8.09,3.808,0
8.091,5.09,0
8.092,7.104,0
8.093,8.202,0
8.094,11.498,0
8.095,6.005,0
8.096,5.273,0
8.097,15.527,0
8.098,32.006,0
8.099,21.02,0
8.1,10.949,0
8.101,5.456,0
8.102,-6.08,0
8.103,-7.545,0
8.104,-8.826,0
8.105,-9.925,0
8.106,-13.221,0
8.107,-6.263,0
8.108,-7.178,0
8.109,-1.136,0
8.11,-3.516,0
8.111,8.019,0
8.112,23.034,0
8.113,41.161,0
8.114,53.246,0
8.115,59.838,0
8.116,49.767,0
8.117,25.964,0
8.118,-3.333,0
8.119,-15.052,0
8.12,-25.672,0
8.121,-35.194,0
8.122,-38.123,0
8.123,-35.56,0
8.124,-33.179,0
8.125,-30.982,0
8.126,-28.968,0
8.127,-23.475,0
8.128,-18.531,0
8.129,-19.996,0
8.13,-15.968,0
8.131,-12.489,0
8.132,-9.193,0
8.133,-6.263,0
8.134,-5.347,0
8.135,-4.615,0
8.136,0.695,0
8.137,1.244,0
8.138,3.075,0
8.139,1.427,0
8.14,2.709,0
8.141,7.836,0
8.142,6.005,0
8.143,6.554,0
8.144,10.4,0
8.145,5.822,0
8.146,10.217,0
8.147,5.09,0
8.148,6.921,0
8.149,5.09,0
8.15,7.836,0
8.151,6.554,0
8.152,4.357,0
8.153,7.104,0
8.154,7.47,0
8.155,4.906,0
8.156,0.329,0
8.157,0.878,0
8.158,2.709,0
8.159,4.357,0
8.16,2.526,0
8.161,2.892,0
8.162,8.019,0
8.163,18.273,0
8.164,34.753,0
8.165,45.739,0
8.166,55.81,0
8.167,46.655,0
8.168,54.894,0
8.169,62.402,0
8.17,41.894,0
8.171,-2.601,0
8.172,-34.278,0
8.173,-39.954,0
8.174,-55.518,0
