0,-4.035,0
0.001,-7.514,0
0.002,9.515,0
0.003,16.656,0
0.004,36.615,0
0.005,39.178,0
0.006,36.798,0
0.007,25.811,0
0.008,-0.373,0
0.009,-25.275,0
0.01,-34.797,0
0.011,-37.726,0
0.012,-40.29,0
0.013,-33.149,0
0.014,-30.951,0
0.015,-24.909,0
0.016,-19.416,0
0.017,-11.176,0
0.018,-15.571,0
0.019,-11.542,0
0.02,-3.119,0
0.021,-4.218,0
0.022,-1.288,0
0.023,1.458,0
0.024,7.135,0
0.025,4.937,0
0.026,6.768,0
0.027,7.318,0
0.028,5.67,0
0.029,8.05,0
0.03,8.416,0
0.031,12.261,0
0.032,8.966,0
0.033,9.332,0
0.034,7.318,0
0.035,4.754,0
0.036,3.656,0
0.037,1.641,0
0.038,4.205,0
0.039,6.768,0
0.04,2.74,0
0.041,4.388,0
0.042,3.106,0
0.043,1.824,0
0.044,2.191,0
0.045,1.824,0
0.046,4.388,0
0.047,5.12,0
0.048,5.303,0
0.049,4.022,0
0.05,1.824,0
0.051,2.557,0
0.052,2.74,0
0.053,0.36,0
0.054,4.937,0
0.055,15.191,0
0.056,37.713,0
0.057,47.235,0
0.058,14.642,0
0.059,-15.571,0
0.06,-27.289,0
0.061,-30.768,0
0.062,-33.881,0
0.063,-36.811,0
0.064,-28.937,0
0.065,-21.796,0
0.066,-15.204,0
0.067,-13.19,0
0.068,-7.697,0
0.069,0.543,0
0.07,4.937,0
0.071,11.712,0
0.072,15.191,0
0.073,25.445,0
0.074,34.967,0
0.075,31.488,0
0.076,28.192,0
0.077,23.248,0
0.078,22.332,0
0.079,16.656,0
0.08,15.924,0
0.081,15.374,0
0.082,5.853,0
0.083,-14.655,0
0.084,-23.444,0
0.085,-31.318,0
0.086,-43.403,0
0.087,-49.994,0
0.088,-43.952,0
0.089,-31.135,0
0.09,-22.895,0
0.091,-24.36,0
0.092,-44.867,0
0.093,-65.558,0
0.094,-78.925,0
0.095,-105.66,0
0.096,-130.56,0
0.097,-133.67,0
0.098,-142.46,0
0.099,-161.14,0
0.1,-158.76,0
0.101,-143.38,0
0.102,-125.62,0
0.103,-107.49,0
0.104,-75.812,0
0.105,-10.81,0
0.106,73.236,0
0.107,152.15,0
0.108,203.42,0
0.109,194.09,0
0.11,151.79,0
0.111,113.34,0
0.112,92.462,0
0.113,86.236,0
0.114,91.912,0
0.115,118.1,0
0.116,122.86,0
0.117,144.46,0
0.118,156.18,0
0.119,173.94,0
0.12,177.06,0
0.121,162.22,0
0.122,143.55,0
0.123,131.46,0
0.124,116.08,0
0.125,85.87,0
0.126,55.657,0
0.127,36.065,0
0.128,25.445,0
0.129,22.332,0
0.13,19.403,0
0.131,6.036,0
0.132,-1.105,0
0.133,-16.486,0
0.134,-26.557,0
0.135,-39.374,0
0.136,-37.726,0
0.137,-36.261,0
0.138,-45.783,0
0.139,-49.262,0
0.14,-54.938,0
0.141,-59.882,0
0.142,-64.46,0
0.143,-68.488,0
0.144,-67.756,0
0.145,-65.925,0
0.146,-69.037,0
0.147,-68.488,0
0.148,-68.122,0
0.149,-65.925,0
0.15,-65.558,0
0.151,-65.192,0
0.152,-65.558,0
0.153,-61.896,0
0.154,-57.319,0
0.155,-47.065,0
0.156,-24.543,0
0.157,11.163,0
0.158,15.924,0
0.159,-14.289,0
0.16,-41.755,0
0.161,-52.375,0
0.162,-55.488,0
0.163,-52.558,0
0.164,-44.684,0
0.165,-37.543,0
0.166,-30.951,0
0.167,-28.937,0
0.168,-23.444,0
0.169,-18.5,0
0.17,-14.106,0
0.171,-12.824,0
0.172,-4.401,0
0.173,-5.5,0
0.174,3.656,0
0.175,7.135,0
0.176,8.233,0
0.177,9.149,0
0.178,11.895,0
0.179,12.628,0
0.18,16.473,0
0.181,14.642,0
0.182,14.093,0
0.183,14.642,0
0.184,14.276,0
0.185,12.078,0
0.186,13.177,0
0.187,16.656,0
0.188,13.543,0
0.189,14.642,0
0.19,14.276,0
0.191,16.107,0
0.192,11.529,0
0.193,6.951,0
0.194,10.064,0
0.195,11.712,0
0.196,9.332,0
0.197,12.445,0
0.198,12.078,0
0.199,7.867,0
0.2,8.416,0
0.201,6.036,0
0.202,6.402,0
0.203,8.416,0
0.204,9.149,0
0.205,8.05,0
0.206,13.543,0
0.207,25.079,0
0.208,46.685,0
0.209,49.615,0
0.21,62.982,0
0.211,36.248,0
0.212,-3.119,0
0.213,-29.303,0
0.214,-34.064,0
0.215,-38.276,0
0.216,-34.43,0
0.217,-37.909,0
0.218,-28.388,0
0.219,-19.599,0
0.22,-17.035,0
0.221,-14.655,0
0.222,-3.669,0
0.223,-5.683,0
0.224,-3.852,0
0.225,-5.5,0
0.226,-1.105,0
0.227,5.67,0
0.228,6.768,0
0.229,7.867,0
0.23,12.811,0
0.231,6.402,0
0.232,8.782,0
0.233,15.74,0
0.234,29.656,0
0.235,35.699,0
0.236,15.557,0
0.237,7.684,0
0.238,0.543,0
0.239,-1.655,0
0.24,-3.669,0
0.241,-5.5,0
0.242,-7.148,0
0.243,-5.683,0
0.244,-4.401,0
0.245,-3.302,0
0.246,2.374,0
0.247,-0.556,0
0.248,2.191,0
0.249,-0.19,0
0.25,3.656,0
0.251,3.106,0
0.252,3.656,0
0.253,7.501,0
0.254,2.008,0
0.255,4.022,0
0.256,1.824,0
0.257,12.078,0
0.258,34.6,0
0.259,57.122,0
0.26,65.911,0
0.261,30.938,0
0.262,-2.387,0
0.263,-23.993,0
0.264,-35.712,0
0.265,-32.233,0
0.266,-29.12,0
0.267,-26.191,0
0.268,-28.754,0
0.269,-21.613,0
0.27,-15.021,0
0.271,-13.007,0
0.272,-14.838,0
0.273,-6.598,0
0.274,-2.204,0
0.275,-3.486,0
0.276,-0.007,0
0.277,1.092,0
0.278,4.022,0
0.279,6.768,0
0.28,4.388,0
0.281,12.811,0
0.282,11.712,0
0.283,8.782,0
0.284,4.205,0
0.285,6.585,0
0.286,10.43,0
0.287,7.135,0
0.288,10.247,0
0.289,8.599,0
0.29,5.303,0
0.291,4.937,0
0.292,4.571,0
0.293,2.74,0
0.294,-1.288,0
0.295,4.205,0
0.296,0.36,0
0.297,0.909,0
0.298,1.458,0
0.299,0.909,0
0.3,-0.373,0
0.301,0.909,0
0.302,-1.838,0
0.303,-2.936,0
0.304,-1.838,0
0.305,0.177,0
0.306,-2.57,0
0.307,1.641,0
0.308,11.163,0
0.309,15.191,0
0.31,33.685,0
0.311,63.165,0
0.312,35.699,0
0.313,-3.669,0
0.314,-19.233,0
0.315,-33.515,0
0.316,-37.726,0
0.317,-33.881,0
0.318,-30.402,0
0.319,-27.289,0
0.32,-24.36,0
0.321,-21.796,0
0.322,-14.655,0
0.323,-12.458,0
0.324,-6.415,0
0.325,-4.584,0
0.326,-2.936,0
0.327,1.458,0
0.328,0.177,0
0.329,1.275,0
0.33,2.374,0
0.331,3.289,0
0.332,4.205,0
0.333,6.585,0
0.334,5.853,0
0.335,7.684,0
0.336,8.233,0
0.337,6.585,0
0.338,6.219,0
0.339,6.585,0
0.34,6.951,0
0.341,7.318,0
0.342,4.754,0
0.343,4.022,0
0.344,7.684,0
0.345,8.05,0
0.346,7.684,0
0.347,5.67,0
0.348,3.106,0
0.349,5.67,0
0.35,7.135,0
0.351,2.923,0
0.352,-0.19,0
0.353,2.557,0
0.354,0.177,0
0.355,1.458,0
0.356,0.36,0
0.357,5.487,0
0.358,2.923,0
0.359,7.684,0
0.36,17.205,0
0.361,37.713,0
0.362,70.306,0
0.363,40.094,0
0.364,-3.302,0
0.365,-20.514,0
0.366,-36.078,0
0.367,-31.318,0
0.368,-35.529,0
0.369,-31.684,0
0.37,-28.205,0
0.371,-25.092,0
0.372,-22.162,0
0.373,-19.599,0
0.374,-12.458,0
0.375,-14.655,0
0.376,-8.613,0
0.377,-3.119,0
0.378,-1.471,0
0.379,-0.007,0
0.38,6.768,0
0.381,5.67,0
0.382,8.966,0
0.383,9.881,0
0.384,7.135,0
0.385,7.867,0
0.386,7.135,0
0.387,5.303,0
0.388,4.754,0
0.389,6.402,0
0.39,6.036,0
0.391,5.67,0
0.392,3.656,0
0.393,3.289,0
0.394,5.12,0
0.395,5.853,0
0.396,6.036,0
0.397,5.303,0
0.398,1.824,0
0.399,2.191,0
0.4,2.557,0
0.401,1.458,0
0.402,-0.373,0
0.403,1.458,0
0.404,-1.288,0
0.405,3.656,0
0.406,1.824,0
0.407,3.656,0
0.408,4.754,0
0.409,4.205,0
0.41,11.712,0
0.411,17.388,0
0.412,32.586,0
0.413,65.728,0
0.414,41.925,0
0.415,2.923,0
0.416,-23.261,0
0.417,-28.022,0
0.418,-40.839,0
0.419,-36.994,0
0.42,-33.515,0
0.421,-30.402,0
0.422,-21.613,0
0.423,-19.05,0
0.424,-16.669,0
0.425,-10.077,0
0.426,-8.063,0
0.427,-9.894,0
0.428,-1.655,0
0.429,-6.049,0
0.43,3.472,0
0.431,9.515,0
0.432,6.219,0
0.433,7.135,0
0.434,6.219,0
0.435,5.487,0
0.436,7.684,0
0.437,5.853,0
0.438,1.458,0
0.439,4.205,0
0.44,2.923,0
0.441,3.289,0
0.442,4.388,0
0.443,5.487,0
0.444,8.05,0
0.445,8.782,0
0.446,5.67,0
0.447,5.303,0
0.448,7.867,0
0.449,5.303,0
0.45,4.571,0
0.451,3.839,0
0.452,2.008,0
0.453,4.205,0
0.454,1.092,0
0.455,3.839,0
0.456,-0.373,0
0.457,-3.119,0
0.458,-8.613,0
0.459,-4.035,0
0.46,-4.767,0
0.461,5.487,0
0.462,21.966,0
0.463,50.714,0
0.464,62.432,0
0.465,37.53,0
0.466,-4.767,0
0.467,-21.979,0
0.468,-27.106,0
0.469,-31.867,0
0.47,-27.656,0
0.471,-31.501,0
0.472,-28.022,0
0.473,-18.5,0
0.474,-15.571,0
0.475,-13.007,0
0.476,-10.627,0
0.477,-12.824,0
0.478,-14.838,0
0.479,5.303,0
0.48,29.473,0
0.481,26.361,0
0.482,5.67,0
0.483,-2.204,0
0.484,-9.345,0
0.485,-11.542,0
0.486,-9.528,0
0.487,-7.697,0
0.488,0.543,0
0.489,-3.852,0
0.49,0.177,0
0.491,1.275,0
0.492,6.951,0
0.493,6.036,0
0.494,6.951,0
0.495,4.571,0
0.496,6.768,0
0.497,8.599,0
0.498,4.205,0
0.499,3.656,0
0.5,2.374,0
0.501,2.74,0
0.502,2.374,0
0.503,2.74,0
0.504,2.374,0
0.505,0.36,0
0.506,4.022,0
0.507,4.388,0
0.508,-0.739,0
0.509,3.839,0
0.51,5.487,0
0.511,6.036,0
0.512,14.459,0
0.513,32.952,0
0.514,62.432,0
0.515,74.151,0
0.516,41.925,0
0.517,2.923,0
0.518,-23.261,0
0.519,-28.022,0
0.52,-32.233,0
0.521,-36.078,0
0.522,-39.557,0
0.523,-30.036,0
0.524,-27.106,0
0.525,-24.543,0
0.526,-17.402,0
0.527,-15.204,0
0.528,-9.162,0
0.529,-3.669,0
0.53,-2.021,0
0.531,-0.556,0
0.532,0.726,0
0.533,-0.373,0
0.534,0.726,0
0.535,3.656,0
0.536,0.909,0
0.537,3.289,0
0.538,4.022,0
0.539,3.472,0
0.54,2.923,0
0.541,1.275,0
0.542,8.782,0
0.543,5.487,0
0.544,6.402,0
0.545,3.656,0
0.546,2.923,0
0.547,8.233,0
0.548,3.656,0
0.549,8.05,0
0.55,4.205,0
0.551,7.501,0
0.552,4.388,0
0.553,3.289,0
0.554,4.388,0
0.555,3.289,0
0.556,1.824,0
0.557,6.036,0
0.558,1.641,0
0.559,3.289,0
0.56,4.571,0
0.561,4.022,0
0.562,-0.19,0
0.563,8.233,0
0.564,24.346,0
0.565,44.305,0
0.566,46.868,0
0.567,44.488,0
0.568,29.107,0
0.569,2.923,0
0.57,-29.303,0
0.571,-42.121,0
0.572,-45.966,0
0.573,-42.487,0
0.574,-39.374,0
0.575,-36.445,0
0.576,-33.881,0
0.577,-26.74,0
0.578,-20.148,0
0.579,-14.106,0
0.58,-12.275,0
0.581,-4.035,0
0.582,0.36,0
0.583,1.641,0
0.584,5.12,0
0.585,1.824,0
0.586,6.768,0
0.587,7.684,0
0.588,10.064,0
0.589,12.261,0
0.59,10.43,0
0.591,6.036,0
0.592,11.163,0
0.593,12.994,0
0.594,9.881,0
0.595,9.332,0
0.596,6.951,0
0.597,9.149,0
0.598,7.135,0
0.599,6.036,0
0.6,2.74,0
0.601,5.487,0
0.602,6.585,0
0.603,4.022,0
0.604,-0.556,0
0.605,-0.007,0
0.606,3.106,0
0.607,1.458,0
0.608,2.74,0
0.609,3.106,0
0.61,3.472,0
0.611,2.374,0
0.612,1.824,0
0.613,-0.007,0
0.614,4.571,0
0.615,14.825,0
0.616,37.347,0
0.617,66.644,0
0.618,39.178,0
0.619,-0.19,0
0.62,-15.754,0
0.621,-30.036,0
0.622,-34.247,0
0.623,-30.402,0
0.624,-26.923,0
0.625,-30.036,0
0.626,-27.106,0
0.627,-19.233,0
0.628,-16.852,0
0.629,-10.26,0
0.63,-12.275,0
0.631,-3.119,0
0.632,-4.767,0
0.633,-3.302,0
0.634,-4.584,0
0.635,1.458,0
0.636,2.557,0
0.637,3.472,0
0.638,4.388,0
0.639,6.768,0
0.64,2.923,0
0.641,4.754,0
0.642,5.303,0
0.643,5.853,0
0.644,4.571,0
0.645,1.458,0
0.646,4.205,0
0.647,7.684,0
0.648,8.05,0
0.649,6.036,0
0.65,6.402,0
0.651,5.303,0
0.652,6.768,0
0.653,6.951,0
0.654,8.233,0
0.655,8.416,0
0.656,8.599,0
0.657,5.67,0
0.658,-0.556,0
0.659,-3.302,0
0.66,-2.57,0
0.661,-4.767,0
0.662,-0.19,0
0.663,0.36,0
0.664,0.909,0
0.665,9.332,0
0.666,27.825,0
0.667,51.995,0
0.668,55.108,0
0.669,52.178,0
0.67,17.205,0
0.671,-16.12,0
0.672,-28.937,0
0.673,-40.656,0
0.674,-37.177,0
0.675,-40.29,0
0.676,-31.501,0
0.677,-28.937,0
0.678,-26.557,0
0.679,-19.965,0
0.68,-13.923,0
0.681,-8.429,0
0.682,-6.781,0
0.683,-2.387,0
0.684,-3.669,0
0.685,-4.767,0
0.686,0.909,0
0.687,5.853,0
0.688,6.768,0
0.689,7.501,0
0.69,5.303,0
0.691,2.008,0
0.692,2.557,0
0.693,5.303,0
0.694,7.684,0
0.695,8.05,0
0.696,8.416,0
0.697,7.318,0
0.698,10.614,0
0.699,6.768,0
0.7,5.487,0
0.701,6.768,0
0.702,6.402,0
0.703,6.768,0
0.704,6.402,0
0.705,6.219,0
0.706,6.951,0
0.707,4.022,0
0.708,2.191,0
0.709,1.824,0
0.71,2.008,0
0.711,-1.105,0
0.712,-0.007,0
0.713,1.824,0
0.714,-0.373,0
0.715,2.923,0
0.716,-3.302,0
0.717,3.106,0
0.718,-0.922,0
0.719,-0.19,0
0.72,-0.739,0
0.721,-3.852,0
0.722,-5.5,0
0.723,-0.922,0
0.724,-1.471,0
0.725,6.951,0
0.726,25.445,0
0.727,22.882,0
0.728,0.909,0
0.729,3.839,0
0.73,17.205,0
0.731,34.051,0
0.732,27.459,0
0.733,29.473,0
0.734,34.967,0
0.735,23.431,0
0.736,0.909,0
0.737,-47.797,0
0.738,-54.755,0
0.739,-60.981,0
0.74,-55.304,0
0.741,-50.177,0
0.742,-45.417,0
0.743,-32.599,0
0.744,-20.881,0
0.745,-17.402,0
0.746,-14.289,0
0.747,-5.5,0
0.748,-2.936,0
0.749,-0.556,0
0.75,1.641,0
0.751,3.656,0
0.752,5.487,0
0.753,10.43,0
0.754,11.895,0
0.755,15.924,0
0.756,14.825,0
0.757,11.529,0
0.758,10.614,0
0.759,6.036,0
0.76,5.303,0
0.761,6.036,0
0.762,6.585,0
0.763,6.036,0
0.764,8.782,0
0.765,9.149,0
0.766,8.782,0
0.767,13.909,0
0.768,24.163,0
0.769,46.685,0
0.77,56.207,0
0.771,64.996,0
0.772,35.516,0
0.773,-0.007,0
0.774,-33.332,0
0.775,-29.12,0
0.776,-40.839,0
0.777,-37.36,0
0.778,-34.247,0
0.779,-31.318,0
0.78,-28.754,0
0.781,-26.374,0
0.782,-19.782,0
0.783,-13.74,0
0.784,-11.908,0
0.785,-6.965,0
0.786,-2.57,0
0.787,1.458,0
0.788,7.501,0
0.789,13.177,0
0.79,10.247,0
0.791,12.994,0
0.792,8.966,0
0.793,9.698,0
0.794,6.402,0
0.795,8.233,0
0.796,6.585,0
0.797,6.219,0
0.798,6.585,0
0.799,4.571,0
0.8,5.67,0
0.801,3.106,0
0.802,3.289,0
0.803,6.951,0
0.804,0.36,0
0.805,4.937,0
0.806,5.67,0
0.807,0.36,0
0.808,0.909,0
0.809,5.303,0
0.81,4.754,0
0.811,10.247,0
0.812,4.937,0
0.813,3.106,0
0.814,-0.007,0
0.815,2.74,0
0.816,-0.373,0
0.817,-0.007,0
0.818,6.951,0
0.819,22.149,0
0.82,55.291,0
0.821,60.052,0
0.822,21.051,0
0.823,-5.134,0
0.824,-28.937,0
0.825,-33.149,0
0.826,-29.303,0
0.827,-32.782,0
0.828,-29.67,0
0.829,-20.881,0
0.83,-23.444,0
0.831,-16.303,0
0.832,-18.5,0
0.833,-12.458,0
0.834,-10.627,0
0.835,-8.979,0
0.836,-4.584,0
0.837,2.191,0
0.838,3.289,0
0.839,4.388,0
0.84,3.472,0
0.841,9.881,0
0.842,5.853,0
0.843,9.698,0
0.844,7.867,0
0.845,7.318,0
0.846,7.867,0
0.847,7.501,0
0.848,6.219,0
0.849,-0.007,0
0.85,0.909,0
0.851,3.289,0
0.852,1.092,0
0.853,-0.739,0
0.854,-1.288,0
0.855,0.36,0
0.856,-0.922,0
0.857,2.191,0
0.858,2.557,0
0.859,-2.387,0
0.86,-0.556,0
0.861,1.275,0
0.862,1.824,0
0.863,0.543,0
0.864,2.74,0
0.865,-1.105,0
0.866,4.388,0
0.867,4.022,0
0.868,4.754,0
0.869,8.05,0
0.87,17.572,0
0.871,38.079,0
0.872,46.868,0
0.873,54.742,0
0.874,37.896,0
0.875,4.754,0
0.876,-28.571,0
0.877,-32.782,0
0.878,-44.501,0
0.879,-41.022,0
0.88,-44.135,0
0.881,-35.346,0
0.882,-27.472,0
0.883,-20.331,0
0.884,-22.529,0
0.885,-16.486,0
0.886,-10.993,0
0.887,-9.345,0
0.888,-1.838,0
0.889,-0.556,0
0.89,-1.655,0
0.891,1.641,0
0.892,4.571,0
0.893,9.149,0
0.894,13.177,0
0.895,21.6,0
0.896,22.698,0
0.897,27.642,0
0.898,28.558,0
0.899,29.29,0
0.9,34.6,0
0.901,35.15,0
0.902,34.6,0
0.903,27.276,0
0.904,26.361,0
0.905,19.952,0
0.906,10.797,0
0.907,9.698,0
0.908,1.824,0
0.909,-7.331,0
0.91,-25.824,0
0.911,-33.698,0
0.912,-40.839,0
0.913,-47.431,0
0.914,-45.417,0
0.915,-36.261,0
0.916,-24.726,0
0.917,-17.219,0
0.918,-41.388,0
0.919,-56.403,0
0.92,-58.417,0
0.921,-78.559,0
0.922,-81.122,0
0.923,-83.503,0
0.924,-85.7,0
0.925,-107.86,0
0.926,-134.59,0
0.927,-123.97,0
0.928,-107.86,0
0.929,-116.64,0
0.93,-135.32,0
0.931,-118.48,0
0.932,-85.334,0
0.933,-13.74,0
0.934,78.729,0
0.935,116.08,0
0.936,127.25,0
0.937,117,0
0.938,107.66,0
0.939,116.08,0
0.94,108.39,0
0.941,129.27,0
0.942,148.13,0
0.943,165.34,0
0.944,180.9,0
0.945,195.18,0
0.946,199.4,0
0.947,195.55,0
0.948,170.65,0
0.949,154.53,0
0.95,139.7,0
0.951,110.22,0
0.952,82.757,0
0.953,57.855,0
0.954,41.741,0
0.955,26.91,0
0.956,24.346,0
0.957,12.261,0
0.958,1.275,0
0.959,-4.767,0
0.96,-17.585,0
0.961,-32.599,0
0.962,-38.642,0
0.963,-36.811,0
0.964,-45.051,0
0.965,-55.488,0
0.966,-56.769,0
0.967,-57.868,0
0.968,-58.967,0
0.969,-67.756,0
0.97,-64.826,0
0.971,-50.91,0
0.972,-40.839,0
0.973,-53.656,0
0.974,-71.967,0
0.975,-64.826,0
0.976,-40.473,0
0.977,-24.36,0
0.978,-27.289,0
0.979,-62.262,0
0.98,-86.066,0
0.981,-90.278,0
0.982,-94.123,0
0.983,-90.644,0
0.984,-81.122,0
0.985,-66.291,0
0.986,-63.727,0
0.987,-51.642,0
0.988,-36.261,0
0.989,-30.219,0
0.99,-24.726,0
0.991,-19.782,0
0.992,-15.387,0
0.993,-14.106,0
0.994,-10.627,0
0.995,1.824,0
0.996,3.472,0
0.997,10.98,0
0.998,12.261,0
0.999,11.163,0
1,14.459,0
1.001,19.403,0
1.002,16.656,0
1.003,14.276,0
1.004,12.078,0
1.005,8.782,0
1.006,9.332,0
1.007,10.98,0
1.008,12.261,0
1.009,13.543,0
1.01,15.557,0
1.011,12.078,0
1.012,10.797,0
1.013,11.895,0
1.014,9.332,0
1.015,7.501,0
1.016,7.684,0
1.017,4.571,0
1.018,7.318,0
1.019,6.219,0
1.02,9.149,0
1.021,11.712,0
1.022,16.29,0
1.023,26.544,0
1.024,49.066,0
1.025,71.588,0
1.026,44.854,0
1.027,5.487,0
1.028,-10.077,0
1.029,-24.36,0
1.03,-28.571,0
1.031,-24.726,0
1.032,-28.205,0
1.033,-18.683,0
1.034,-21.613,0
1.035,-13.74,0
1.036,-11.359,0
1.037,-9.162,0
1.038,-3.119,0
1.039,2.374,0
1.04,4.022,0
1.041,5.487,0
1.042,1.458,0
1.043,4.937,0
1.044,6.036,0
1.045,5.12,0
1.046,11.529,0
1.047,12.261,0
1.048,10.064,0
1.049,9.515,0
1.05,6.402,0
1.051,4.754,0
1.052,9.332,0
1.053,7.501,0
1.054,3.656,0
1.055,4.937,0
1.056,6.219,0
1.057,6.585,0
1.058,3.106,0
1.059,0.909,0
1.06,1.275,0
1.061,3.106,0
1.062,0.543,0
1.063,-0.19,0
1.064,0.543,0
1.065,2.374,0
1.066,4.937,0
1.067,3.106,0
1.068,3.289,0
1.069,2.557,0
1.07,6.585,0
1.071,6.219,0
1.072,10.064,0
1.073,11.346,0
1.074,18.304,0
1.075,33.502,0
1.076,48.883,0
1.077,58.953,0
1.078,31.488,0
1.079,-4.035,0
1.08,-27.839,0
1.081,-40.656,0
1.082,-44.501,0
1.083,-41.022,0
1.084,-37.909,0
1.085,-34.98,0
1.086,-32.416,0
1.087,-25.275,0
1.088,-14.289,0
1.089,-12.275,0
1.09,-10.444,0
1.091,-8.796,0
1.092,-1.288,0
1.093,-0.007,0
1.094,-1.105,0
1.095,2.191,0
1.096,3.106,0
1.097,5.853,0
1.098,1.824,0
1.099,5.67,0
1.1,7.501,0
1.101,8.05,0
1.102,9.698,0
1.103,10.98,0
1.104,12.261,0
1.105,6.768,0
1.106,1.458,0
1.107,3.289,0
1.108,3.839,0
1.109,2.191,0
1.11,2.557,0
1.111,2.923,0
1.112,4.022,0
1.113,5.12,0
1.114,3.289,0
1.115,2.557,0
1.116,0.726,0
1.117,2.008,0
1.118,3.472,0
1.119,0.177,0
1.12,-1.105,0
1.121,-2.204,0
1.122,1.092,0
1.123,2.923,0
1.124,6.219,0
1.125,12.445,0
1.126,26.361,0
1.127,52.545,0
1.128,49.066,0
1.129,32.952,0
1.13,0.36,0
1.131,-21.247,0
1.132,-32.966,0
1.133,-43.586,0
1.134,-40.473,0
1.135,-43.403,0
1.136,-35.529,0
1.137,-33.149,0
1.138,-26.557,0
1.139,-20.514,0
1.14,-22.345,0
1.141,-14.106,0
1.142,-9.711,0
1.143,-2.936,0
1.144,0.543,0
1.145,1.641,0
1.146,6.585,0
1.147,16.839,0
1.148,20.867,0
1.149,19.769,0
1.15,11.895,0
1.151,8.966,0
1.152,6.219,0
1.153,0.543,0
1.154,1.275,0
1.155,3.106,0
1.156,3.656,0
1.157,4.205,0
1.158,1.824,0
1.159,4.937,0
1.16,2.923,0
1.161,8.599,0
1.162,6.219,0
1.163,6.951,0
1.164,6.402,0
1.165,4.571,0
1.166,2.923,0
1.167,1.641,0
1.168,2.008,0
1.169,2.374,0
1.17,4.937,0
1.171,4.571,0
1.172,3.106,0
1.173,5.487,0
1.174,2.374,0
1.175,8.599,0
1.176,22.515,0
1.177,44.671,0
1.178,47.601,0
1.179,66.278,0
1.18,34.6,0
1.181,-4.401,0
1.182,-30.585,0
1.183,-35.346,0
1.184,-48.163,0
1.185,-44.318,0
1.186,-40.839,0
1.187,-31.318,0
1.188,-28.388,0
1.189,-25.824,0
1.19,-18.683,0
1.191,-12.092,0
1.192,-10.077,0
1.193,-8.246,0
1.194,-6.598,0
1.195,-2.204,0
1.196,-0.922,0
1.197,2.557,0
1.198,5.853,0
1.199,4.937,0
1.2,4.022,0
1.201,9.698,0
1.202,5.853,0
1.203,7.684,0
1.204,5.853,0
1.205,3.106,0
1.206,8.599,0
1.207,6.402,0
1.208,4.571,0
1.209,1.458,0
1.21,8.782,0
1.211,5.853,0
1.212,12.261,0
1.213,9.881,0
1.214,7.684,0
1.215,7.135,0
1.216,8.966,0
1.217,17.388,0
1.218,35.882,0
1.219,11.712,0
1.22,-4.401,0
1.221,-7.331,0
1.222,-9.894,0
1.223,-12.275,0
1.224,-12.824,0
1.225,-6.232,0
1.226,3.839,0
1.227,20.318,0
1.228,40.277,0
1.229,58.953,0
1.23,36.981,0
1.231,4.388,0
1.232,-25.824,0
1.233,-37.543,0
1.234,-41.022,0
1.235,-37.909,0
1.236,-34.98,0
1.237,-27.106,0
1.238,-24.726,0
1.239,-18.134,0
1.24,-16.12,0
1.241,-10.627,0
1.242,-8.979,0
1.243,-4.584,0
1.244,-3.302,0
1.245,2.74,0
1.246,1.641,0
1.247,2.557,0
1.248,5.303,0
1.249,7.684,0
1.25,9.881,0
1.251,11.712,0
1.252,13.543,0
1.253,15.191,0
1.254,17.572,0
1.255,15.374,0
1.256,12.628,0
1.257,8.416,0
1.258,6.768,0
1.259,4.388,0
1.26,9.515,0
1.261,3.289,0
1.262,4.022,0
1.263,3.289,0
1.264,3.839,0
1.265,4.388,0
1.266,2.74,0
1.267,1.458,0
1.268,-0.739,0
1.269,0.36,0
1.27,0.726,0
1.271,1.092,0
1.272,-0.373,0
1.273,-1.105,0
1.274,-1.838,0
1.275,3.289,0
1.276,3.472,0
1.277,6.768,0
1.278,13.726,0
1.279,28.924,0
1.28,62.066,0
1.281,38.262,0
1.282,-0.739,0
1.283,-26.923,0
1.284,-41.205,0
1.285,-36.994,0
1.286,-40.839,0
1.287,-37.36,0
1.288,-34.247,0
1.289,-25.458,0
1.29,-22.895,0
1.291,-15.754,0
1.292,-13.556,0
1.293,-7.514,0
1.294,-5.683,0
1.295,-4.035,0
1.296,0.36,0
1.297,-0.922,0
1.298,0.177,0
1.299,5.853,0
1.3,8.782,0
1.301,9.698,0
1.302,7.318,0
1.303,8.05,0
1.304,0.543,0
1.305,5.487,0
1.306,2.74,0
1.307,3.472,0
1.308,4.205,0
1.309,6.036,0
1.31,5.487,0
1.311,6.036,0
1.312,7.318,0
1.313,10.43,0
1.314,10.064,0
1.315,11.895,0
1.316,6.402,0
1.317,4.205,0
1.318,2.374,0
1.319,-0.739,0
1.32,-0.19,0
1.321,-0.556,0
1.322,-1.838,0
1.323,-0.739,0
1.324,0.36,0
1.325,-3.669,0
1.326,-1.105,0
1.327,0.177,0
1.328,7.135,0
1.329,22.332,0
1.33,42.291,0
1.331,44.854,0
1.332,47.235,0
1.333,31.854,0
1.334,41.925,0
1.335,40.094,0
1.336,15.191,0
1.337,-31.318,0
1.338,-50.177,0
1.339,-55.854,0
1.34,-60.981,0
1.341,-46.698,0
1.342,-50.91,0
1.343,-39.191,0
1.344,-28.571,0
1.345,-25.458,0
1.346,-16.669,0
1.347,-8.796,0
1.348,-11.176,0
1.349,-4.584,0
1.35,-2.57,0
1.351,-0.739,0
1.352,4.205,0
1.353,5.67,0
1.354,6.951,0
1.355,8.05,0
1.356,9.149,0
1.357,6.219,0
1.358,8.966,0
1.359,11.346,0
1.36,12.078,0
1.361,13.909,0
1.362,17.022,0
1.363,14.276,0
1.364,10.98,0
1.365,12.261,0
1.366,12.628,0
1.367,9.149,0
1.368,8.782,0
1.369,6.768,0
1.37,7.135,0
1.371,10.43,0
1.372,6.585,0
1.373,5.303,0
1.374,1.092,0
1.375,4.937,0
1.376,1.641,0
1.377,-1.838,0
1.378,2.374,0
1.379,9.698,0
1.38,24.896,0
1.381,44.854,0
1.382,63.531,0
1.383,31.854,0
1.384,10.247,0
1.385,-17.219,0
1.386,-27.839,0
1.387,-30.951,0
1.388,-33.881,0
1.389,-31.318,0
1.39,-28.937,0
1.391,-31.135,0
1.392,-21.064,0
1.393,-15.571,0
1.394,-10.627,0
1.395,-9.162,0
1.396,-5.134,0
1.397,-1.655,0
1.398,-0.556,0
1.399,0.36,0
1.4,1.275,0
1.401,0.543,0
1.402,4.388,0
1.403,4.937,0
1.404,0.543,0
1.405,2.191,0
1.406,-0.19,0
1.407,2.008,0
1.408,-0.007,0
1.409,5.67,0
1.41,6.402,0
1.411,8.599,0
1.412,8.05,0
1.413,7.501,0
1.414,5.853,0
1.415,-0.739,0
1.416,5.67,0
1.417,3.289,0
1.418,4.022,0
1.419,3.472,0
1.42,2.923,0
1.421,2.374,0
1.422,3.656,0
1.423,5.853,0
1.424,3.839,0
1.425,6.402,0
1.426,0.909,0
1.427,4.754,0
1.428,1.092,0
1.429,-0.739,0
1.43,8.782,0
1.431,29.29,0
1.432,61.883,0
1.433,57.672,0
1.434,22.149,0
1.435,-11.176,0
1.436,-23.993,0
1.437,-35.712,0
1.438,-32.233,0
1.439,-35.346,0
1.44,-32.416,0
1.441,-24.543,0
1.442,-22.162,0
1.443,-19.965,0
1.444,-17.951,0
1.445,-12.458,0
1.446,-7.514,0
1.447,-3.119,0
1.448,0.909,0
1.449,-0.19,0
1.45,0.909,0
1.451,3.839,0
1.452,1.092,0
1.453,6.768,0
1.454,7.501,0
1.455,5.67,0
1.456,3.839,0
1.457,2.191,0
1.458,2.557,0
1.459,3.839,0
1.46,6.585,0
1.461,10.797,0
1.462,19.219,0
1.463,37.713,0
1.464,35.15,0
1.465,8.416,0
1.466,-2.204,0
1.467,-5.317,0
1.468,-8.246,0
1.469,-10.81,0
1.47,-8.429,0
1.471,-10.627,0
1.472,-8.613,0
1.473,-6.781,0
1.474,-5.134,0
1.475,-6.598,0
1.476,-7.88,0
1.477,-4.401,0
1.478,-3.302,0
1.479,-0.373,0
1.48,0.543,0
1.481,12.628,0
1.482,27.642,0
1.483,37.713,0
1.484,57.855,0
1.485,65.728,0
1.486,34.051,0
1.487,-4.95,0
1.488,-31.135,0
1.489,-45.417,0
1.49,-41.205,0
1.491,-45.051,0
1.492,-27.289,0
1.493,-30.402,0
1.494,-21.613,0
1.495,-13.74,0
1.496,-11.359,0
1.497,-13.556,0
1.498,-11.542,0
1.499,-2.387,0
1.5,-0.739,0
1.501,3.656,0
1.502,4.937,0
1.503,3.839,0
1.504,2.74,0
1.505,5.67,0
1.506,4.754,0
1.507,5.487,0
1.508,6.219,0
1.509,2.923,0
1.51,6.036,0
1.511,7.684,0
1.512,4.388,0
1.513,6.585,0
1.514,5.487,0
1.515,6.585,0
1.516,4.022,0
1.517,2.557,0
1.518,3.839,0
1.519,4.022,0
1.52,6.219,0
1.521,9.332,0
1.522,6.585,0
1.523,4.022,0
1.524,6.585,0
1.525,4.571,0
1.526,5.303,0
1.527,4.571,0
1.528,8.05,0
1.529,4.754,0
1.53,1.092,0
1.531,-4.035,0
1.532,6.219,0
1.533,22.698,0
1.534,38.079,0
1.535,48.15,0
1.536,35.333,0
1.537,10.43,0
1.538,-21.796,0
1.539,-26.008,0
1.54,-37.726,0
1.541,-34.247,0
1.542,-37.36,0
1.543,-34.43,0
1.544,-26.557,0
1.545,-19.416,0
1.546,-17.219,0
1.547,-11.176,0
1.548,-5.683,0
1.549,-4.035,0
1.55,-2.57,0
1.551,-3.852,0
1.552,2.191,0
1.553,3.289,0
1.554,4.205,0
1.555,3.289,0
1.556,8.966,0
1.557,6.768,0
1.558,11.346,0
1.559,9.515,0
1.56,8.966,0
1.561,8.599,0
1.562,8.233,0
1.563,4.388,0
1.564,4.022,0
1.565,7.135,0
1.566,3.289,0
1.567,4.571,0
1.568,3.289,0
1.569,6.036,0
1.57,7.135,0
1.571,6.036,0
1.572,1.458,0
1.573,2.008,0
1.574,0.177,0
1.575,0.726,0
1.576,2.008,0
1.577,3.289,0
1.578,4.388,0
1.579,1.824,0
1.58,2.191,0
1.581,-0.373,0
1.582,-4.95,0
1.583,-0.373,0
1.584,9.149,0
1.585,29.656,0
1.586,56.39,0
1.587,52.911,0
1.588,23.614,0
1.589,-19.782,0
1.59,-36.994,0
1.591,-42.121,0
1.592,-37.36,0
1.593,-41.572,0
1.594,-37.726,0
1.595,-27.106,0
1.596,-23.993,0
1.597,-21.064,0
1.598,-13.19,0
1.599,-10.81,0
1.6,-8.613,0
1.601,-2.57,0
1.602,-0.739,0
1.603,4.205,0
1.604,5.67,0
1.605,4.388,0
1.606,3.289,0
1.607,4.388,0
1.608,7.318,0
1.609,10.064,0
1.61,7.684,0
1.611,3.839,0
1.612,3.289,0
1.613,1.458,0
1.614,-2.387,0
1.615,5.12,0
1.616,4.022,0
1.617,6.951,0
1.618,6.036,0
1.619,5.303,0
1.62,7.501,0
1.621,6.951,0
1.622,5.12,0
1.623,3.472,0
1.624,3.106,0
1.625,4.388,0
1.626,3.289,0
1.627,5.853,0
1.628,7.684,0
1.629,8.416,0
1.63,4.754,0
1.631,1.458,0
1.632,0.36,0
1.633,0.726,0
1.634,4.571,0
1.635,12.078,0
1.636,29.107,0
1.637,45.953,0
1.638,56.939,0
1.639,26.727,0
1.64,-3.486,0
1.641,-39.008,0
1.642,-43.769,0
1.643,-39.557,0
1.644,-35.712,0
1.645,-32.233,0
1.646,-22.712,0
1.647,-19.782,0
1.648,-11.908,0
1.649,-4.767,0
1.65,1.824,0
1.651,11.895,0
1.652,17.388,0
1.653,19.036,0
1.654,20.501,0
1.655,19.219,0
1.656,13.177,0
1.657,14.276,0
1.658,13.36,0
1.659,6.951,0
1.66,1.275,0
1.661,-5.683,0
1.662,-12.092,0
1.663,-19.599,0
1.664,-30.768,0
1.665,-17.219,0
1.666,2.923,0
1.667,21.6,0
1.668,4.754,0
1.669,-23.993,0
1.67,-35.712,0
1.671,-53.473,0
1.672,-75.995,0
1.673,-84.784,0
1.674,-98.151,0
1.675,-115,0
1.676,-134.96,0
1.677,-132.39,0
1.678,-130.01,0
1.679,-123.42,0
1.68,-125.43,0
1.681,-116.28,0
1.682,-94.672,0
1.683,-38.459,0
1.684,6.036,0
1.685,101.43,0
1.686,169.73,0
1.687,207.09,0
1.688,218.25,0
1.689,187.49,0
1.69,122.13,0
1.691,62.982,0
1.692,39.91,0
1.693,19.036,0
1.694,12.811,0
1.695,30.023,0
1.696,45.587,0
1.697,50.347,0
1.698,71.954,0
1.699,83.673,0
1.7,87.152,0
1.701,96.673,0
1.702,93.743,0
1.703,96.307,0
1.704,98.687,0
1.705,87.701,0
1.706,69.573,0
1.707,42.84,0
1.708,46.319,0
1.709,68.841,0
1.71,60.052,0
1.711,46.685,0
1.712,19.952,0
1.713,2.191,0
1.714,-7.331,0
1.715,-22.162,0
1.716,-30.036,0
1.717,-32.416,0
1.718,-30.219,0
1.719,-40.29,0
1.72,-49.445,0
1.721,-47.797,0
1.722,-49.262,0
1.723,-47.98,0
1.724,-49.079,0
1.725,-47.98,0
1.726,-47.065,0
1.727,-44.318,0
1.728,-48.346,0
1.729,-50.544,0
1.73,-52.375,0
1.731,-51.825,0
1.732,-53.473,0
1.733,-53.107,0
1.734,-45.783,0
1.735,-46.149,0
1.736,-39.924,0
1.737,-26.008,0
1.738,4.205,0
1.739,25.811,0
1.74,-9.711,0
1.741,-43.036,0
1.742,-47.248,0
1.743,-51.093,0
1.744,-47.614,0
1.745,-44.501,0
1.746,-35.712,0
1.747,-33.149,0
1.748,-26.008,0
1.749,-23.81,0
1.75,-21.796,0
1.751,-16.303,0
1.752,-11.359,0
1.753,-6.965,0
1.754,-0.19,0
1.755,-1.288,0
1.756,2.008,0
1.757,6.951,0
1.758,11.529,0
1.759,10.797,0
1.76,14.642,0
1.761,8.416,0
1.762,14.093,0
1.763,13.36,0
1.764,10.064,0
1.765,10.614,0
1.766,16.839,0
1.767,12.811,0
1.768,13.543,0
1.769,11.712,0
1.77,12.261,0
1.771,9.515,0
1.772,7.135,0
1.773,4.937,0
1.774,9.515,0
1.775,10.064,0
1.776,7.318,0
1.777,10.614,0
1.778,7.501,0
1.779,9.515,0
1.78,5.303,0
1.781,10.43,0
1.782,4.205,0
1.783,9.881,0
1.784,7.684,0
1.785,6.951,0
1.786,3.656,0
1.787,13.177,0
1.788,33.685,0
1.789,60.418,0
1.79,63.897,0
1.791,34.6,0
1.792,-0.922,0
1.793,-24.726,0
1.794,-28.937,0
1.795,-25.092,0
1.796,-21.613,0
1.797,-24.726,0
1.798,-21.796,0
1.799,-19.233,0
1.8,-16.852,0
1.801,-14.655,0
1.802,-8.613,0
1.803,-10.444,0
1.804,-5.5,0
1.805,-1.105,0
1.806,0.177,0
1.807,1.275,0
1.808,4.571,0
1.809,3.656,0
1.81,0.909,0
1.811,3.289,0
1.812,5.487,0
1.813,6.036,0
1.814,2.923,0
1.815,4.571,0
1.816,5.853,0
1.817,6.219,0
1.818,5.12,0
1.819,6.219,0
1.82,6.585,0
1.821,5.853,0
1.822,4.571,0
1.823,7.501,0
1.824,6.402,0
1.825,8.966,0
1.826,4.937,0
1.827,6.585,0
1.828,5.303,0
1.829,2.191,0
1.83,-1.655,0
1.831,0.726,0
1.832,2.923,0
1.833,-0.922,0
1.834,-1.288,0
1.835,-0.922,0
1.836,-0.373,0
1.837,0.726,0
1.838,6.402,0
1.839,18.853,0
1.84,42.657,0
1.841,52.178,0
1.842,67.01,0
1.843,37.53,0
1.844,2.008,0
1.845,-31.318,0
1.846,-44.135,0
1.847,-47.98,0
1.848,-44.501,0
1.849,-41.388,0
1.85,-32.599,0
1.851,-30.036,0
1.852,-22.895,0
1.853,-20.698,0
1.854,-14.655,0
1.855,-9.162,0
1.856,-7.514,0
1.857,-6.049,0
1.858,-2.021,0
1.859,1.458,0
1.86,2.557,0
1.861,3.472,0
1.862,6.219,0
1.863,5.487,0
1.864,7.684,0
1.865,7.135,0
1.866,6.585,0
1.867,8.233,0
1.868,10.614,0
1.869,10.98,0
1.87,8.233,0
1.871,2.557,0
1.872,3.289,0
1.873,4.022,0
1.874,3.472,0
1.875,2.923,0
1.876,4.571,0
1.877,5.853,0
1.878,4.571,0
1.879,7.318,0
1.88,5.487,0
1.881,8.782,0
1.882,6.036,0
1.883,1.824,0
1.884,0.177,0
1.885,2.557,0
1.886,2.923,0
1.887,2.557,0
1.888,1.458,0
1.889,7.135,0
1.89,19.586,0
1.891,47.052,0
1.892,58.77,0
1.893,33.868,0
1.894,-8.429,0
1.895,-25.641,0
1.896,-30.768,0
1.897,-35.529,0
1.898,-39.74,0
1.899,-35.895,0
1.9,-25.275,0
1.901,-22.162,0
1.902,-19.233,0
1.903,-16.669,0
1.904,-9.528,0
1.905,-7.331,0
1.906,-5.317,0
1.907,0.177,0
1.908,1.824,0
1.909,3.289,0
1.91,7.318,0
1.911,6.219,0
1.912,5.12,0
1.913,4.205,0
1.914,6.951,0
1.915,6.219,0
1.916,6.951,0
1.917,10.247,0
1.918,10.797,0
1.919,9.149,0
1.92,9.515,0
1.921,9.881,0
1.922,8.782,0
1.923,8.416,0
1.924,8.782,0
1.925,4.205,0
1.926,7.501,0
1.927,3.106,0
1.928,5.853,0
1.929,2.557,0
1.93,2.191,0
1.931,4.937,0
1.932,3.106,0
1.933,4.205,0
1.934,0.909,0
1.935,3.106,0
1.936,-1.471,0
1.937,1.641,0
1.938,-1.105,0
1.939,2.74,0
1.94,8.233,0
1.941,19.769,0
1.942,38.079,0
1.943,40.46,0
1.944,51.446,0
1.945,49.432,0
1.946,21.966,0
1.947,-21.43,0
1.948,-38.642,0
1.949,-43.769,0
1.95,-48.53,0
1.951,-44.318,0
1.952,-32.599,0
1.953,-36.078,0
1.954,-13.556,0
1.955,-4.767,0
1.956,-2.204,0
1.957,-14.289,0
1.958,-16.486,0
1.959,-18.5,0
1.96,-13.007,0
1.961,-11.359,0
1.962,-6.965,0
1.963,-5.683,0
1.964,-2.204,0
1.965,-1.105,0
1.966,-0.19,0
1.967,-1.105,0
1.968,1.275,0
1.969,2.008,0
1.97,6.585,0
1.971,8.416,0
1.972,7.867,0
1.973,12.445,0
1.974,11.895,0
1.975,9.149,0
1.976,9.515,0
1.977,11.712,0
1.978,12.078,0
1.979,7.135,0
1.98,7.684,0
1.981,5.853,0
1.982,7.501,0
1.983,10.797,0
1.984,6.585,0
1.985,4.937,0
1.986,1.641,0
1.987,0.36,0
1.988,0.726,0
1.989,2.557,0
1.99,3.656,0
1.991,9.149,0
1.992,20.684,0
1.993,45.587,0
1.994,63.348,0
1.995,60.235,0
1.996,27.642,0
1.997,-11.359,0
1.998,-26.923,0
1.999,-41.205,0
2,-45.417,0
2.001,-41.572,0
2.002,-38.093,0
2.003,-28.571,0
2.004,-25.641,0
2.005,-17.768,0
2.006,-20.148,0
2.007,-13.556,0
2.008,-7.514,0
2.009,-9.345,0
2.01,-1.105,0
2.011,3.289,0
2.012,2.008,0
2.013,3.106,0
2.014,2.008,0
2.015,4.937,0
2.016,5.853,0
2.017,6.585,0
2.018,7.318,0
2.019,9.149,0
2.02,9.698,0
2.021,4.571,0
2.022,6.402,0
2.023,9.515,0
2.024,7.867,0
2.025,5.487,0
2.026,4.205,0
2.027,4.571,0
2.028,3.472,0
2.029,1.641,0
2.03,2.374,0
2.031,-0.19,0
2.032,0.909,0
2.033,0.177,0
2.034,3.289,0
2.035,0.543,0
2.036,5.487,0
2.037,-0.739,0
2.038,-0.007,0
2.039,0.726,0
2.04,-2.57,0
2.041,2.008,0
2.042,11.529,0
2.043,21.051,0
2.044,39.544,0
2.045,63.714,0
2.046,60.601,0
2.047,21.966,0
2.048,-14.655,0
2.049,-28.937,0
2.05,-33.149,0
2.051,-36.994,0
2.052,-33.515,0
2.053,-36.628,0
2.054,-27.839,0
2.055,-25.275,0
2.056,-18.134,0
2.057,-15.937,0
2.058,-13.923,0
2.059,-8.429,0
2.06,-6.781,0
2.061,-2.387,0
2.062,1.641,0
2.063,2.74,0
2.064,1.641,0
2.065,2.557,0
2.066,3.472,0
2.067,2.74,0
2.068,2.008,0
2.069,-2.57,0
2.07,3.106,0
2.071,3.839,0
2.072,4.388,0
2.073,3.839,0
2.074,11.163,0
2.075,8.233,0
2.076,5.487,0
2.077,6.219,0
2.078,8.416,0
2.079,14.642,0
2.08,13.909,0
2.081,8.599,0
2.082,8.05,0
2.083,1.092,0
2.084,2.008,0
2.085,-0.373,0
2.086,0.36,0
2.087,0.909,0
2.088,1.458,0
2.089,3.106,0
2.09,0.726,0
2.091,0.36,0
2.092,-2.753,0
2.093,3.472,0
2.094,13.726,0
2.095,34.234,0
2.096,60.968,0
2.097,36.065,0
2.098,-6.232,0
2.099,-23.444,0
2.1,-28.571,0
2.101,-33.332,0
2.102,-29.12,0
2.103,-32.966,0
2.104,-29.487,0
2.105,-26.374,0
2.106,-23.444,0
2.107,-20.881,0
2.108,-13.74,0
2.109,-7.148,0
2.11,-1.105,0
2.111,4.388,0
2.112,2.74,0
2.113,1.275,0
2.114,-0.007,0
2.115,6.036,0
2.116,4.937,0
2.117,4.022,0
2.118,3.106,0
2.119,3.839,0
2.12,7.684,0
2.121,4.388,0
2.122,4.937,0
2.123,5.487,0
2.124,10.98,0
2.125,8.782,0
2.126,10.614,0
2.127,3.656,0
2.128,6.402,0
2.129,7.135,0
2.13,3.289,0
2.131,-1.288,0
2.132,1.824,0
2.133,-2.021,0
2.134,-2.387,0
2.135,0.726,0
2.136,-2.021,0
2.137,-0.922,0
2.138,1.641,0
2.139,-1.655,0
2.14,2.557,0
2.141,2.008,0
2.142,4.022,0
2.143,-0.556,0
2.144,8.966,0
2.145,23.98,0
2.146,42.108,0
2.147,44.488,0
2.148,55.474,0
2.149,45.404,0
2.15,17.938,0
2.151,-25.458,0
2.152,-42.67,0
2.153,-37.543,0
2.154,-42.304,0
2.155,-38.093,0
2.156,-34.247,0
2.157,-23.627,0
2.158,-20.514,0
2.159,-17.585,0
2.16,-9.711,0
2.161,-7.331,0
2.162,-5.134,0
2.163,-3.119,0
2.164,-8.613,0
2.165,-0.373,0
2.166,1.092,0
2.167,5.12,0
2.168,6.219,0
2.169,5.12,0
2.17,6.036,0
2.171,8.782,0
2.172,11.163,0
2.173,8.966,0
2.174,4.388,0
2.175,6.219,0
2.176,6.768,0
2.177,4.388,0
2.178,6.585,0
2.179,4.571,0
2.18,4.205,0
2.181,6.036,0
2.182,6.219,0
2.183,6.951,0
2.184,8.233,0
2.185,6.768,0
2.186,6.219,0
2.187,7.135,0
2.188,4.388,0
2.189,0.177,0
2.19,-0.373,0
2.191,0.909,0
2.192,-0.373,0
2.193,1.824,0
2.194,2.923,0
2.195,2.557,0
2.196,2.923,0
2.197,3.106,0
2.198,-1.105,0
2.199,0.726,0
2.2,9.149,0
2.201,27.642,0
2.202,8.966,0
2.203,11.346,0
2.204,17.938,0
2.205,44.122,0
2.206,47.601,0
2.207,11.895,0
2.208,-21.43,0
2.209,-34.247,0
2.21,-38.093,0
2.211,-41.572,0
2.212,-44.684,0
2.213,-41.755,0
2.214,-33.881,0
2.215,-26.74,0
2.216,-15.754,0
2.217,-9.711,0
2.218,-7.88,0
2.219,-2.936,0
2.22,-1.471,0
2.221,-2.753,0
2.222,0.726,0
2.223,6.402,0
2.224,9.332,0
2.225,12.078,0
2.226,12.811,0
2.227,7.501,0
2.228,10.797,0
2.229,8.966,0
2.23,7.318,0
2.231,6.951,0
2.232,12.078,0
2.233,12.628,0
2.234,9.515,0
2.235,6.768,0
2.236,7.135,0
2.237,4.937,0
2.238,8.782,0
2.239,6.402,0
2.24,9.515,0
2.241,8.416,0
2.242,5.853,0
2.243,5.487,0
2.244,3.289,0
2.245,4.754,0
2.246,8.966,0
2.247,18.487,0
2.248,38.995,0
2.249,59.686,0
2.25,51.812,0
2.251,15.374,0
2.252,-21.247,0
2.253,-35.529,0
2.254,-39.74,0
2.255,-43.586,0
2.256,-40.107,0
2.257,-30.585,0
2.258,-27.656,0
2.259,-25.092,0
2.26,-17.951,0
2.261,-11.359,0
2.262,-13.373,0
2.263,-7.88,0
2.264,-9.528,0
2.265,-5.134,0
2.266,-3.852,0
2.267,-2.753,0
2.268,-1.655,0
2.269,-0.739,0
2.27,2.008,0
2.271,4.388,0
2.272,8.233,0
2.273,6.402,0
2.274,8.233,0
2.275,7.684,0
2.276,2.191,0
2.277,6.036,0
2.278,6.585,0
2.279,3.472,0
2.28,7.318,0
2.281,8.599,0
2.282,11.712,0
2.283,5.487,0
2.284,8.233,0
2.285,2.557,0
2.286,-1.288,0
2.287,0.543,0
2.288,3.656,0
2.289,-0.19,0
2.29,5.303,0
2.291,6.036,0
2.292,5.487,0
2.293,4.937,0
2.294,3.289,0
2.295,1.824,0
2.296,-1.471,0
2.297,4.571,0
2.298,17.022,0
2.299,44.488,0
2.3,40.643,0
2.301,58.404,0
2.302,55.291,0
2.303,28.558,0
2.304,-25.092,0
2.305,-48.163,0
2.306,-41.205,0
2.307,-47.431,0
2.308,-41.755,0
2.309,-36.628,0
2.31,-31.867,0
2.311,-27.656,0
2.312,-23.81,0
2.313,-20.331,0
2.314,-17.219,0
2.315,-8.429,0
2.316,-5.866,0
2.317,-3.486,0
2.318,-1.288,0
2.319,0.726,0
2.32,2.557,0
2.321,4.205,0
2.322,5.67,0
2.323,6.951,0
2.324,10.43,0
2.325,16.107,0
2.326,17.022,0
2.327,21.6,0
2.328,22.332,0
2.329,24.53,0
2.33,25.079,0
2.331,28.192,0
2.332,32.037,0
2.333,30.755,0
2.334,32.037,0
2.335,27.459,0
2.336,20.501,0
2.337,12.078,0
2.338,10.98,0
2.339,11.895,0
2.34,7.318,0
2.341,-1.838,0
2.342,-13.007,0
2.343,-11.542,0
2.344,-21.064,0
2.345,-34.614,0
2.346,-45.783,0
2.347,-51.276,0
2.348,-39.74,0
2.349,-17.219,0
2.35,25.079,0
2.351,30.755,0
2.352,-5.866,0
2.353,-58.417,0
2.354,-79.291,0
2.355,-110.97,0
2.356,-128.18,0
2.357,-154.37,0
2.358,-168.65,0
2.359,-147.04,0
2.36,-143.19,0
2.361,-139.72,0
2.362,-130.19,0
2.363,-109.5,0
2.364,-69.22,0
2.365,17.388,0
2.366,104.55,0
2.367,138.24,0
2.368,148.49,0
2.369,139.15,0
2.37,130.73,0
2.371,123.04,0
2.372,102.17,0
2.373,83.306,0
2.374,77.63,0
2.375,72.503,0
2.376,77.264,0
2.377,90.081,0
2.378,93.927,0
2.379,104.55,0
2.38,107.66,0
2.381,98.87,0
2.382,96.307,0
2.383,98.687,0
2.384,92.095,0
2.385,86.053,0
2.386,80.56,0
2.387,62.249,0
2.388,45.404,0
2.389,25.445,0
2.39,22.882,0
2.391,25.262,0
2.392,23.065,0
2.393,17.022,0
2.394,7.867,0
2.395,-3.669,0
2.396,-14.106,0
2.397,-22.345,0
2.398,-29.12,0
2.399,-25.641,0
2.4,-8.613,0
2.401,3.472,0
2.402,14.459,0
2.403,-11.725,0
2.404,-43.952,0
2.405,-74.164,0
2.406,-85.883,0
2.407,-89.362,0
2.408,-86.249,0
2.409,-89.179,0
2.41,-86.615,0
2.411,-79.474,0
2.412,-81.672,0
2.413,-75.629,0
2.414,-70.136,0
2.415,-61.896,0
2.416,-57.502,0
2.417,-53.473,0
2.418,-47.431,0
2.419,-37.177,0
2.42,-35.895,0
2.421,-27.472,0
2.422,-26.374,0
2.423,-21.43,0
2.424,-15.021,0
2.425,-9.345,0
2.426,-5.5,0
2.427,-0.922,0
2.428,-2.753,0
2.429,-3.302,0
2.43,-2.936,0
2.431,4.022,0
2.432,1.092,0
2.433,3.839,0
2.434,4.571,0
2.435,3.839,0
2.436,4.388,0
2.437,4.937,0
2.438,6.585,0
2.439,3.289,0
2.44,9.332,0
2.441,10.064,0
2.442,12.261,0
2.443,12.811,0
2.444,14.642,0
2.445,23.065,0
2.446,36.615,0
2.447,38.446,0
2.448,17.205,0
2.449,5.67,0
2.45,-1.838,0
2.451,-0.556,0
2.452,2.923,0
2.453,19.952,0
2.454,41.925,0
2.455,33.135,0
2.456,51.812,0
2.457,54.193,0
2.458,21.051,0
2.459,-21.979,0
2.46,-39.191,0
2.461,-44.318,0
2.462,-39.557,0
2.463,-43.769,0
2.464,-32.05,0
2.465,-28.571,0
2.466,-19.05,0
2.467,-16.12,0
2.468,-8.246,0
2.469,-5.866,0
2.47,-3.669,0
2.471,-1.655,0
2.472,0.177,0
2.473,8.416,0
2.474,6.951,0
2.475,10.98,0
2.476,14.459,0
2.477,13.36,0
2.478,12.445,0
2.479,13.36,0
2.48,12.628,0
2.481,16.473,0
2.482,13.177,0
2.483,16.29,0
2.484,14.642,0
2.485,15.008,0
2.486,8.05,0
2.487,8.966,0
2.488,8.05,0
2.489,8.782,0
2.49,9.515,0
2.491,8.966,0
2.492,4.571,0
2.493,5.12,0
2.494,6.402,0
2.495,7.684,0
2.496,8.05,0
2.497,2.374,0
2.498,1.641,0
2.499,4.022,0
2.5,1.824,0
2.501,10.797,0
2.502,26.91,0
2.503,33.502,0
2.504,59.686,0
2.505,63.165,0
2.506,27.459,0
2.507,-15.571,0
2.508,-32.782,0
2.509,-37.909,0
2.51,-42.67,0
2.511,-38.459,0
2.512,-34.614,0
2.513,-31.135,0
2.514,-28.022,0
2.515,-19.233,0
2.516,-16.669,0
2.517,-14.289,0
2.518,-12.092,0
2.519,-6.049,0
2.52,-7.88,0
2.521,-6.232,0
2.522,1.275,0
2.523,5.303,0
2.524,8.782,0
2.525,5.487,0
2.526,2.557,0
2.527,7.135,0
2.528,4.754,0
2.529,6.951,0
2.53,10.247,0
2.531,10.797,0
2.532,9.149,0
2.533,7.867,0
2.534,3.656,0
2.535,10.98,0
2.536,6.036,0
2.537,6.951,0
2.538,6.219,0
2.539,4.022,0
2.54,3.472,0
2.541,4.022,0
2.542,2.374,0
2.543,4.754,0
2.544,2.557,0
2.545,1.458,0
2.546,1.824,0
2.547,2.923,0
2.548,2.191,0
2.549,-2.021,0
2.55,0.36,0
2.551,3.472,0
2.552,11.895,0
2.553,28.009,0
2.554,47.967,0
2.555,61.334,0
2.556,54.193,0
2.557,21.051,0
2.558,-21.979,0
2.559,-39.191,0
2.56,-44.318,0
2.561,-39.557,0
2.562,-43.769,0
2.563,-39.924,0
2.564,-29.303,0
2.565,-26.191,0
2.566,-23.261,0
2.567,-20.698,0
2.568,-13.556,0
2.569,-11.359,0
2.57,-9.345,0
2.571,-3.852,0
2.572,-2.204,0
2.573,2.191,0
2.574,6.219,0
2.575,9.698,0
2.576,6.402,0
2.577,7.318,0
2.578,6.402,0
2.579,7.135,0
2.58,7.867,0
2.581,8.416,0
2.582,7.867,0
2.583,9.515,0
2.584,9.149,0
2.585,10.43,0
2.586,5.853,0
2.587,6.402,0
2.588,8.05,0
2.589,8.416,0
2.59,7.135,0
2.591,0.909,0
2.592,1.824,0
2.593,5.853,0
2.594,3.656,0
2.595,1.824,0
2.596,-0.007,0
2.597,1.641,0
2.598,1.275,0
2.599,-0.007,0
2.6,0.36,0
2.601,1.824,0
2.602,-0.007,0
2.603,5.487,0
2.604,17.022,0
2.605,41.925,0
2.606,45.404,0
2.607,42.291,0
2.608,39.361,0
2.609,41.925,0
2.61,15.191,0
2.611,-17.035,0
2.612,-47.248,0
2.613,-51.093,0
2.614,-54.572,0
2.615,-51.459,0
2.616,-48.53,0
2.617,-40.656,0
2.618,-33.515,0
2.619,-26.923,0
2.62,-20.881,0
2.621,-15.387,0
2.622,-10.444,0
2.623,-8.979,0
2.624,-2.204,0
2.625,1.275,0
2.626,4.571,0
2.627,5.487,0
2.628,4.571,0
2.629,10.247,0
2.63,8.05,0
2.631,9.881,0
2.632,11.712,0
2.633,11.163,0
2.634,12.445,0
2.635,10.247,0
2.636,15.74,0
2.637,7.318,0
2.638,8.416,0
2.639,9.332,0
2.64,8.416,0
2.641,7.684,0
2.642,5.487,0
2.643,8.782,0
2.644,9.332,0
2.645,8.782,0
2.646,5.487,0
2.647,3.289,0
2.648,6.036,0
2.649,2.557,0
2.65,3.839,0
2.651,3.472,0
2.652,3.289,0
2.653,3.656,0
2.654,-0.373,0
2.655,7.135,0
2.656,24.163,0
2.657,60.601,0
2.658,55.474,0
2.659,12.445,0
2.66,-16.303,0
2.661,-31.867,0
2.662,-36.628,0
2.663,-40.839,0
2.664,-36.994,0
2.665,-33.515,0
2.666,-30.402,0
2.667,-21.613,0
2.668,-24.177,0
2.669,-21.796,0
2.67,-10.81,0
2.671,-4.767,0
2.672,-6.598,0
2.673,1.641,0
2.674,6.036,0
2.675,7.318,0
2.676,6.219,0
2.677,9.515,0
2.678,6.585,0
2.679,5.67,0
2.68,3.289,0
2.681,4.022,0
2.682,4.571,0
2.683,5.12,0
2.684,6.768,0
2.685,9.149,0
2.686,7.867,0
2.687,5.12,0
2.688,4.022,0
2.689,2.923,0
2.69,4.937,0
2.691,9.149,0
2.692,18.67,0
2.693,30.938,0
2.694,6.036,0
2.695,-4.584,0
2.696,-7.697,0
2.697,-10.627,0
2.698,-13.19,0
2.699,-15.571,0
2.7,-17.768,0
2.701,-15.754,0
2.702,-10.26,0
2.703,-6.232,0
2.704,-4.584,0
2.705,8.966,0
2.706,29.107,0
2.707,42.474,0
2.708,49.615,0
2.709,64.996,0
2.71,46.868,0
2.711,10.43,0
2.712,-26.191,0
2.713,-40.473,0
2.714,-36.261,0
2.715,-40.107,0
2.716,-36.628,0
2.717,-33.515,0
2.718,-24.726,0
2.719,-22.162,0
2.72,-19.782,0
2.721,-13.19,0
2.722,-7.148,0
2.723,-5.317,0
2.724,-3.669,0
2.725,0.726,0
2.726,2.008,0
2.727,5.487,0
2.728,6.585,0
2.729,9.515,0
2.73,6.768,0
2.731,9.149,0
2.732,6.951,0
2.733,8.782,0
2.734,4.388,0
2.735,8.233,0
2.736,3.656,0
2.737,6.768,0
2.738,5.12,0
2.739,6.402,0
2.74,6.768,0
2.741,8.782,0
2.742,11.346,0
2.743,7.318,0
2.744,4.022,0
2.745,0.909,0
2.746,-0.19,0
2.747,0.909,0
2.748,1.275,0
2.749,-0.739,0
2.75,3.472,0
2.751,2.923,0
2.752,-2.204,0
2.753,-0.373,0
2.754,0.36,0
2.755,-0.19,0
2.756,8.233,0
2.757,26.727,0
2.758,34.6,0
2.759,56.573,0
2.76,59.503,0
2.761,30.023,0
2.762,-13.373,0
2.763,-30.585,0
2.764,-35.712,0
2.765,-40.473,0
2.766,-44.684,0
2.767,-32.966,0
2.768,-29.487,0
2.769,-32.599,0
2.77,-23.81,0
2.771,-15.937,0
2.772,-13.556,0
2.773,-11.359,0
2.774,-5.317,0
2.775,-3.486,0
2.776,1.458,0
2.777,5.853,0
2.778,4.571,0
2.779,3.472,0
2.78,6.768,0
2.781,7.684,0
2.782,8.599,0
2.783,6.219,0
2.784,6.951,0
2.785,6.402,0
2.786,5.853,0
2.787,5.303,0
2.788,4.022,0
2.789,9.149,0
2.79,5.853,0
2.791,8.966,0
2.792,2.74,0
2.793,3.472,0
2.794,4.205,0
2.795,3.656,0
2.796,1.824,0
2.797,4.571,0
2.798,1.275,0
2.799,0.909,0
2.8,1.275,0
2.801,2.374,0
2.802,2.74,0
2.803,4.205,0
2.804,5.487,0
2.805,4.022,0
2.806,4.754,0
2.807,8.233,0
2.808,15.74,0
2.809,32.769,0
2.81,59.503,0
2.811,56.024,0
2.812,26.727,0
2.813,-16.669,0
2.814,-33.881,0
2.815,-39.008,0
2.816,-43.769,0
2.817,-39.557,0
2.818,-35.712,0
2.819,-32.233,0
2.82,-29.12,0
2.821,-20.331,0
2.822,-12.458,0
2.823,-5.317,0
2.824,-7.514,0
2.825,-5.5,0
2.826,-0.007,0
2.827,4.937,0
2.828,3.472,0
2.829,2.191,0
2.83,3.289,0
2.831,6.585,0
2.832,7.501,0
2.833,10.247,0
2.834,6.219,0
2.835,8.416,0
2.836,6.585,0
2.837,7.135,0
2.838,2.008,0
2.839,10.98,0
2.84,7.501,0
2.841,8.599,0
2.842,9.515,0
2.843,6.768,0
2.844,2.74,0
2.845,4.937,0
2.846,1.641,0
2.847,1.092,0
2.848,4.937,0
2.849,3.656,0
2.85,1.458,0
2.851,2.557,0
2.852,-0.007,0
2.853,-0.373,0
2.854,-1.838,0
2.855,-0.556,0
2.856,0.36,0
2.857,1.092,0
2.858,4.571,0
2.859,12.078,0
2.86,29.107,0
2.861,55.841,0
2.862,30.938,0
2.863,-11.359,0
2.864,-28.571,0
2.865,-33.698,0
2.866,-28.937,0
2.867,-33.149,0
2.868,-29.303,0
2.869,-25.824,0
2.87,-22.712,0
2.871,-19.782,0
2.872,-11.908,0
2.873,-9.528,0
2.874,-7.331,0
2.875,-5.317,0
2.876,0.177,0
2.877,-1.471,0
2.878,2.923,0
2.879,4.205,0
2.88,3.106,0
2.881,6.402,0
2.882,7.318,0
2.883,8.233,0
2.884,5.853,0
2.885,6.585,0
2.886,4.754,0
2.887,7.867,0
2.888,2.74,0
2.889,4.571,0
2.89,0.177,0
2.891,5.303,0
2.892,4.754,0
2.893,5.303,0
2.894,3.656,0
2.895,1.275,0
2.896,-0.007,0
2.897,-1.105,0
2.898,-2.204,0
2.899,3.289,0
2.9,1.092,0
2.901,-0.739,0
2.902,-1.288,0
2.903,-2.936,0
2.904,-3.302,0
2.905,-1.105,0
2.906,-0.007,0
2.907,3.289,0
2.908,8.966,0
2.909,21.417,0
2.91,30.572,0
2.911,48.883,0
2.912,60.968,0
2.913,54.376,0
2.914,24.163,0
2.915,-23.444,0
2.916,-29.67,0
2.917,-35.346,0
2.918,-40.473,0
2.919,-35.712,0
2.92,-39.924,0
2.921,-36.078,0
2.922,-25.458,0
2.923,-15.937,0
2.924,-13.007,0
2.925,-5.134,0
2.926,-2.753,0
2.927,-0.556,0
2.928,-2.57,0
2.929,-0.739,0
2.93,4.205,0
2.931,2.74,0
2.932,6.768,0
2.933,5.67,0
2.934,4.571,0
2.935,1.641,0
2.936,2.557,0
2.937,15.008,0
2.938,38.812,0
2.939,29.29,0
2.94,8.599,0
2.941,0.726,0
2.942,3.106,0
2.943,0.909,0
2.944,-5.134,0
2.945,-3.302,0
2.946,-4.95,0
2.947,-3.486,0
2.948,-4.767,0
2.949,-1.288,0
2.95,-0.19,0
2.951,2.74,0
2.952,1.824,0
2.953,4.205,0
2.954,0.36,0
2.955,2.191,0
2.956,1.641,0
2.957,3.289,0
2.958,3.289,0
2.959,3.656,0
2.96,10.614,0
2.961,25.811,0
2.962,41.192,0
2.963,51.263,0
2.964,60.418,0
2.965,35.516,0
2.966,-10.993,0
2.967,-29.853,0
2.968,-35.529,0
2.969,-40.656,0
2.97,-35.895,0
2.971,-40.107,0
2.972,-36.261,0
2.973,-25.641,0
2.974,-22.529,0
2.975,-19.599,0
2.976,-11.725,0
2.977,-14.106,0
2.978,-7.514,0
2.979,-1.471,0
2.98,0.36,0
2.981,5.303,0
2.982,3.839,0
2.983,5.12,0
2.984,6.219,0
2.985,5.12,0
2.986,6.036,0
2.987,3.289,0
2.988,4.022,0
2.989,9.332,0
2.99,7.501,0
2.991,9.332,0
2.992,12.078,0
2.993,8.782,0
2.994,8.416,0
2.995,7.318,0
2.996,5.487,0
2.997,2.923,0
2.998,2.74,0
2.999,6.951,0
3,6.402,0
3.001,8.05,0
3.002,2.557,0
3.003,1.824,0
3.004,2.374,0
3.005,0.543,0
3.006,2.191,0
3.007,4.571,0
3.008,3.289,0
3.009,4.022,0
3.01,2.923,0
3.011,8.599,0
3.012,21.051,0
3.013,48.516,0
3.014,60.235,0
3.015,28.009,0
3.016,-10.993,0
3.017,-26.557,0
3.018,-31.318,0
3.019,-35.529,0
3.02,-31.684,0
3.021,-28.205,0
3.022,-25.092,0
3.023,-22.162,0
3.024,-19.599,0
3.025,-17.219,0
3.026,-6.232,0
3.027,-8.246,0
3.028,-6.415,0
3.029,-4.767,0
3.03,2.74,0
3.031,4.022,0
3.032,5.12,0
3.033,4.022,0
3.034,1.092,0
3.035,2.008,0
3.036,6.036,0
3.037,9.881,0
3.038,11.712,0
3.039,19.952,0
3.04,21.051,0
3.041,23.98,0
3.042,26.727,0
3.043,32.403,0
3.044,33.135,0
3.045,25.628,0
3.046,24.713,0
3.047,23.797,0
3.048,14.642,0
3.049,15.74,0
3.05,7.867,0
3.051,-5.317,0
3.052,-18.134,0
3.053,-23.078,0
3.054,-27.472,0
3.055,-34.247,0
3.056,-40.29,0
3.057,-34.614,0
3.058,-27.656,0
3.059,-17.402,0
3.06,-16.486,0
3.061,-31.501,0
3.062,-29.487,0
3.063,-38.642,0
3.064,-40.29,0
3.065,-47.797,0
3.066,-65.558,0
3.067,-102,0
3.068,-138.62,0
3.069,-171.94,0
3.07,-193.55,0
3.071,-181.83,0
3.072,-164.07,0
3.073,-134.77,0
3.074,-83.503,0
3.075,7.684,0
3.076,94.842,0
3.077,128.53,0
3.078,138.79,0
3.079,129.45,0
3.08,121.03,0
3.081,113.34,0
3.082,106.38,0
3.083,100.15,0
3.084,105.83,0
3.085,121.39,0
3.086,135.68,0
3.087,157.28,0
3.088,153.44,0
3.089,149.96,0
3.09,140.44,0
3.091,119.74,0
3.092,106.38,0
3.093,104,0
3.094,93.011,0
3.095,74.884,0
3.096,52.911,0
3.097,32.22,0
3.098,24.346,0
3.099,21.966,0
3.1,19.769,0
3.101,13.726,0
3.102,0.909,0
3.103,-4.035,0
3.104,-14.472,0
3.105,-21.247,0
3.106,-24.726,0
3.107,-19.05,0
3.108,-21.979,0
3.109,-34.064,0
3.11,-42.304,0
3.111,-45.051,0
3.112,-46.515,0
3.113,-42.487,0
3.114,-34.064,0
3.115,-17.035,0
3.116,-9.894,0
3.117,-16.486,0
3.118,-38.642,0
3.119,-29.853,0
3.12,-27.289,0
3.121,-58.967,0
3.122,-89.179,0
3.123,-108.77,0
3.124,-112.25,0
3.125,-109.14,0
3.126,-100.35,0
3.127,-86.982,0
3.128,-79.841,0
3.129,-68.854,0
3.13,-54.755,0
3.131,-45.6,0
3.132,-37.36,0
3.133,-29.853,0
3.134,-25.824,0
3.135,-17.402,0
3.136,-11.725,0
3.137,-4.767,0
3.138,3.656,0
3.139,6.951,0
3.14,11.895,0
3.141,10.98,0
3.142,13.36,0
3.143,15.557,0
3.144,13.726,0
3.145,13.177,0
3.146,11.529,0
3.147,11.163,0
3.148,12.445,0
3.149,12.811,0
3.15,18.487,0
3.151,19.219,0
3.152,17.022,0
3.153,13.726,0
3.154,8.05,0
3.155,13.36,0
3.156,11.529,0
3.157,18.487,0
3.158,13.909,0
3.159,16.29,0
3.16,12.445,0
3.161,11.895,0
3.162,11.346,0
3.163,13.177,0
3.164,21.6,0
3.165,30.023,0
3.166,47.052,0
3.167,49.432,0
3.168,47.235,0
3.169,49.249,0
3.17,43.756,0
3.171,18.853,0
3.172,-13.373,0
3.173,-34.98,0
3.174,-46.698,0
3.175,-50.177,0
3.176,-40.656,0
3.177,-43.586,0
3.178,-30.219,0
3.179,-27.839,0
3.18,-21.247,0
3.181,-15.204,0
3.182,-13.373,0
3.183,8.233,0
3.184,23.065,0
3.185,9.698,0
3.186,2.557,0
3.187,-4.035,0
3.188,2.008,0
3.189,0.177,0
3.19,-1.471,0
3.191,-0.007,0
3.192,1.275,0
3.193,2.374,0
3.194,5.67,0
3.195,6.585,0
3.196,5.67,0
3.197,6.402,0
3.198,4.205,0
3.199,6.036,0
3.2,7.867,0
3.201,7.318,0
3.202,4.937,0
3.203,6.219,0
3.204,10.797,0
3.205,11.346,0
3.206,9.698,0
3.207,12.994,0
3.208,11.712,0
3.209,14.459,0
3.21,8.782,0
3.211,8.05,0
3.212,5.853,0
3.213,4.754,0
3.214,1.458,0
3.215,3.289,0
3.216,11.712,0
3.217,30.206,0
3.218,54.376,0
3.219,63.897,0
3.22,31.304,0
3.221,-7.697,0
3.222,-33.881,0
3.223,-38.642,0
3.224,-42.853,0
3.225,-39.008,0
3.226,-42.487,0
3.227,-39.374,0
3.228,-36.445,0
3.229,-23.078,0
3.23,-20.698,0
3.231,-14.106,0
3.232,-12.092,0
3.233,-10.26,0
3.234,-5.317,0
3.235,-3.852,0
3.236,2.923,0
3.237,1.824,0
3.238,9.698,0
3.239,8.782,0
3.24,7.867,0
3.241,7.135,0
3.242,7.867,0
3.243,7.318,0
3.244,10.43,0
3.245,9.881,0
3.246,9.515,0
3.247,7.318,0
3.248,6.219,0
3.249,5.12,0
3.25,2.557,0
3.251,4.022,0
3.252,2.74,0
3.253,2.008,0
3.254,0.909,0
3.255,4.205,0
3.256,5.487,0
3.257,4.388,0
3.258,3.289,0
3.259,3.656,0
3.26,3.472,0
3.261,-0.739,0
3.262,-1.288,0
3.263,1.458,0
3.264,0.36,0
3.265,-0.922,0
3.266,6.036,0
3.267,21.234,0
3.268,36.615,0
3.269,50.714,0
3.27,63.531,0
3.271,38.629,0
3.272,-7.88,0
3.273,-26.74,0
3.274,-43.952,0
3.275,-38.825,0
3.276,-34.064,0
3.277,-38.276,0
3.278,-34.43,0
3.279,-30.951,0
3.28,-21.43,0
3.281,-18.5,0
3.282,-15.937,0
3.283,-13.556,0
3.284,-6.965,0
3.285,-4.95,0
3.286,-3.119,0
3.287,1.824,0
3.288,9.332,0
3.289,10.614,0
3.29,9.515,0
3.291,8.416,0
3.292,9.332,0
3.293,6.585,0
3.294,10.614,0
3.295,8.416,0
3.296,7.867,0
3.297,3.472,0
3.298,6.219,0
3.299,9.515,0
3.3,8.233,0
3.301,4.388,0
3.302,4.022,0
3.303,4.388,0
3.304,7.135,0
3.305,6.768,0
3.306,9.332,0
3.307,4.754,0
3.308,6.585,0
3.309,2.191,0
3.31,3.839,0
3.311,4.205,0
3.312,2.923,0
3.313,1.824,0
3.314,-1.655,0
3.315,1.092,0
3.316,4.205,0
3.317,5.303,0
3.318,10.98,0
3.319,23.431,0
3.32,47.235,0
3.321,44.122,0
3.322,41.192,0
3.323,43.756,0
3.324,41.375,0
3.325,34.783,0
3.326,4.571,0
3.327,-43.036,0
3.328,-61.896,0
3.329,-67.573,0
3.33,-62.446,0
3.331,-57.685,0
3.332,-44.867,0
3.333,-41.022,0
3.334,-30.402,0
3.335,-27.289,0
3.336,-12.458,0
3.337,-9.894,0
3.338,-7.514,0
3.339,-5.317,0
3.34,4.754,0
3.341,6.585,0
3.342,8.233,0
3.343,6.768,0
3.344,5.487,0
3.345,8.966,0
3.346,10.064,0
3.347,12.994,0
3.348,12.078,0
3.349,12.811,0
3.35,12.078,0
3.351,8.782,0
3.352,11.895,0
3.353,9.149,0
3.354,8.782,0
3.355,9.149,0
3.356,8.05,0
3.357,11.529,0
3.358,11.163,0
3.359,10.797,0
3.36,5.853,0
3.361,4.022,0
3.362,5.853,0
3.363,4.205,0
3.364,-1.288,0
3.365,2.557,0
3.366,-0.373,0
3.367,0.177,0
3.368,9.698,0
3.369,27.459,0
3.37,49.432,0
3.371,70.123,0
3.372,40.643,0
3.373,5.12,0
3.374,-18.683,0
3.375,-31.501,0
3.376,-35.346,0
3.377,-31.867,0
3.378,-28.754,0
3.379,-31.684,0
3.38,-23.81,0
3.381,-21.43,0
3.382,-19.233,0
3.383,-17.219,0
3.384,-8.063,0
3.385,-6.415,0
3.386,-7.88,0
3.387,1.641,0
3.388,2.74,0
3.389,1.641,0
3.39,4.571,0
3.391,3.656,0
3.392,7.684,0
3.393,5.487,0
3.394,8.782,0
3.395,5.67,0
3.396,5.12,0
3.397,5.487,0
3.398,3.289,0
3.399,6.036,0
3.4,7.135,0
3.401,6.036,0
3.402,6.768,0
3.403,5.487,0
3.404,5.67,0
3.405,4.205,0
3.406,4.754,0
3.407,4.937,0
3.408,6.951,0
3.409,5.67,0
3.41,2.191,0
3.411,2.557,0
3.412,-0.556,0
3.413,-1.655,0
3.414,4.022,0
3.415,-0.007,0
3.416,-0.739,0
3.417,1.092,0
3.418,1.641,0
3.419,9.881,0
3.42,20.135,0
3.421,40.643,0
3.422,67.376,0
3.423,35.15,0
3.424,-3.852,0
3.425,-30.036,0
3.426,-34.797,0
3.427,-39.008,0
3.428,-35.163,0
3.429,-10.26,0
3.43,5.853,0
3.431,-14.838,0
3.432,-22.712,0
3.433,-25.092,0
3.434,-27.289,0
3.435,-21.247,0
3.436,-19.416,0
3.437,-14.472,0
3.438,-13.007,0
3.439,-8.979,0
3.44,-2.936,0
3.441,0.36,0
3.442,3.289,0
3.443,2.374,0
3.444,4.754,0
3.445,2.557,0
3.446,5.853,0
3.447,5.303,0
3.448,9.149,0
3.449,9.515,0
3.45,9.881,0
3.451,5.303,0
3.452,5.853,0
3.453,9.698,0
3.454,9.332,0
3.455,7.135,0
3.456,6.768,0
3.457,9.332,0
3.458,8.966,0
3.459,8.233,0
3.46,4.022,0
3.461,3.472,0
3.462,1.824,0
3.463,2.191,0
3.464,0.909,0
3.465,-1.105,0
3.466,1.458,0
3.467,3.289,0
3.468,-0.373,0
3.469,-1.838,0
3.47,2.374,0
3.471,11.895,0
3.472,32.403,0
3.473,53.094,0
3.474,55.657,0
3.475,33.685,0
3.476,1.092,0
3.477,-29.12,0
3.478,-40.839,0
3.479,-44.318,0
3.48,-47.431,0
3.481,-38.642,0
3.482,-36.078,0
3.483,-28.937,0
3.484,-26.74,0
3.485,-20.698,0
3.486,-22.529,0
3.487,-7.514,0
3.488,-5.5,0
3.489,-3.669,0
3.49,1.275,0
3.491,2.74,0
3.492,6.768,0
3.493,3.289,0
3.494,6.585,0
3.495,7.501,0
3.496,4.754,0
3.497,10.43,0
3.498,8.233,0
3.499,6.402,0
3.5,10.797,0
3.501,5.67,0
3.502,6.219,0
3.503,6.768,0
3.504,11.895,0
3.505,7.318,0
3.506,9.149,0
3.507,8.599,0
3.508,9.881,0
3.509,6.768,0
3.51,7.867,0
3.511,4.388,0
3.512,2.191,0
3.513,0.177,0
3.514,1.275,0
3.515,-2.753,0
3.516,2.74,0
3.517,-1.105,0
3.518,0.726,0
3.519,-1.838,0
3.52,-0.007,0
3.521,8.416,0
3.522,26.91,0
3.523,45.587,0
3.524,67.559,0
3.525,58.77,0
3.526,18.487,0
3.527,-21.796,0
3.528,-37.36,0
3.529,-42.121,0
3.53,-46.332,0
3.531,-42.487,0
3.532,-39.008,0
3.533,-22.895,0
3.534,-25.824,0
3.535,-12.458,0
3.536,-10.077,0
3.537,-7.88,0
3.538,-9.894,0
3.539,-4.401,0
3.54,0.543,0
3.541,2.008,0
3.542,3.289,0
3.543,2.191,0
3.544,3.289,0
3.545,6.219,0
3.546,5.303,0
3.547,2.923,0
3.548,3.656,0
3.549,5.487,0
3.55,11.163,0
3.551,7.318,0
3.552,5.487,0
3.553,7.318,0
3.554,11.163,0
3.555,8.782,0
3.556,6.585,0
3.557,4.571,0
3.558,5.67,0
3.559,3.839,0
3.56,3.106,0
3.561,3.839,0
3.562,0.909,0
3.563,0.543,0
3.564,-3.486,0
3.565,1.092,0
3.566,-2.021,0
3.567,-0.373,0
3.568,-0.007,0
3.569,-2.204,0
3.57,0.36,0
3.571,2.374,0
3.572,8.05,0
3.573,20.501,0
3.574,47.967,0
3.575,59.686,0
3.576,56.207,0
3.577,20.501,0
3.578,-22.529,0
3.579,-28.205,0
3.58,-43.769,0
3.581,-39.008,0
3.582,-34.797,0
3.583,-30.951,0
3.584,-27.472,0
3.585,-24.36,0
3.586,-21.43,0
3.587,-13.556,0
3.588,-6.415,0
3.589,-4.218,0
3.59,1.824,0
3.591,3.656,0
3.592,2.008,0
3.593,3.472,0
3.594,4.754,0
3.595,3.656,0
3.596,4.754,0
3.597,3.839,0
3.598,4.754,0
3.599,5.487,0
3.6,6.219,0
3.601,4.388,0
3.602,2.557,0
3.603,4.205,0
3.604,8.782,0
3.605,6.951,0
3.606,7.501,0
3.607,5.12,0
3.608,7.318,0
3.609,6.219,0
3.61,8.05,0
3.611,3.289,0
3.612,3.839,0
3.613,-0.007,0
3.614,1.275,0
3.615,1.641,0
3.616,-1.105,0
3.617,-0.007,0
3.618,-0.373,0
3.619,0.36,0
3.62,-1.471,0
3.621,3.289,0
3.622,5.67,0
3.623,10.247,0
3.624,20.501,0
3.625,43.023,0
3.626,65.545,0
3.627,38.812,0
3.628,-7.697,0
3.629,-26.557,0
3.63,-32.233,0
3.631,-37.36,0
3.632,-32.599,0
3.633,-28.388,0
3.634,-32.233,0
3.635,-28.754,0
3.636,-25.641,0
3.637,-16.852,0
3.638,-14.289,0
3.639,-7.148,0
3.64,-0.556,0
3.641,-2.57,0
3.642,2.923,0
3.643,1.275,0
3.644,2.74,0
3.645,1.458,0
3.646,4.937,0
3.647,6.036,0
3.648,10.98,0
3.649,11.895,0
3.65,9.515,0
3.651,5.67,0
3.652,6.219,0
3.653,8.05,0
3.654,7.501,0
3.655,6.219,0
3.656,3.106,0
3.657,-1.471,0
3.658,-4.584,0
3.659,-1.838,0
3.66,-4.218,0
3.661,-2.021,0
3.662,-2.387,0
3.663,-2.021,0
3.664,0.543,0
3.665,3.839,0
3.666,5.12,0
3.667,4.754,0
3.668,5.853,0
3.669,4.022,0
3.67,7.318,0
3.671,5.12,0
3.672,4.754,0
3.673,5.853,0
3.674,11.529,0
3.675,23.98,0
3.676,25.811,0
3.677,4.205,0
3.678,-4.584,0
3.679,24.896,0
3.68,52.362,0
3.681,48.883,0
3.682,13.177,0
3.683,-20.148,0
3.684,-41.755,0
3.685,-37.909,0
3.686,-41.388,0
3.687,-38.276,0
3.688,-29.487,0
3.689,-26.923,0
3.69,-24.543,0
3.691,-17.951,0
3.692,-19.965,0
3.693,-10.81,0
3.694,-9.162,0
3.695,-4.767,0
3.696,-0.739,0
3.697,0.36,0
3.698,1.458,0
3.699,2.374,0
3.7,3.289,0
3.701,0.909,0
3.702,6.219,0
3.703,8.05,0
3.704,8.599,0
3.705,8.05,0
3.706,7.684,0
3.707,7.318,0
3.708,10.064,0
3.709,7.501,0
3.71,7.135,0
3.711,5.12,0
3.712,0.909,0
3.713,0.36,0
3.714,5.487,0
3.715,6.036,0
3.716,7.867,0
3.717,-0.556,0
3.718,0.543,0
3.719,-0.556,0
3.72,0.36,0
3.721,1.275,0
3.722,3.656,0
3.723,1.824,0
3.724,1.092,0
3.725,5.67,0
3.726,15.191,0
3.727,35.699,0
3.728,44.488,0
3.729,41.925,0
3.73,49.066,0
3.731,38.079,0
3.732,32.037,0
3.733,4.571,0
3.734,-38.825,0
3.735,-56.037,0
3.736,-50.91,0
3.737,-55.671,0
3.738,-51.459,0
3.739,-39.74,0
3.74,-29.12,0
3.741,-26.008,0
3.742,-23.078,0
3.743,-20.514,0
3.744,-8.429,0
3.745,-6.232,0
3.746,-4.218,0
3.747,1.275,0
3.748,-0.373,0
3.749,4.022,0
3.75,5.303,0
3.751,6.402,0
3.752,7.501,0
3.753,12.445,0
3.754,9.698,0
3.755,7.318,0
3.756,11.163,0
3.757,12.994,0
3.758,11.163,0
3.759,10.614,0
3.76,8.233,0
3.761,9.515,0
3.762,7.501,0
3.763,7.867,0
3.764,8.233,0
3.765,4.937,0
3.766,4.571,0
3.767,3.472,0
3.768,3.839,0
3.769,1.275,0
3.77,2.74,0
3.771,0.177,0
3.772,4.205,0
3.773,0.909,0
3.774,4.754,0
3.775,6.951,0
3.776,13.177,0
3.777,27.093,0
3.778,57.305,0
3.779,78.912,0
3.78,67.193,0
3.781,34.967,0
3.782,4.754,0
3.783,-6.965,0
3.784,-17.585,0
3.785,-20.698,0
3.786,-17.768,0
3.787,-20.331,0
3.788,-13.19,0
3.789,-15.387,0
3.79,-25.458,0
3.791,-30.951,0
3.792,-32.599,0
3.793,-36.994,0
3.794,-43.769,0
3.795,-44.867,0
3.796,-30.036,0
3.797,-15.937,0
3.798,-10.444,0
3.799,-21.979,0
3.8,-41.572,0
3.801,-54.938,0
3.802,-76.911,0
3.803,-91.742,0
3.804,-105.11,0
3.805,-117.19,0
3.806,-123.79,0
3.807,-137.88,0
3.808,-139.72,0
3.809,-138.07,0
3.81,-127.63,0
3.811,-115.36,0
3.812,-90.461,0
3.813,-36.811,0
3.814,63.348,0
3.815,104.18,0
3.816,141.53,0
3.817,152.7,0
3.818,142.45,0
3.819,114.43,0
3.82,106.01,0
3.821,98.321,0
3.822,105.28,0
3.823,111.5,0
3.824,128.72,0
3.825,143.91,0
3.826,159.48,0
3.827,164.24,0
3.828,177.06,0
3.829,180.9,0
3.83,170.28,0
3.831,154.17,0
3.832,121.58,0
3.833,65.179,0
3.834,26.727,0
3.835,5.853,0
3.836,-13.007,0
3.837,-18.683,0
3.838,-13.556,0
3.839,-8.796,0
3.84,-13.007,0
3.841,-16.852,0
3.842,-20.331,0
3.843,-29.853,0
3.844,-32.782,0
3.845,-24.909,0
3.846,-32.05,0
3.847,-43.036,0
3.848,-45.051,0
3.849,-43.219,0
3.85,-44.867,0
3.851,-46.332,0
3.852,-50.361,0
3.853,-49.262,0
3.854,-48.163,0
3.855,-51.093,0
3.856,-55.671,0
3.857,-59.699,0
3.858,-57.502,0
3.859,-59.333,0
3.86,-58.783,0
3.861,-59.333,0
3.862,-58.051,0
3.863,-51.093,0
3.864,-48.163,0
3.865,-43.586,0
3.866,-37.909,0
3.867,-32.599,0
3.868,-29.303,0
3.869,-26.191,0
3.87,-19.965,0
3.871,-15.937,0
3.872,-12.092,0
3.873,-11.542,0
3.874,-13.373,0
3.875,-16.12,0
3.876,-11.359,0
3.877,-8.063,0
3.878,-5.866,0
3.879,0.36,0
3.88,14.276,0
3.881,44.488,0
3.882,40.277,0
3.883,51.995,0
3.884,34.234,0
3.885,-1.471,0
3.886,-25.275,0
3.887,-38.093,0
3.888,-41.938,0
3.889,-45.417,0
3.89,-35.895,0
3.891,-32.966,0
3.892,-25.092,0
3.893,-17.951,0
3.894,-11.359,0
3.895,-5.317,0
3.896,0.177,0
3.897,1.824,0
3.898,6.219,0
3.899,10.247,0
3.9,11.346,0
3.901,12.445,0
3.902,13.36,0
3.903,16.107,0
3.904,15.374,0
3.905,11.529,0
3.906,19.036,0
3.907,16.107,0
3.908,18.853,0
3.909,16.473,0
3.91,14.276,0
3.911,17.572,0
3.912,13.177,0
3.913,11.529,0
3.914,11.163,0
3.915,9.881,0
3.916,12.628,0
3.917,14.459,0
3.918,10.43,0
3.919,10.064,0
3.92,17.022,0
3.921,32.22,0
3.922,30.023,0
3.923,7.867,0
3.924,4.937,0
3.925,-2.936,0
3.926,-5.317,0
3.927,-3.302,0
3.928,-1.105,0
3.929,12.994,0
3.93,22.149,0
3.931,37.164,0
3.932,43.206,0
3.933,59.686,0
3.934,39.727,0
3.935,-0.556,0
3.936,-29.303,0
3.937,-44.867,0
3.938,-49.628,0
3.939,-45.417,0
3.94,-41.572,0
3.941,-38.093,0
3.942,-28.571,0
3.943,-25.641,0
3.944,-23.078,0
3.945,-15.937,0
3.946,-9.345,0
3.947,-7.331,0
3.948,-1.838,0
3.949,3.106,0
3.95,1.641,0
3.951,5.67,0
3.952,2.191,0
3.953,7.867,0
3.954,8.782,0
3.955,11.529,0
3.956,12.261,0
3.957,11.529,0
3.958,13.36,0
3.959,8.966,0
3.96,9.515,0
3.961,8.233,0
3.962,8.599,0
3.963,9.698,0
3.964,9.332,0
3.965,6.768,0
3.966,3.472,0
3.967,4.754,0
3.968,5.12,0
3.969,2.557,0
3.97,2.923,0
3.971,2.191,0
3.972,5.303,0
3.973,0.726,0
3.974,0.177,0
3.975,0.726,0
3.976,0.36,0
3.977,-1.838,0
3.978,1.092,0
3.979,3.839,0
3.98,9.515,0
3.981,21.966,0
3.982,49.432,0
3.983,69.024,0
3.984,29.656,0
3.985,3.472,0
3.986,-20.331,0
3.987,-33.149,0
3.988,-36.994,0
3.989,-33.515,0
3.99,-30.402,0
3.991,-33.332,0
3.992,-25.458,0
3.993,-23.078,0
3.994,-20.881,0
3.995,-22.895,0
3.996,-17.402,0
3.997,-12.458,0
3.998,-10.993,0
3.999,-6.965,0
4,-5.866,0
4.001,-2.57,0
4.002,0.36,0
4.003,4.937,0
4.004,8.966,0
4.005,11.163,0
4.006,9.332,0
4.007,8.782,0
4.008,4.937,0
4.009,4.571,0
4.01,6.768,0
4.011,9.515,0
4.012,8.416,0
4.013,3.656,0
4.014,0.543,0
4.015,3.289,0
4.016,-0.007,0
4.017,2.191,0
4.018,0.177,0
4.019,2.008,0
4.02,1.641,0
4.021,3.106,0
4.022,4.937,0
4.023,6.219,0
4.024,2.74,0
4.025,-0.556,0
4.026,-6.598,0
4.027,-7.331,0
4.028,-3.486,0
4.029,-4.767,0
4.03,-4.218,0
4.031,5.303,0
4.032,17.572,0
4.033,42.474,0
4.034,60.235,0
4.035,30.938,0
4.036,-4.584,0
4.037,-28.388,0
4.038,-32.599,0
4.039,-28.754,0
4.04,-25.275,0
4.041,-22.162,0
4.042,-25.092,0
4.043,-17.219,0
4.044,-14.838,0
4.045,-12.641,0
4.046,-10.627,0
4.047,-5.134,0
4.048,-3.486,0
4.049,0.909,0
4.05,2.191,0
4.051,5.67,0
4.052,8.966,0
4.053,9.881,0
4.054,10.797,0
4.055,8.416,0
4.056,7.684,0
4.057,13.909,0
4.058,8.233,0
4.059,7.501,0
4.06,4.205,0
4.061,6.036,0
4.062,3.289,0
4.063,6.585,0
4.064,6.219,0
4.065,10.064,0
4.066,3.472,0
4.067,4.388,0
4.068,3.656,0
4.069,1.458,0
4.07,0.909,0
4.071,1.458,0
4.072,3.106,0
4.073,4.388,0
4.074,4.022,0
4.075,2.008,0
4.076,0.177,0
4.077,0.543,0
4.078,1.275,0
4.079,-1.288,0
4.08,0.36,0
4.081,-1.471,0
4.082,3.106,0
4.083,10.614,0
4.084,25.811,0
4.085,41.192,0
4.086,39.178,0
4.087,33.685,0
4.088,25.445,0
4.089,15.008,0
4.09,10.98,0
4.091,4.937,0
4.092,8.233,0
4.093,5.303,0
4.094,6.219,0
4.095,-6.232,0
4.096,-33.698,0
4.097,-69.22,0
4.098,-73.981,0
4.099,-61.164,0
4.1,-57.319,0
4.101,-46.698,0
4.102,-37.177,0
4.103,-28.388,0
4.104,-20.514,0
4.105,-13.373,0
4.106,-6.781,0
4.107,-0.739,0
4.108,1.092,0
4.109,6.036,0
4.11,7.501,0
4.111,11.529,0
4.112,12.628,0
4.113,15.924,0
4.114,15.008,0
4.115,19.586,0
4.116,15.557,0
4.117,19.403,0
4.118,17.572,0
4.119,17.022,0
4.12,19.769,0
4.121,16.473,0
4.122,16.107,0
4.123,15.008,0
4.124,12.445,0
4.125,7.684,0
4.126,4.571,0
4.127,5.12,0
4.128,7.501,0
4.129,10.614,0
4.13,9.515,0
4.131,13.543,0
4.132,10.98,0
4.133,9.881,0
4.134,14.459,0
4.135,24.713,0
4.136,47.235,0
4.137,50.347,0
4.138,47.418,0
4.139,44.854,0
4.14,18.121,0
4.141,-21.247,0
4.142,-36.811,0
4.143,-51.093,0
4.144,-55.304,0
4.145,-51.459,0
4.146,-47.98,0
4.147,-38.459,0
4.148,-35.529,0
4.149,-32.966,0
4.15,-25.824,0
4.151,-14.838,0
4.152,-12.824,0
4.153,-7.331,0
4.154,-2.387,0
4.155,2.008,0
4.156,6.036,0
4.157,2.557,0
4.158,1.458,0
4.159,4.388,0
4.16,3.472,0
4.161,7.501,0
4.162,5.303,0
4.163,7.135,0
4.164,6.585,0
4.165,10.43,0
4.166,17.938,0
4.167,32.769,0
4.168,18.67,0
4.169,9.515,0
4.17,1.275,0
4.171,-0.19,0
4.172,-4.218,0
4.173,-3.119,0
4.174,-2.021,0
4.175,-6.965,0
4.176,-0.556,0
4.177,-2.936,0
4.178,-3.669,0
4.179,-1.838,0
4.18,1.275,0
4.181,0.726,0
4.182,1.092,0
4.183,1.458,0
4.184,8.416,0
4.185,23.614,0
4.186,47.967,0
4.187,64.08,0
4.188,55.291,0
4.189,15.008,0
4.19,-13.74,0
4.191,-29.303,0
4.192,-34.064,0
4.193,-38.276,0
4.194,-34.43,0
4.195,-30.951,0
4.196,-27.839,0
4.197,-19.05,0
4.198,-11.176,0
4.199,-13.556,0
4.2,-6.965,0
4.201,-4.95,0
4.202,0.543,0
4.203,2.191,0
4.204,3.656,0
4.205,4.937,0
4.206,6.036,0
4.207,4.937,0
4.208,4.022,0
4.209,6.768,0
4.21,4.388,0
4.211,6.585,0
4.212,2.008,0
4.213,3.839,0
4.214,2.191,0
4.215,6.768,0
4.216,4.937,0
4.217,2.191,0
4.218,2.557,0
4.219,1.275,0
4.22,4.022,0
4.221,4.388,0
4.222,6.951,0
4.223,7.135,0
4.224,6.951,0
4.225,6.219,0
4.226,5.67,0
4.227,6.219,0
4.228,5.303,0
4.229,8.05,0
4.23,3.839,0
4.231,4.388,0
4.232,3.106,0
4.233,-1.838,0
4.234,-2.204,0
4.235,4.022,0
4.236,17.938,0
4.237,48.15,0
4.238,60.968,0
4.239,57.122,0
4.24,17.755,0
4.241,-18.866,0
4.242,-33.149,0
4.243,-45.966,0
4.244,-42.121,0
4.245,-38.642,0
4.246,-35.529,0
4.247,-26.74,0
4.248,-24.177,0
4.249,-21.796,0
4.25,-15.204,0
4.251,-9.162,0
4.252,-7.331,0
4.253,-5.683,0
4.254,1.824,0
4.255,3.106,0
4.256,4.205,0
4.257,3.106,0
4.258,0.177,0
4.259,2.923,0
4.26,3.656,0
4.261,4.388,0
4.262,3.839,0
4.263,3.289,0
4.264,6.036,0
4.265,9.332,0
4.266,5.12,0
4.267,5.67,0
4.268,4.388,0
4.269,11.346,0
4.27,8.416,0
4.271,12.994,0
4.272,10.614,0
4.273,8.416,0
4.274,6.585,0
4.275,3.472,0
4.276,4.022,0
4.277,2.74,0
4.278,1.458,0
4.279,2.557,0
4.28,1.458,0
4.281,1.092,0
4.282,1.275,0
4.283,-0.556,0
4.284,-2.57,0
4.285,-1.288,0
4.286,-0.19,0
4.287,3.106,0
4.288,10.064,0
4.289,25.262,0
4.29,45.22,0
4.291,37.347,0
4.292,39.727,0
4.293,33.135,0
4.294,27.093,0
4.295,-0.373,0
4.296,-43.769,0
4.297,-60.981,0
4.298,-55.854,0
4.299,-60.615,0
4.3,-47.797,0
4.301,-43.952,0
4.302,-33.332,0
4.303,-30.219,0
4.304,-27.289,0
4.305,-13.923,0
4.306,-11.542,0
4.307,-4.95,0
4.308,1.092,0
4.309,-0.739,0
4.31,4.205,0
4.311,5.67,0
4.312,9.698,0
4.313,10.797,0
4.314,11.895,0
4.315,12.811,0
4.316,8.233,0
4.317,8.966,0
4.318,12.811,0
4.319,10.98,0
4.32,11.529,0
4.321,14.276,0
4.322,13.909,0
4.323,16.107,0
4.324,10.614,0
4.325,11.346,0
4.326,9.515,0
4.327,6.402,0
4.328,4.754,0
4.329,4.388,0
4.33,2.191,0
4.331,8.416,0
4.332,2.008,0
4.333,2.74,0
4.334,4.937,0
4.335,4.754,0
4.336,4.205,0
4.337,7.318,0
4.338,15.74,0
4.339,34.234,0
4.34,63.714,0
4.341,51.995,0
4.342,12.628,0
4.343,-23.993,0
4.344,-28.754,0
4.345,-41.572,0
4.346,-37.726,0
4.347,-34.247,0
4.348,-31.135,0
4.349,-22.345,0
4.35,-19.782,0
4.351,-17.402,0
4.352,-10.81,0
4.353,-8.796,0
4.354,-6.965,0
4.355,-5.317,0
4.356,-3.852,0
4.357,0.177,0
4.358,1.275,0
4.359,0.177,0
4.36,-0.739,0
4.361,2.008,0
4.362,2.74,0
4.363,0.543,0
4.364,2.374,0
4.365,4.205,0
4.366,2.557,0
4.367,4.937,0
4.368,5.303,0
4.369,7.318,0
4.37,9.881,0
4.371,8.782,0
4.372,8.599,0
4.373,5.487,0
4.374,8.233,0
4.375,7.135,0
4.376,3.106,0
4.377,3.472,0
4.378,3.106,0
4.379,5.12,0
4.38,1.641,0
4.381,2.008,0
4.382,-0.007,0
4.383,-1.105,0
4.384,-2.936,0
4.385,1.092,0
4.386,-0.373,0
4.387,2.374,0
4.388,9.881,0
4.389,26.91,0
4.39,43.756,0
4.391,45.953,0
4.392,51.995,0
4.393,24.53,0
4.394,-2.936,0
4.395,-35.163,0
4.396,-39.374,0
4.397,-51.093,0
4.398,-47.614,0
4.399,-50.727,0
4.4,-41.938,0
4.401,-34.064,0
4.402,-21.979,0
4.403,-15.387,0
4.404,-9.345,0
4.405,-3.852,0
4.406,-2.204,0
4.407,-0.739,0
4.408,0.543,0
4.409,-0.556,0
4.41,2.74,0
4.411,9.698,0
4.412,23.614,0
4.413,41.741,0
4.414,19.769,0
4.415,4.937,0
4.416,-8.429,0
4.417,-6.049,0
4.418,-8.246,0
4.419,-6.232,0
4.42,-8.063,0
4.421,-3.119,0
4.422,4.388,0
4.423,5.67,0
4.424,4.571,0
4.425,7.867,0
4.426,4.937,0
4.427,4.022,0
4.428,3.289,0
4.429,1.092,0
4.43,2.923,0
4.431,4.754,0
4.432,5.303,0
4.433,2.923,0
4.434,5.12,0
4.435,5.487,0
4.436,7.318,0
4.437,6.951,0
4.438,8.05,0
4.439,12.628,0
4.44,22.882,0
4.441,45.404,0
4.442,54.925,0
4.443,40.094,0
4.444,10.614,0
4.445,-16.852,0
4.446,-27.472,0
4.447,-36.994,0
4.448,-34.064,0
4.449,-31.501,0
4.45,-29.12,0
4.451,-26.923,0
4.452,-20.881,0
4.453,-19.05,0
4.454,-14.106,0
4.455,-12.641,0
4.456,-8.613,0
4.457,-7.514,0
4.458,-6.415,0
4.459,-3.486,0
4.46,1.092,0
4.461,1.824,0
4.462,2.557,0
4.463,3.106,0
4.464,6.219,0
4.465,6.768,0
4.466,4.388,0
4.467,5.67,0
4.468,3.656,0
4.469,5.487,0
4.47,4.388,0
4.471,3.656,0
4.472,4.937,0
4.473,6.768,0
4.474,4.571,0
4.475,7.684,0
4.476,5.67,0
4.477,2.191,0
4.478,0.909,0
4.479,1.275,0
4.48,0.177,0
4.481,-0.19,0
4.482,-1.655,0
4.483,0.177,0
4.484,-1.655,0
4.485,-0.19,0
4.486,3.106,0
4.487,4.388,0
4.488,4.754,0
4.489,2.008,0
4.49,7.684,0
4.491,20.135,0
4.492,43.939,0
4.493,47.052,0
4.494,61.883,0
4.495,37.713,0
4.496,-4.584,0
4.497,-33.332,0
4.498,-38.459,0
4.499,-52.741,0
4.5,-48.53,0
4.501,-44.684,0
4.502,-34.064,0
4.503,-30.951,0
4.504,-22.162,0
4.505,-19.599,0
4.506,-12.458,0
4.507,-5.866,0
4.508,-11.908,0
4.509,-6.415,0
4.51,-1.471,0
4.511,2.923,0
4.512,1.641,0
4.513,5.12,0
4.514,6.219,0
4.515,7.135,0
4.516,6.219,0
4.517,8.599,0
4.518,12.445,0
4.519,7.867,0
4.52,9.698,0
4.521,9.149,0
4.522,9.515,0
4.523,11.712,0
4.524,7.135,0
4.525,5.303,0
4.526,6.951,0
4.527,5.67,0
4.528,4.388,0
4.529,7.135,0
4.53,4.571,0
4.531,8.599,0
4.532,9.881,0
4.533,11.163,0
4.534,13.909,0
4.535,19.586,0
4.536,18.853,0
4.537,28.924,0
4.538,32.952,0
4.539,32.586,0
4.54,31.488,0
4.541,30.389,0
4.542,43.573,0
4.543,49.066,0
4.544,67.376,0
4.545,64.996,0
4.546,31.854,0
4.547,-30.219,0
4.548,-55.488,0
4.549,-78.559,0
4.55,-85.517,0
4.551,-91.742,0
4.552,-86.066,0
4.553,-70.502,0
4.554,-46.698,0
4.555,-50.91,0
4.556,-47.065,0
4.557,-57.685,0
4.558,-73.798,0
4.559,-82.587,0
4.56,-95.954,0
4.561,-112.8,0
4.562,-128.18,0
4.563,-130.19,0
4.564,-135.69,0
4.565,-130.74,0
4.566,-120.31,0
4.567,-113.53,0
4.568,-95.038,0
4.569,-54.755,0
4.57,31.854,0
4.571,119.01,0
4.572,152.7,0
4.573,162.96,0
4.574,153.62,0
4.575,145.2,0
4.576,122.13,0
4.577,101.25,0
4.578,95.025,0
4.579,89.349,0
4.58,84.222,0
4.581,98.504,0
4.582,120.11,0
4.583,131.83,0
4.584,135.31,0
4.585,138.42,0
4.586,129.63,0
4.587,121.76,0
4.588,109.67,0
4.589,103.08,0
4.59,91.18,0
4.591,69.024,0
4.592,48.333,0
4.593,45.77,0
4.594,57.855,0
4.595,68.841,0
4.596,66.827,0
4.597,54.01,0
4.598,29.107,0
4.599,11.346,0
4.6,-4.767,0
4.601,-19.599,0
4.602,-27.472,0
4.603,-20.331,0
4.604,-31.318,0
4.605,-61.53,0
4.606,-109.14,0
4.607,-115.36,0
4.608,-121.04,0
4.609,-115.91,0
4.61,-120.67,0
4.611,-107.86,0
4.612,-96.137,0
4.613,-92.658,0
4.614,-83.136,0
4.615,-74.347,0
4.616,-71.784,0
4.617,-64.643,0
4.618,-58.051,0
4.619,-52.009,0
4.62,-42.853,0
4.621,-37.909,0
4.622,-30.402,0
4.623,-26.374,0
4.624,-22.895,0
4.625,-19.599,0
4.626,-16.669,0
4.627,-10.26,0
4.628,-4.584,0
4.629,-5.317,0
4.63,-3.486,0
4.631,0.909,0
4.632,1.458,0
4.633,3.839,0
4.634,8.05,0
4.635,11.895,0
4.636,11.529,0
4.637,11.895,0
4.638,10.797,0
4.639,14.276,0
4.64,12.078,0
4.641,10.614,0
4.642,13.36,0
4.643,19.036,0
4.644,29.84,0
4.645,49.432,0
4.646,57.305,0
4.647,74.151,0
4.648,41.009,0
4.649,7.684,0
4.65,-22.529,0
4.651,-34.247,0
4.652,-37.726,0
4.653,-34.614,0
4.654,-31.684,0
4.655,-23.81,0
4.656,-21.43,0
4.657,-6.049,0
4.658,16.107,0
4.659,19.036,0
4.66,0.36,0
4.661,-6.781,0
4.662,-8.979,0
4.663,-6.965,0
4.664,-5.134,0
4.665,-0.19,0
4.666,-1.655,0
4.667,-0.373,0
4.668,3.106,0
4.669,6.402,0
4.67,5.487,0
4.671,10.064,0
4.672,12.445,0
4.673,11.712,0
4.674,9.881,0
4.675,10.43,0
4.676,14.276,0
4.677,14.642,0
4.678,11.529,0
4.679,8.782,0
4.68,11.346,0
4.681,8.782,0
4.682,9.515,0
4.683,9.698,0
4.684,10.43,0
4.685,9.881,0
4.686,13.177,0
4.687,10.98,0
4.688,10.614,0
4.689,8.05,0
4.69,8.416,0
4.691,3.839,0
4.692,4.022,0
4.693,2.191,0
4.694,11.712,0
4.695,32.22,0
4.696,58.953,0
4.697,55.474,0
4.698,19.769,0
4.699,-13.556,0
4.7,-26.374,0
4.701,-30.219,0
4.702,-33.698,0
4.703,-30.585,0
4.704,-27.656,0
4.705,-19.782,0
4.706,-17.402,0
4.707,-15.204,0
4.708,-17.219,0
4.709,-11.725,0
4.71,-6.781,0
4.711,-2.387,0
4.712,1.641,0
4.713,0.543,0
4.714,1.641,0
4.715,0.726,0
4.716,1.641,0
4.717,0.909,0
4.718,4.754,0
4.719,5.303,0
4.72,8.416,0
4.721,8.966,0
4.722,7.684,0
4.723,8.05,0
4.724,6.036,0
4.725,7.135,0
4.726,6.036,0
4.727,5.303,0
4.728,4.571,0
4.729,1.092,0
4.73,1.458,0
4.731,1.824,0
4.732,2.191,0
4.733,2.557,0
4.734,3.289,0
4.735,2.008,0
4.736,2.74,0
4.737,-0.739,0
4.738,0.543,0
4.739,-0.739,0
4.74,1.275,0
4.741,0.177,0
4.742,0.543,0
4.743,-0.373,0
4.744,-2.387,0
4.745,1.824,0
4.746,11.346,0
4.747,31.854,0
4.748,52.545,0
4.749,65.911,0
4.75,29.473,0
4.751,-7.148,0
4.752,-30.951,0
4.753,-35.163,0
4.754,-46.882,0
4.755,-36.261,0
4.756,-39.374,0
4.757,-36.445,0
4.758,-28.571,0
4.759,-21.43,0
4.76,-19.233,0
4.761,-13.19,0
4.762,-11.359,0
4.763,-3.119,0
4.764,-1.655,0
4.765,-5.683,0
4.766,0.36,0
4.767,1.458,0
4.768,4.388,0
4.769,8.966,0
4.77,11.346,0
4.771,9.149,0
4.772,9.698,0
4.773,10.247,0
4.774,10.797,0
4.775,8.416,0
4.776,8.782,0
4.777,7.684,0
4.778,5.12,0
4.779,4.754,0
4.78,2.74,0
4.781,6.951,0
4.782,3.839,0
4.783,2.191,0
4.784,3.472,0
4.785,6.585,0
4.786,6.219,0
4.787,6.585,0
4.788,6.219,0
4.789,6.402,0
4.79,3.839,0
4.791,1.275,0
4.792,1.092,0
4.793,2.374,0
4.794,0.36,0
4.795,1.641,0
4.796,5.12,0
4.797,12.628,0
4.798,29.656,0
4.799,61.334,0
4.8,31.121,0
4.801,3.656,0
4.802,-21.247,0
4.803,-30.768,0
4.804,-33.698,0
4.805,-36.261,0
4.806,-33.881,0
4.807,-31.684,0
4.808,-25.641,0
4.809,-23.81,0
4.81,-18.866,0
4.811,-17.402,0
4.812,-10.627,0
4.813,-4.584,0
4.814,1.092,0
4.815,0.177,0
4.816,2.923,0
4.817,3.656,0
4.818,4.388,0
4.819,4.937,0
4.82,9.332,0
4.821,12.078,0
4.822,12.445,0
4.823,11.163,0
4.824,7.318,0
4.825,6.036,0
4.826,7.318,0
4.827,4.571,0
4.828,7.135,0
4.829,6.036,0
4.83,2.74,0
4.831,1.458,0
4.832,5.303,0
4.833,5.67,0
4.834,7.867,0
4.835,5.12,0
4.836,1.641,0
4.837,4.754,0
4.838,5.12,0
4.839,2.557,0
4.84,2.923,0
4.841,0.177,0
4.842,-3.302,0
4.843,-3.669,0
4.844,-4.035,0
4.845,0.36,0
4.846,-2.204,0
4.847,3.289,0
4.848,14.825,0
4.849,36.431,0
4.85,51.263,0
4.851,59.136,0
4.852,27.459,0
4.853,-11.542,0
4.854,-27.106,0
4.855,-31.867,0
4.856,-36.078,0
4.857,-39.924,0
4.858,-36.445,0
4.859,-33.332,0
4.86,-24.543,0
4.861,-21.979,0
4.862,-14.838,0
4.863,-8.246,0
4.864,-10.26,0
4.865,-8.429,0
4.866,-3.486,0
4.867,0.909,0
4.868,2.191,0
4.869,3.289,0
4.87,4.388,0
4.871,7.318,0
4.872,11.895,0
4.873,7.867,0
4.874,8.599,0
4.875,4.022,0
4.876,7.135,0
4.877,5.487,0
4.878,5.853,0
4.879,7.135,0
4.88,6.036,0
4.881,7.135,0
4.882,4.571,0
4.883,1.824,0
4.884,4.388,0
4.885,4.022,0
4.886,3.289,0
4.887,6.402,0
4.888,10.98,0
4.889,7.867,0
4.89,5.12,0
4.891,2.74,0
4.892,2.374,0
4.893,2.008,0
4.894,4.571,0
4.895,2.74,0
4.896,1.824,0
4.897,-1.471,0
4.898,-2.753,0
4.899,-0.739,0
4.9,-3.302,0
4.901,0.726,0
4.902,2.008,0
4.903,8.966,0
4.904,24.163,0
4.905,21.966,0
4.906,-0.19,0
4.907,2.74,0
4.908,32.22,0
4.909,43.939,0
4.91,47.418,0
4.911,11.712,0
4.912,-21.613,0
4.913,-34.43,0
4.914,-46.149,0
4.915,-42.67,0
4.916,-45.783,0
4.917,-36.994,0
4.918,-29.12,0
4.919,-26.74,0
4.92,-15.754,0
4.921,-9.711,0
4.922,-7.88,0
4.923,-6.232,0
4.924,-4.767,0
4.925,-3.486,0
4.926,-2.387,0
4.927,0.909,0
4.928,1.824,0
4.929,4.571,0
4.93,8.599,0
4.931,4.754,0
4.932,8.05,0
4.933,7.501,0
4.934,6.951,0
4.935,9.332,0
4.936,11.529,0
4.937,11.895,0
4.938,9.332,0
4.939,8.233,0
4.94,7.501,0
4.941,5.67,0
4.942,4.937,0
4.943,7.135,0
4.944,4.022,0
4.945,9.515,0
4.946,2.557,0
4.947,6.951,0
4.948,4.205,0
4.949,16.656,0
4.95,29.473,0
4.951,44.488,0
4.952,46.502,0
4.953,44.671,0
4.954,26.361,0
4.955,-0.373,0
4.956,-25.275,0
4.957,-41.388,0
4.958,-50.177,0
4.959,-42.304,0
4.96,-39.924,0
4.961,-33.332,0
4.962,-27.289,0
4.963,-21.796,0
4.964,-23.444,0
4.965,-19.05,0
4.966,-12.275,0
4.967,-6.232,0
4.968,-0.556,0
4.969,0.36,0
4.97,4.937,0
4.971,5.67,0
4.972,1.824,0
4.973,5.12,0
4.974,4.571,0
4.975,7.318,0
4.976,9.698,0
4.977,10.064,0
4.978,7.318,0
4.979,5.487,0
4.98,4.388,0
4.981,4.571,0
4.982,4.754,0
4.983,1.824,0
4.984,4.388,0
4.985,4.754,0
4.986,9.332,0
4.987,6.036,0
4.988,7.867,0
4.989,9.515,0
4.99,6.219,0
4.991,3.106,0
4.992,4.205,0
4.993,3.839,0
4.994,2.74,0
4.995,2.557,0
4.996,1.824,0
4.997,1.092,0
4.998,-2.57,0
4.999,-3.119,0
5,0.177,0
5.001,7.135,0
5.002,22.332,0
5.003,55.474,0
5.004,31.671,0
5.005,1.458,0
5.006,-26.008,0
5.007,-36.628,0
5.008,-33.515,0
5.009,-30.585,0
5.01,-28.022,0
5.011,-25.641,0
5.012,-23.444,0
5.013,-17.402,0
5.014,-15.571,0
5.015,-10.627,0
5.016,-9.162,0
5.017,-5.134,0
5.018,-1.655,0
5.019,1.641,0
5.02,2.557,0
5.021,5.303,0
5.022,7.684,0
5.023,6.951,0
5.024,5.12,0
5.025,4.571,0
5.026,4.022,0
5.027,3.656,0
5.028,6.768,0
5.029,7.135,0
5.03,7.501,0
5.031,2.008,0
5.032,2.74,0
5.033,-0.556,0
5.034,5.12,0
5.035,4.388,0
5.036,6.219,0
5.037,8.05,0
5.038,6.402,0
5.039,5.12,0
5.04,-0.007,0
5.041,-1.838,0
5.042,1.275,0
5.043,-0.373,0
5.044,2.008,0
5.045,0.726,0
5.046,1.092,0
5.047,3.656,0
5.048,1.092,0
5.049,-2.57,0
5.05,2.008,0
5.051,12.261,0
5.052,28.741,0
5.053,53.094,0
5.054,56.207,0
5.055,53.277,0
5.056,23.797,0
5.057,-11.725,0
5.058,-35.529,0
5.059,-31.318,0
5.06,-43.036,0
5.061,-39.557,0
5.062,-36.445,0
5.063,-27.656,0
5.064,-25.092,0
5.065,-27.472,0
5.066,-20.881,0
5.067,-14.838,0
5.068,-9.345,0
5.069,-1.105,0
5.07,-2.57,0
5.071,-1.288,0
5.072,2.191,0
5.073,-1.105,0
5.074,-0.19,0
5.075,4.388,0
5.076,5.12,0
5.077,7.318,0
5.078,6.768,0
5.079,12.445,0
5.08,10.247,0
5.081,8.416,0
5.082,8.966,0
5.083,9.515,0
5.084,10.797,0
5.085,9.515,0
5.086,9.881,0
5.087,11.712,0
5.088,9.881,0
5.089,5.303,0
5.09,2.008,0
5.091,0.177,0
5.092,1.824,0
5.093,-3.669,0
5.094,-4.401,0
5.095,-2.57,0
5.096,-0.739,0
5.097,-5.866,0
5.098,-1.288,0
5.099,-4.401,0
5.1,-1.105,0
5.101,1.641,0
5.102,9.149,0
5.103,26.177,0
5.104,43.023,0
5.105,45.22,0
5.106,43.206,0
5.107,30.389,0
5.108,5.487,0
5.109,-26.74,0
5.11,-39.557,0
5.111,-43.403,0
5.112,-39.924,0
5.113,-36.811,0
5.114,-33.881,0
5.115,-31.318,0
5.116,-24.177,0
5.117,-21.979,0
5.118,-19.965,0
5.119,-10.81,0
5.12,-9.162,0
5.121,-4.767,0
5.122,-0.739,0
5.123,0.36,0
5.124,6.036,0
5.125,8.966,0
5.126,6.219,0
5.127,8.599,0
5.128,7.867,0
5.129,7.318,0
5.13,7.867,0
5.131,9.515,0
5.132,10.797,0
5.133,3.839,0
5.134,6.768,0
5.135,7.684,0
5.136,5.303,0
5.137,4.571,0
5.138,5.12,0
5.139,-1.838,0
5.14,0.909,0
5.141,1.641,0
5.142,6.951,0
5.143,5.12,0
5.144,8.233,0
5.145,4.388,0
5.146,2.008,0
5.147,4.205,0
5.148,0.36,0
5.149,7.867,0
5.15,24.896,0
5.151,3.289,0
5.152,5.67,0
5.153,-0.922,0
5.154,-2.936,0
5.155,9.881,0
5.156,24.896,0
5.157,43.023,0
5.158,55.108,0
5.159,21.966,0
5.16,-11.359,0
5.161,-32.966,0
5.162,-36.811,0
5.163,-40.29,0
5.164,-37.177,0
5.165,-34.247,0
5.166,-26.374,0
5.167,-28.754,0
5.168,-22.162,0
5.169,-16.12,0
5.17,-10.627,0
5.171,-8.979,0
5.172,-7.514,0
5.173,-3.486,0
5.174,-0.007,0
5.175,1.092,0
5.176,6.036,0
5.177,6.951,0
5.178,2.923,0
5.179,5.12,0
5.18,4.571,0
5.181,5.12,0
5.182,6.768,0
5.183,4.388,0
5.184,7.501,0
5.185,8.599,0
5.186,8.233,0
5.187,7.867,0
5.188,10.614,0
5.189,10.98,0
5.19,8.416,0
5.191,6.951,0
5.192,2.74,0
5.193,2.191,0
5.194,-1.655,0
5.195,0.726,0
5.196,1.092,0
5.197,1.458,0
5.198,1.824,0
5.199,-0.739,0
5.2,-0.922,0
5.201,-0.19,0
5.202,1.092,0
5.203,1.824,0
5.204,5.303,0
5.205,12.811,0
5.206,29.84,0
5.207,56.573,0
5.208,24.346,0
5.209,-14.655,0
5.21,-19.782,0
5.211,-24.543,0
5.212,-28.754,0
5.213,-32.599,0
5.214,-29.12,0
5.215,-19.599,0
5.216,-16.669,0
5.217,-14.106,0
5.218,-6.965,0
5.219,-9.162,0
5.22,-3.119,0
5.221,-4.95,0
5.222,-3.302,0
5.223,-7.697,0
5.224,-3.669,0
5.225,-0.19,0
5.226,5.487,0
5.227,4.571,0
5.228,5.487,0
5.229,9.515,0
5.23,7.318,0
5.231,2.74,0
5.232,4.571,0
5.233,4.022,0
5.234,1.641,0
5.235,2.008,0
5.236,5.853,0
5.237,4.571,0
5.238,4.205,0
5.239,1.458,0
5.24,2.557,0
5.241,1.458,0
5.242,1.641,0
5.243,5.853,0
5.244,5.303,0
5.245,8.05,0
5.246,4.754,0
5.247,5.12,0
5.248,7.135,0
5.249,6.768,0
5.25,8.599,0
5.251,11.346,0
5.252,11.712,0
5.253,16.473,0
5.254,21.234,0
5.255,30.755,0
5.256,51.263,0
5.257,71.954,0
5.258,79.827,0
5.259,53.094,0
5.26,20.867,0
5.261,-9.345,0
5.262,-21.064,0
5.263,-24.543,0
5.264,-34.064,0
5.265,-42.853,0
5.266,-45.417,0
5.267,-52.558,0
5.268,-59.15,0
5.269,-65.192,0
5.27,-63.361,0
5.271,-58.417,0
5.272,-47.98,0
5.273,-38.459,0
5.274,-34.98,0
5.275,-36.078,0
5.276,-47.248,0
5.277,-69.77,0
5.278,-85.883,0
5.279,-106.57,0
5.28,-125.25,0
5.281,-137.34,0
5.282,-135.14,0
5.283,-137.15,0
5.284,-124.33,0
5.285,-112.8,0
5.286,-102.36,0
5.287,-81.855,0
5.288,-37.36,0
5.289,58.038,0
5.29,126.34,0
5.291,163.69,0
5.292,174.86,0
5.293,164.6,0
5.294,136.59,0
5.295,128.17,0
5.296,105.1,0
5.297,112.05,0
5.298,93.194,0
5.299,98.87,0
5.3,104,0
5.301,127.8,0
5.302,132.01,0
5.303,143.73,0
5.304,136.59,0
5.305,125.97,0
5.306,109.86,0
5.307,118.65,0
5.308,126.52,0
5.309,119.38,0
5.31,95.025,0
5.311,72.503,0
5.312,57.672,0
5.313,33.502,0
5.314,4.205,0
5.315,-23.261,0
5.316,-41.022,0
5.317,-57.135,0
5.318,-60.065,0
5.319,-67.939,0
5.32,-75.08,0
5.321,-68.488,0
5.322,-58.417,0
5.323,-63.91,0
5.324,-65.558,0
5.325,-64.094,0
5.326,-60.065,0
5.327,-56.586,0
5.328,-55.488,0
5.329,-52.558,0
5.33,-51.642,0
5.331,-49.262,0
5.332,-48.53,0
5.333,-51.825,0
5.334,-49.994,0
5.335,-50.544,0
5.336,-48.163,0
5.337,-54.206,0
5.338,-51.825,0
5.339,-49.628,0
5.34,-45.051,0
5.341,-40.656,0
5.342,-37.909,0
5.343,-30.402,0
5.344,-27.106,0
5.345,-22.162,0
5.346,-19.416,0
5.347,-17.035,0
5.348,-11.725,0
5.349,-12.275,0
5.35,-10.444,0
5.351,-6.598,0
5.352,-5.317,0
5.353,-0.19,0
5.354,-3.486,0
5.355,3.289,0
5.356,3.839,0
5.357,8.966,0
5.358,19.219,0
5.359,41.741,0
5.36,57.855,0
5.361,49.066,0
5.362,56.939,0
5.363,49.798,0
5.364,47.601,0
5.365,17.388,0
5.366,-30.219,0
5.367,-49.079,0
5.368,-43.403,0
5.369,-48.53,0
5.37,-43.769,0
5.371,-39.557,0
5.372,-35.712,0
5.373,-25.092,0
5.374,-15.571,0
5.375,-12.641,0
5.376,-4.767,0
5.377,-2.387,0
5.378,4.205,0
5.379,6.219,0
5.38,11.712,0
5.381,13.36,0
5.382,17.755,0
5.383,19.036,0
5.384,25.079,0
5.385,26.177,0
5.386,23.248,0
5.387,18.67,0
5.388,17.938,0
5.389,15.74,0
5.39,17.572,0
5.391,17.022,0
5.392,13.177,0
5.393,13.543,0
5.394,20.501,0
5.395,35.699,0
5.396,20.318,0
5.397,6.219,0
5.398,-2.936,0
5.399,-7.88,0
5.4,-9.345,0
5.401,-5.317,0
5.402,-4.218,0
5.403,1.458,0
5.404,-1.471,0
5.405,-0.556,0
5.406,-0.373,0
5.407,0.36,0
5.408,11.895,0
5.409,26.91,0
5.41,57.122,0
5.411,61.334,0
5.412,25.811,0
5.413,-7.514,0
5.414,-20.331,0
5.415,-24.177,0
5.416,-27.656,0
5.417,-24.543,0
5.418,-27.472,0
5.419,-19.599,0
5.42,-17.219,0
5.421,-15.021,0
5.422,-8.979,0
5.423,-3.486,0
5.424,-1.838,0
5.425,-0.373,0
5.426,3.656,0
5.427,2.557,0
5.428,3.656,0
5.429,2.74,0
5.43,5.487,0
5.431,4.754,0
5.432,5.487,0
5.433,6.036,0
5.434,6.585,0
5.435,6.036,0
5.436,5.67,0
5.437,5.303,0
5.438,6.402,0
5.439,2.923,0
5.44,5.12,0
5.441,7.135,0
5.442,8.966,0
5.443,7.867,0
5.444,5.853,0
5.445,6.036,0
5.446,5.303,0
5.447,8.416,0
5.448,9.515,0
5.449,6.036,0
5.45,6.402,0
5.451,0.177,0
5.452,-4.401,0
5.453,-3.669,0
5.454,-5.866,0
5.455,-2.57,0
5.456,-2.021,0
5.457,-0.373,0
5.458,1.275,0
5.459,8.782,0
5.46,25.811,0
5.461,62.249,0
5.462,46.685,0
5.463,13.36,0
5.464,-16.852,0
5.465,-28.571,0
5.466,-32.05,0
5.467,-35.163,0
5.468,-32.233,0
5.469,-24.36,0
5.47,-26.74,0
5.471,-15.754,0
5.472,-17.768,0
5.473,-15.937,0
5.474,-10.993,0
5.475,-9.528,0
5.476,-2.753,0
5.477,0.726,0
5.478,1.824,0
5.479,4.754,0
5.48,5.67,0
5.481,4.937,0
5.482,8.782,0
5.483,4.205,0
5.484,11.163,0
5.485,6.585,0
5.486,4.205,0
5.487,3.472,0
5.488,2.923,0
5.489,1.092,0
5.49,3.839,0
5.491,1.458,0
5.492,3.656,0
5.493,4.754,0
5.494,5.853,0
5.495,4.754,0
5.496,1.458,0
5.497,-3.669,0
5.498,-1.838,0
5.499,-1.288,0
5.5,-0.739,0
5.501,-1.105,0
5.502,2.008,0
5.503,1.641,0
5.504,0.543,0
5.505,1.641,0
5.506,3.106,0
5.507,2.374,0
5.508,6.951,0
5.509,8.233,0
5.51,11.712,0
5.511,19.219,0
5.512,36.248,0
5.513,58.221,0
5.514,25.628,0
5.515,-13.373,0
5.516,-28.937,0
5.517,-33.698,0
5.518,-29.487,0
5.519,-25.641,0
5.52,-22.162,0
5.521,-19.05,0
5.522,-16.12,0
5.523,-13.556,0
5.524,-11.176,0
5.525,-8.979,0
5.526,-6.965,0
5.527,-1.471,0
5.528,-3.119,0
5.529,1.275,0
5.53,-2.753,0
5.531,3.289,0
5.532,4.388,0
5.533,1.458,0
5.534,2.374,0
5.535,4.754,0
5.536,5.487,0
5.537,6.036,0
5.538,7.867,0
5.539,5.12,0
5.54,7.501,0
5.541,2.374,0
5.542,4.205,0
5.543,3.656,0
5.544,7.501,0
5.545,2.008,0
5.546,1.275,0
5.547,3.106,0
5.548,7.501,0
5.549,6.951,0
5.55,7.318,0
5.551,8.599,0
5.552,6.585,0
5.553,3.106,0
5.554,-0.007,0
5.555,0.36,0
5.556,2.191,0
5.557,-2.57,0
5.558,1.824,0
5.559,0.36,0
5.56,-1.288,0
5.561,6.219,0
5.562,23.248,0
5.563,49.981,0
5.564,53.46,0
5.565,56.573,0
5.566,17.938,0
5.567,-18.683,0
5.568,-32.966,0
5.569,-37.177,0
5.57,-33.332,0
5.571,-36.811,0
5.572,-33.698,0
5.573,-30.768,0
5.574,-22.895,0
5.575,-20.514,0
5.576,-13.923,0
5.577,-11.908,0
5.578,-10.077,0
5.579,-5.134,0
5.58,-3.669,0
5.581,-2.387,0
5.582,1.092,0
5.583,2.191,0
5.584,5.12,0
5.585,7.867,0
5.586,10.247,0
5.587,9.515,0
5.588,14.093,0
5.589,12.261,0
5.59,9.515,0
5.591,8.233,0
5.592,9.515,0
5.593,6.768,0
5.594,7.867,0
5.595,3.106,0
5.596,3.656,0
5.597,5.303,0
5.598,4.937,0
5.599,5.303,0
5.6,3.289,0
5.601,1.458,0
5.602,2.557,0
5.603,5.303,0
5.604,6.402,0
5.605,7.501,0
5.606,5.487,0
5.607,4.205,0
5.608,1.275,0
5.609,0.909,0
5.61,4.754,0
5.611,-0.739,0
5.612,10.797,0
5.613,25.811,0
5.614,47.967,0
5.615,62.799,0
5.616,54.925,0
5.617,18.487,0
5.618,-18.134,0
5.619,-32.416,0
5.62,-36.628,0
5.621,-40.473,0
5.622,-36.994,0
5.623,-33.881,0
5.624,-25.092,0
5.625,-27.656,0
5.626,-20.514,0
5.627,-18.317,0
5.628,-8.246,0
5.629,-6.415,0
5.63,-8.063,0
5.631,-6.598,0
5.632,0.177,0
5.633,3.656,0
5.634,4.754,0
5.635,5.67,0
5.636,2.923,0
5.637,2.191,0
5.638,2.923,0
5.639,13.177,0
5.64,35.699,0
5.641,32.586,0
5.642,17.755,0
5.643,4.388,0
5.644,-2.753,0
5.645,-4.95,0
5.646,-2.936,0
5.647,-8.429,0
5.648,-6.781,0
5.649,-8.246,0
5.65,-1.471,0
5.651,-2.57,0
5.652,-1.471,0
5.653,3.472,0
5.654,0.726,0
5.655,4.754,0
5.656,5.487,0
5.657,4.937,0
5.658,5.487,0
5.659,4.937,0
5.66,2.557,0
5.661,5.487,0
5.662,5.12,0
5.663,11.346,0
5.664,25.262,0
5.665,55.474,0
5.666,59.686,0
5.667,32.22,0
5.668,-14.289,0
5.669,-33.149,0
5.67,-38.825,0
5.671,-33.698,0
5.672,-28.937,0
5.673,-33.149,0
5.674,-29.303,0
5.675,-25.824,0
5.676,-16.303,0
5.677,-13.373,0
5.678,-10.81,0
5.679,-8.429,0
5.68,-6.232,0
5.681,-0.19,0
5.682,1.641,0
5.683,3.289,0
5.684,1.824,0
5.685,5.853,0
5.686,4.754,0
5.687,5.853,0
5.688,2.923,0
5.689,7.501,0
5.69,3.472,0
5.691,5.67,0
5.692,5.12,0
5.693,6.951,0
5.694,8.599,0
5.695,6.219,0
5.696,6.585,0
5.697,6.219,0
5.698,7.318,0
5.699,7.684,0
5.7,9.698,0
5.701,5.487,0
5.702,6.036,0
5.703,5.487,0
5.704,-0.007,0
5.705,0.726,0
5.706,1.275,0
5.707,-0.556,0
5.708,2.191,0
5.709,0.909,0
5.71,0.543,0
5.711,0.909,0
5.712,-2.57,0
5.713,3.106,0
5.714,13.909,0
5.715,30.389,0
5.716,54.742,0
5.717,64.263,0
5.718,37.53,0
5.719,-1.838,0
5.72,-28.022,0
5.721,-32.782,0
5.722,-36.994,0
5.723,-40.839,0
5.724,-30.219,0
5.725,-27.106,0
5.726,-24.177,0
5.727,-16.303,0
5.728,-13.923,0
5.729,-11.725,0
5.73,-9.711,0
5.731,-4.218,0
5.732,4.022,0
5.733,2.557,0
5.734,3.839,0
5.735,4.937,0
5.736,6.036,0
5.737,3.106,0
5.738,4.022,0
5.739,4.754,0
5.74,2.557,0
5.741,4.388,0
5.742,4.937,0
5.743,3.289,0
5.744,3.656,0
5.745,5.853,0
5.746,5.487,0
5.747,2.923,0
5.748,8.416,0
5.749,7.684,0
5.75,5.853,0
5.751,6.402,0
5.752,3.656,0
5.753,2.374,0
5.754,2.008,0
5.755,-2.57,0
5.756,-0.739,0
5.757,-3.486,0
5.758,-0.19,0
5.759,-0.556,0
5.76,-3.302,0
5.761,-2.204,0
5.762,-2.57,0
5.763,1.824,0
5.764,2.557,0
5.765,6.768,0
5.766,16.29,0
5.767,36.798,0
5.768,51.629,0
5.769,43.756,0
5.77,26.91,0
5.771,-6.232,0
5.772,-30.036,0
5.773,-42.853,0
5.774,-46.698,0
5.775,-43.219,0
5.776,-40.107,0
5.777,-31.318,0
5.778,-28.754,0
5.779,-21.613,0
5.78,-15.021,0
5.781,-8.979,0
5.782,-7.148,0
5.783,-2.204,0
5.784,2.191,0
5.785,3.472,0
5.786,-0.007,0
5.787,3.289,0
5.788,4.205,0
5.789,8.782,0
5.79,9.515,0
5.791,10.247,0
5.792,9.698,0
5.793,4.022,0
5.794,6.219,0
5.795,4.388,0
5.796,3.839,0
5.797,8.966,0
5.798,4.388,0
5.799,3.839,0
5.8,5.487,0
5.801,3.106,0
5.802,2.74,0
5.803,3.839,0
5.804,4.205,0
5.805,3.106,0
5.806,5.12,0
5.807,2.008,0
5.808,3.106,0
5.809,4.205,0
5.81,0.909,0
5.811,1.275,0
5.812,0.909,0
5.813,-1.655,0
5.814,1.824,0
5.815,3.289,0
5.816,7.501,0
5.817,17.022,0
5.818,37.53,0
5.819,40.46,0
5.82,37.896,0
5.821,35.516,0
5.822,46.502,0
5.823,24.346,0
5.824,-14.289,0
5.825,-40.473,0
5.826,-54.755,0
5.827,-50.544,0
5.828,-46.698,0
5.829,-43.219,0
5.83,-40.107,0
5.831,-37.177,0
5.832,-23.81,0
5.833,-21.43,0
5.834,-14.838,0
5.835,-8.796,0
5.836,-3.302,0
5.837,-1.655,0
5.838,-0.19,0
5.839,6.585,0
5.84,7.684,0
5.841,10.98,0
5.842,4.022,0
5.843,6.768,0
5.844,6.036,0
5.845,6.768,0
5.846,7.318,0
5.847,5.487,0
5.848,8.233,0
5.849,9.515,0
5.85,10.797,0
5.851,10.43,0
5.852,6.951,0
5.853,8.233,0
5.854,8.599,0
5.855,5.12,0
5.856,5.487,0
5.857,3.472,0
5.858,2.374,0
5.859,2.74,0
5.86,5.487,0
5.861,1.275,0
5.862,0.726,0
5.863,-1.655,0
5.864,3.472,0
5.865,1.092,0
5.866,-2.204,0
5.867,7.318,0
5.868,27.825,0
5.869,54.559,0
5.87,65.179,0
5.871,62.066,0
5.872,17.572,0
5.873,-14.106,0
5.874,-31.318,0
5.875,-36.445,0
5.876,-41.205,0
5.877,-36.994,0
5.878,-33.149,0
5.879,-29.67,0
5.88,-20.148,0
5.881,-17.219,0
5.882,-19.782,0
5.883,-12.641,0
5.884,-10.444,0
5.885,-0.373,0
5.886,27.093,0
5.887,23.248,0
5.888,5.487,0
5.889,-4.035,0
5.89,-6.965,0
5.891,-4.401,0
5.892,-2.021,0
5.893,0.177,0
5.894,-1.838,0
5.895,-3.669,0
5.896,-2.021,0
5.897,-0.556,0
5.898,0.726,0
5.899,6.768,0
5.9,7.867,0
5.901,6.951,0
5.902,7.867,0
5.903,7.135,0
5.904,4.937,0
5.905,6.768,0
5.906,8.599,0
5.907,8.05,0
5.908,6.768,0
5.909,4.571,0
5.91,4.937,0
5.911,5.303,0
5.912,6.402,0
5.913,4.937,0
5.914,4.754,0
5.915,4.937,0
5.916,8.416,0
5.917,4.937,0
5.918,12.445,0
5.919,29.473,0
5.92,46.319,0
5.921,57.305,0
5.922,51.263,0
5.923,23.797,0
5.924,-19.599,0
5.925,-36.811,0
5.926,-41.938,0
5.927,-37.177,0
5.928,-41.388,0
5.929,-37.543,0
5.93,-26.923,0
5.931,-23.81,0
5.932,-20.881,0
5.933,-13.007,0
5.934,-10.627,0
5.935,-8.429,0
5.936,-6.415,0
5.937,-4.584,0
5.938,-2.936,0
5.939,-1.471,0
5.94,-0.19,0
5.941,3.289,0
5.942,2.191,0
5.943,7.135,0
5.944,6.219,0
5.945,2.191,0
5.946,6.036,0
5.947,6.585,0
5.948,9.698,0
5.949,11.346,0
5.95,11.712,0
5.951,12.994,0
5.952,10.247,0
5.953,9.149,0
5.954,6.585,0
5.955,3.289,0
5.956,0.177,0
5.957,-0.19,0
5.958,1.641,0
5.959,2.008,0
5.96,2.74,0
5.961,-0.373,0
5.962,0.726,0
5.963,-0.373,0
5.964,1.458,0
5.965,-1.288,0
5.966,3.656,0
5.967,4.022,0
5.968,2.191,0
5.969,11.712,0
5.97,32.22,0
5.971,52.911,0
5.972,55.474,0
5.973,28.741,0
5.974,-10.627,0
5.975,-26.191,0
5.976,-30.951,0
5.977,-26.74,0
5.978,-30.585,0
5.979,-34.064,0
5.98,-30.951,0
5.981,-22.162,0
5.982,-19.599,0
5.983,-12.458,0
5.984,-10.26,0
5.985,-4.218,0
5.986,-2.387,0
5.987,-0.739,0
5.988,-2.204,0
5.989,-0.922,0
5.99,5.12,0
5.991,1.824,0
5.992,2.74,0
5.993,5.487,0
5.994,6.219,0
5.995,4.022,0
5.996,5.853,0
5.997,10.247,0
5.998,11.895,0
5.999,11.529,0
6,13.726,0
6.001,19.952,0
6.002,22.698,0
6.003,26.727,0
6.004,28.924,0
6.005,29.473,0
6.006,27.642,0
6.007,27.093,0
6.008,23.797,0
6.009,21.6,0
6.01,15.374,0
6.011,12.628,0
6.012,3.472,0
6.013,-10.077,0
6.014,-15.571,0
6.015,-27.106,0
6.016,-34.614,0
6.017,-41.388,0
6.018,-37.726,0
6.019,-34.247,0
6.02,-17.219,0
6.021,-0.373,0
6.022,15.008,0
6.023,8.966,0
6.024,-3.852,0
6.025,-28.754,0
6.026,-82.404,0
6.027,-151.8,0
6.028,-161.14,0
6.029,-186.41,0
6.03,-194.1,0
6.031,-187.14,0
6.032,-168.28,0
6.033,-151.07,0
6.034,-124.89,0
6.035,-101.08,0
6.036,-36.078,0
6.037,47.967,0
6.038,104.36,0
6.039,135.13,0
6.04,163.14,0
6.041,154.72,0
6.042,131.65,0
6.043,124.69,0
6.044,130.91,0
6.045,125.24,0
6.046,130.37,0
6.047,144.65,0
6.048,166.25,0
6.049,185.84,0
6.05,182.37,0
6.051,179.25,0
6.052,164.42,0
6.053,134.94,0
6.054,123.22,0
6.055,105.46,0
6.056,82.94,0
6.057,56.207,0
6.058,38.446,0
6.059,22.332,0
6.06,13.543,0
6.061,16.107,0
6.062,13.726,0
6.063,2.74,0
6.064,-3.302,0
6.065,-23.444,0
6.066,-26.008,0
6.067,-33.149,0
6.068,-35.346,0
6.069,-38.459,0
6.07,-48.53,0
6.071,-46.698,0
6.072,-35.163,0
6.073,-12.641,0
6.074,-9.528,0
6.075,-30.219,0
6.076,-59.699,0
6.077,-87.165,0
6.078,-97.785,0
6.079,-100.9,0
6.08,-103.83,0
6.081,-101.26,0
6.082,-94.123,0
6.083,-91.926,0
6.084,-81.855,0
6.085,-72.699,0
6.086,-67.756,0
6.087,-60.248,0
6.088,-53.473,0
6.089,-45.051,0
6.09,-39.374,0
6.091,-34.43,0
6.092,-26.008,0
6.093,-22.712,0
6.094,-19.782,0
6.095,-13.373,0
6.096,-12.641,0
6.097,-5.683,0
6.098,-4.767,0
6.099,0.909,0
6.1,4.754,0
6.101,5.303,0
6.102,10.98,0
6.103,7.135,0
6.104,8.966,0
6.105,9.515,0
6.106,7.867,0
6.107,10.247,0
6.108,9.881,0
6.109,7.867,0
6.11,5.303,0
6.111,8.599,0
6.112,10.614,0
6.113,8.05,0
6.114,9.881,0
6.115,11.346,0
6.116,10.614,0
6.117,9.881,0
6.118,11.346,0
6.119,9.881,0
6.12,9.881,0
6.121,10.797,0
6.122,13.543,0
6.123,19.219,0
6.124,31.671,0
6.125,59.136,0
6.126,62.982,0
6.127,23.614,0
6.128,-2.57,0
6.129,-26.374,0
6.13,-30.585,0
6.131,-18.866,0
6.132,-8.246,0
6.133,-5.134,0
6.134,-19.965,0
6.135,-22.529,0
6.136,-24.909,0
6.137,-27.106,0
6.138,-21.064,0
6.139,-15.571,0
6.14,-10.627,0
6.141,-6.232,0
6.142,-2.204,0
6.143,3.839,0
6.144,0.543,0
6.145,5.487,0
6.146,4.571,0
6.147,6.951,0
6.148,12.261,0
6.149,11.712,0
6.15,14.825,0
6.151,12.078,0
6.152,8.782,0
6.153,10.064,0
6.154,9.698,0
6.155,9.332,0
6.156,10.43,0
6.157,8.966,0
6.158,4.754,0
6.159,5.303,0
6.16,5.853,0
6.161,6.219,0
6.162,4.937,0
6.163,6.036,0
6.164,4.937,0
6.165,6.768,0
6.166,6.951,0
6.167,10.064,0
6.168,6.219,0
6.169,5.853,0
6.17,5.487,0
6.171,0.36,0
6.172,3.106,0
6.173,8.782,0
6.174,21.234,0
6.175,48.699,0
6.176,60.418,0
6.177,49.798,0
6.178,14.093,0
6.179,-19.233,0
6.18,-32.05,0
6.181,-43.769,0
6.182,-33.149,0
6.183,-36.261,0
6.184,-27.472,0
6.185,-24.909,0
6.186,-22.529,0
6.187,-15.937,0
6.188,-13.923,0
6.189,-12.092,0
6.19,-10.444,0
6.191,-8.979,0
6.192,-4.95,0
6.193,1.092,0
6.194,2.191,0
6.195,5.12,0
6.196,2.374,0
6.197,9.881,0
6.198,8.966,0
6.199,9.881,0
6.2,7.501,0
6.201,6.768,0
6.202,4.937,0
6.203,1.824,0
6.204,0.177,0
6.205,2.557,0
6.206,5.67,0
6.207,6.036,0
6.208,4.205,0
6.209,4.571,0
6.21,4.754,0
6.211,2.923,0
6.212,2.74,0
6.213,4.205,0
6.214,0.909,0
6.215,2.191,0
6.216,6.036,0
6.217,3.656,0
6.218,1.458,0
6.219,3.472,0
6.22,-0.739,0
6.221,0.909,0
6.222,1.824,0
6.223,0.543,0
6.224,1.824,0
6.225,8.05,0
6.226,21.966,0
6.227,52.178,0
6.228,30.572,0
6.229,-4.95,0
6.23,-28.754,0
6.231,-32.966,0
6.232,-36.811,0
6.233,-33.332,0
6.234,-30.219,0
6.235,-21.43,0
6.236,-18.866,0
6.237,-16.486,0
6.238,-14.289,0
6.239,-12.275,0
6.24,-10.444,0
6.241,-5.5,0
6.242,-4.035,0
6.243,-2.753,0
6.244,-3.852,0
6.245,1.824,0
6.246,4.754,0
6.247,2.008,0
6.248,1.275,0
6.249,5.12,0
6.25,6.951,0
6.251,8.782,0
6.252,4.937,0
6.253,5.303,0
6.254,3.106,0
6.255,4.205,0
6.256,4.571,0
6.257,4.937,0
6.258,5.67,0
6.259,1.458,0
6.26,2.008,0
6.261,5.853,0
6.262,7.135,0
6.263,8.416,0
6.264,6.402,0
6.265,7.501,0
6.266,10.797,0
6.267,8.05,0
6.268,3.839,0
6.269,4.388,0
6.27,3.106,0
6.271,-0.007,0
6.272,-1.105,0
6.273,-2.57,0
6.274,-0.007,0
6.275,5.487,0
6.276,17.022,0
6.277,38.629,0
6.278,47.418,0
6.279,44.854,0
6.28,51.995,0
6.281,41.009,0
6.282,10.797,0
6.283,-28.205,0
6.284,-43.769,0
6.285,-48.53,0
6.286,-52.741,0
6.287,-41.022,0
6.288,-37.543,0
6.289,-28.022,0
6.29,-30.951,0
6.291,-17.585,0
6.292,-15.204,0
6.293,-13.007,0
6.294,-10.993,0
6.295,-5.5,0
6.296,-3.852,0
6.297,3.656,0
6.298,2.374,0
6.299,5.853,0
6.3,9.149,0
6.301,8.233,0
6.302,9.149,0
6.303,9.881,0
6.304,10.614,0
6.305,7.318,0
6.306,6.768,0
6.307,5.12,0
6.308,3.839,0
6.309,9.881,0
6.31,7.501,0
6.311,8.233,0
6.312,4.937,0
6.313,4.388,0
6.314,8.233,0
6.315,5.853,0
6.316,3.656,0
6.317,8.233,0
6.318,8.782,0
6.319,7.135,0
6.32,2.557,0
6.321,4.388,0
6.322,2.74,0
6.323,2.374,0
6.324,1.824,0
6.325,1.458,0
6.326,7.684,0
6.327,12.261,0
6.328,24.713,0
6.329,52.178,0
6.33,40.46,0
6.331,1.092,0
6.332,-14.472,0
6.333,-28.754,0
6.334,-32.966,0
6.335,-29.12,0
6.336,-32.599,0
6.337,-23.078,0
6.338,-26.008,0
6.339,-18.134,0
6.34,-15.754,0
6.341,-13.556,0
6.342,-7.514,0
6.343,-5.683,0
6.344,-0.739,0
6.345,0.726,0
6.346,7.501,0
6.347,1.458,0
6.348,7.135,0
6.349,6.219,0
6.35,7.135,0
6.351,6.402,0
6.352,8.599,0
6.353,5.303,0
6.354,4.754,0
6.355,7.501,0
6.356,5.12,0
6.357,4.754,0
6.358,3.656,0
6.359,7.867,0
6.36,7.318,0
6.361,4.022,0
6.362,0.909,0
6.363,2.008,0
6.364,3.106,0
6.365,4.937,0
6.366,4.205,0
6.367,1.092,0
6.368,3.106,0
6.369,0.543,0
6.37,0.909,0
6.371,-1.838,0
6.372,0.726,0
6.373,0.36,0
6.374,-1.655,0
6.375,1.092,0
6.376,2.374,0
6.377,6.402,0
6.378,14.825,0
6.379,8.782,0
6.38,12.078,0
6.381,27.276,0
6.382,56.024,0
6.383,44.305,0
6.384,4.937,0
6.385,-21.247,0
6.386,-35.529,0
6.387,-48.346,0
6.388,-44.501,0
6.389,-41.022,0
6.39,-37.909,0
6.391,-29.12,0
6.392,-21.247,0
6.393,-18.866,0
6.394,-16.669,0
6.395,-14.655,0
6.396,-9.162,0
6.397,-4.218,0
6.398,0.177,0
6.399,1.458,0
6.4,2.557,0
6.401,5.853,0
6.402,10.797,0
6.403,4.388,0
6.404,5.12,0
6.405,8.966,0
6.406,7.135,0
6.407,8.966,0
6.408,6.219,0
6.409,9.515,0
6.41,4.388,0
6.411,6.219,0
6.412,8.05,0
6.413,9.698,0
6.414,10.98,0
6.415,11.346,0
6.416,5.12,0
6.417,6.036,0
6.418,3.656,0
6.419,4.388,0
6.42,1.092,0
6.421,0.543,0
6.422,2.191,0
6.423,2.557,0
6.424,2.191,0
6.425,4.205,0
6.426,1.824,0
6.427,4.388,0
6.428,9.881,0
6.429,16.839,0
6.43,30.755,0
6.431,44.854,0
6.432,46.685,0
6.433,51.629,0
6.434,44.122,0
6.435,23.614,0
6.436,-20.881,0
6.437,-52.558,0
6.438,-46.882,0
6.439,-52.009,0
6.44,-47.248,0
6.441,-43.036,0
6.442,-39.191,0
6.443,-28.571,0
6.444,-25.458,0
6.445,-16.669,0
6.446,-8.796,0
6.447,-1.655,0
6.448,0.543,0
6.449,2.557,0
6.45,4.388,0
6.451,2.74,0
6.452,7.135,0
6.453,8.416,0
6.454,9.515,0
6.455,8.416,0
6.456,11.346,0
6.457,8.599,0
6.458,4.571,0
6.459,6.768,0
6.46,4.937,0
6.461,8.05,0
6.462,7.501,0
6.463,8.782,0
6.464,9.149,0
6.465,10.247,0
6.466,9.149,0
6.467,10.98,0
6.468,6.951,0
6.469,8.599,0
6.47,5.303,0
6.471,4.022,0
6.472,1.275,0
6.473,-2.204,0
6.474,-0.007,0
6.475,5.487,0
6.476,0.177,0
6.477,2.557,0
6.478,-0.739,0
6.479,8.782,0
6.48,29.29,0
6.481,49.981,0
6.482,52.545,0
6.483,50.164,0
6.484,34.783,0
6.485,4.571,0
6.486,-34.43,0
6.487,-39.557,0
6.488,-44.318,0
6.489,-40.107,0
6.49,-36.261,0
6.491,-32.782,0
6.492,-29.67,0
6.493,-26.74,0
6.494,-24.177,0
6.495,-17.035,0
6.496,-14.838,0
6.497,-8.796,0
6.498,0.36,0
6.499,2.008,0
6.5,3.472,0
6.501,4.754,0
6.502,8.233,0
6.503,9.332,0
6.504,8.416,0
6.505,7.501,0
6.506,9.881,0
6.507,7.684,0
6.508,8.233,0
6.509,8.782,0
6.51,6.036,0
6.511,4.754,0
6.512,6.036,0
6.513,2.191,0
6.514,6.768,0
6.515,4.937,0
6.516,6.585,0
6.517,5.303,0
6.518,4.937,0
6.519,3.839,0
6.52,2.74,0
6.521,0.177,0
6.522,-0.556,0
6.523,2.008,0
6.524,0.177,0
6.525,0.909,0
6.526,-0.373,0
6.527,3.656,0
6.528,4.022,0
6.529,2.374,0
6.53,9.881,0
6.531,26.91,0
6.532,43.756,0
6.533,54.742,0
6.534,64.813,0
6.535,37.347,0
6.536,-6.049,0
6.537,-34.797,0
6.538,-39.924,0
6.539,-44.684,0
6.54,-40.473,0
6.541,-36.628,0
6.542,-33.149,0
6.543,-30.036,0
6.544,-27.106,0
6.545,-19.233,0
6.546,-12.092,0
6.547,-9.894,0
6.548,-3.852,0
6.549,-2.021,0
6.55,2.923,0
6.551,4.388,0
6.552,8.416,0
6.553,2.374,0
6.554,8.05,0
6.555,7.135,0
6.556,11.712,0
6.557,7.684,0
6.558,6.951,0
6.559,5.12,0
6.56,2.008,0
6.561,3.656,0
6.562,9.149,0
6.563,6.951,0
6.564,8.782,0
6.565,9.332,0
6.566,4.205,0
6.567,4.754,0
6.568,6.585,0
6.569,4.937,0
6.57,3.656,0
6.571,3.289,0
6.572,2.191,0
6.573,-0.373,0
6.574,-2.204,0
6.575,1.824,0
6.576,2.374,0
6.577,2.74,0
6.578,4.022,0
6.579,7.684,0
6.58,3.839,0
6.581,11.346,0
6.582,21.6,0
6.583,42.108,0
6.584,56.939,0
6.585,54.376,0
6.586,17.938,0
6.587,-18.683,0
6.588,-32.966,0
6.589,-37.177,0
6.59,-41.022,0
6.591,-37.543,0
6.592,-34.43,0
6.593,-31.501,0
6.594,-28.937,0
6.595,-21.796,0
6.596,-15.204,0
6.597,-9.162,0
6.598,-7.331,0
6.599,-2.387,0
6.6,2.008,0
6.601,0.726,0
6.602,1.824,0
6.603,5.12,0
6.604,8.05,0
6.605,5.303,0
6.606,6.036,0
6.607,8.233,0
6.608,6.402,0
6.609,8.233,0
6.61,5.487,0
6.611,6.768,0
6.612,7.135,0
6.613,8.233,0
6.614,2.557,0
6.615,4.937,0
6.616,8.782,0
6.617,8.233,0
6.618,6.402,0
6.619,3.656,0
6.62,1.275,0
6.621,2.557,0
6.622,8.782,0
6.623,22.698,0
6.624,28.741,0
6.625,1.275,0
6.626,-2.57,0
6.627,-6.049,0
6.628,-9.162,0
6.629,-6.232,0
6.63,-6.232,0
6.631,-8.796,0
6.632,8.05,0
6.633,14.642,0
6.634,44.854,0
6.635,57.672,0
6.636,30.206,0
6.637,-2.021,0
6.638,-23.627,0
6.639,-35.346,0
6.64,-38.825,0
6.641,-35.712,0
6.642,-26.923,0
6.643,-29.487,0
6.644,-22.345,0
6.645,-20.148,0
6.646,-10.077,0
6.647,-8.246,0
6.648,-6.598,0
6.649,0.909,0
6.65,2.191,0
6.651,3.289,0
6.652,-0.007,0
6.653,2.923,0
6.654,3.839,0
6.655,6.219,0
6.656,8.416,0
6.657,3.839,0
6.658,8.233,0
6.659,7.684,0
6.66,6.402,0
6.661,5.12,0
6.662,7.867,0
6.663,2.191,0
6.664,6.219,0
6.665,4.022,0
6.666,5.853,0
6.667,6.402,0
6.668,8.05,0
6.669,6.768,0
6.67,3.656,0
6.671,4.754,0
6.672,3.656,0
6.673,4.022,0
6.674,2.008,0
6.675,-1.105,0
6.676,0.909,0
6.677,3.472,0
6.678,-1.288,0
6.679,0.543,0
6.68,-1.105,0
6.681,-0.373,0
6.682,-0.739,0
6.683,6.219,0
6.684,21.417,0
6.685,50.164,0
6.686,69.757,0
6.687,44.854,0
6.688,2.557,0
6.689,-14.655,0
6.69,-30.219,0
6.691,-44.501,0
6.692,-40.29,0
6.693,-36.445,0
6.694,-25.824,0
6.695,-22.712,0
6.696,-19.782,0
6.697,-17.219,0
6.698,-10.077,0
6.699,-7.88,0
6.7,-1.838,0
6.701,-0.007,0
6.702,1.641,0
6.703,-2.753,0
6.704,1.275,0
6.705,4.754,0
6.706,8.05,0
6.707,7.135,0
6.708,9.881,0
6.709,13.909,0
6.71,11.712,0
6.711,8.416,0
6.712,8.966,0
6.713,7.318,0
6.714,6.036,0
6.715,5.67,0
6.716,5.303,0
6.717,6.402,0
6.718,3.839,0
6.719,-0.19,0
6.72,-2.936,0
6.721,2.557,0
6.722,4.754,0
6.723,1.458,0
6.724,0.909,0
6.725,-0.739,0
6.726,-1.105,0
6.727,-0.739,0
6.728,-1.838,0
6.729,1.641,0
6.73,1.275,0
6.731,-0.739,0
6.732,-1.105,0
6.733,-2.936,0
6.734,2.557,0
6.735,14.093,0
6.736,38.995,0
6.737,56.756,0
6.738,53.643,0
6.739,21.051,0
6.74,-17.951,0
6.741,-33.515,0
6.742,-38.276,0
6.743,-42.487,0
6.744,-38.642,0
6.745,-28.022,0
6.746,-24.909,0
6.747,-21.979,0
6.748,-19.416,0
6.749,-12.275,0
6.75,-5.683,0
6.751,-3.669,0
6.752,-1.838,0
6.753,-0.19,0
6.754,4.205,0
6.755,0.177,0
6.756,3.656,0
6.757,4.754,0
6.758,5.67,0
6.759,8.416,0
6.76,9.149,0
6.761,6.951,0
6.762,5.12,0
6.763,9.515,0
6.764,11.163,0
6.765,10.797,0
6.766,8.599,0
6.767,6.585,0
6.768,6.219,0
6.769,5.12,0
6.77,3.106,0
6.771,2.374,0
6.772,4.205,0
6.773,1.641,0
6.774,-0.19,0
6.775,-0.373,0
6.776,-1.655,0
6.777,-2.387,0
6.778,-0.19,0
6.779,3.472,0
6.78,4.754,0
6.781,5.12,0
6.782,4.022,0
6.783,5.487,0
6.784,1.275,0
6.785,9.698,0
6.786,25.811,0
6.787,50.164,0
6.788,66.278,0
6.789,39.544,0
6.79,0.177,0
6.791,-26.008,0
6.792,-30.768,0
6.793,-34.98,0
6.794,-31.135,0
6.795,-27.656,0
6.796,-18.134,0
6.797,-15.204,0
6.798,-7.331,0
6.799,-4.95,0
6.8,6.036,0
6.801,12.078,0
6.802,17.572,0
6.803,22.515,0
6.804,21.051,0
6.805,17.022,0
6.806,20.501,0
6.807,19.403,0
6.808,20.318,0
6.809,17.572,0
6.81,8.416,0
6.811,-2.753,0
6.812,-13.19,0
6.813,-19.965,0
6.814,-26.008,0
6.815,-29.303,0
6.816,-32.233,0
6.817,-25.824,0
6.818,-15.021,0
6.819,-10.627,0
6.82,-28.388,0
6.821,-40.473,0
6.822,-55.854,0
6.823,-86.066,0
6.824,-107.67,0
6.825,-119.39,0
6.826,-122.87,0
6.827,-132.39,0
6.828,-147.22,0
6.829,-144.66,0
6.83,-137.52,0
6.831,-126.53,0
6.832,-112.43,0
6.833,-84.968,0
6.834,-14.289,0
6.835,44.854,0
6.836,138.06,0
6.837,175.41,0
6.838,186.58,0
6.839,196.83,0
6.84,187.49,0
6.841,128.35,0
6.842,105.28,0
6.843,84.405,0
6.844,78.179,0
6.845,83.856,0
6.846,110.04,0
6.847,124.32,0
6.848,128.53,0
6.849,124.69,0
6.85,114.07,0
6.851,97.955,0
6.852,95.025,0
6.853,87.152,0
6.854,65.179,0
6.855,50.347,0
6.856,31.671,0
6.857,24.53,0
6.858,26.727,0
6.859,24.713,0
6.86,15.557,0
6.861,4.022,0
6.862,2.557,0
6.863,-6.965,0
6.864,-15.387,0
6.865,-18.683,0
6.866,-15.754,0
6.867,-27.839,0
6.868,-29.487,0
6.869,-13.007,0
6.87,-23.993,0
6.871,-46.149,0
6.872,-54.938,0
6.873,-62.812,0
6.874,-60.431,0
6.875,-67.023,0
6.876,-73.066,0
6.877,-74.897,0
6.878,-73.249,0
6.879,-68.854,0
6.88,-70.136,0
6.881,-64.094,0
6.882,-62.995,0
6.883,-58.051,0
6.884,-51.642,0
6.885,-47.98,0
6.886,-47.248,0
6.887,-35.712,0
6.888,-10.81,0
6.889,28.558,0
6.89,33.685,0
6.891,0.36,0
6.892,-29.853,0
6.893,-41.572,0
6.894,-38.093,0
6.895,-34.98,0
6.896,-32.05,0
6.897,-29.487,0
6.898,-22.345,0
6.899,-20.148,0
6.9,-14.106,0
6.901,-12.275,0
6.902,-7.331,0
6.903,-5.866,0
6.904,0.909,0
6.905,2.008,0
6.906,7.684,0
6.907,6.768,0
6.908,7.684,0
6.909,6.951,0
6.91,10.797,0
6.911,10.247,0
6.912,10.797,0
6.913,10.247,0
6.914,7.867,0
6.915,14.825,0
6.916,17.755,0
6.917,15.008,0
6.918,17.388,0
6.919,13.543,0
6.92,18.121,0
6.921,16.29,0
6.922,12.445,0
6.923,11.163,0
6.924,12.445,0
6.925,9.698,0
6.926,10.064,0
6.927,7.501,0
6.928,10.797,0
6.929,6.585,0
6.93,10.43,0
6.931,8.05,0
6.932,9.332,0
6.933,7.318,0
6.934,6.951,0
6.935,5.853,0
6.936,4.754,0
6.937,2.008,0
6.938,7.684,0
6.939,20.135,0
6.94,47.601,0
6.941,59.32,0
6.942,55.841,0
6.943,26.544,0
6.944,-16.852,0
6.945,-22.529,0
6.946,-27.656,0
6.947,-32.416,0
6.948,-36.628,0
6.949,-24.909,0
6.95,-21.43,0
6.951,-24.543,0
6.952,-15.754,0
6.953,-13.19,0
6.954,-10.81,0
6.955,-8.613,0
6.956,-2.57,0
6.957,-0.739,0
6.958,4.205,0
6.959,-0.19,0
6.96,6.585,0
6.961,5.487,0
6.962,6.585,0
6.963,7.501,0
6.964,8.416,0
6.965,7.684,0
6.966,8.416,0
6.967,7.867,0
6.968,8.416,0
6.969,5.67,0
6.97,8.05,0
6.971,5.853,0
6.972,6.219,0
6.973,3.656,0
6.974,6.951,0
6.975,3.106,0
6.976,5.487,0
6.977,5.12,0
6.978,4.022,0
6.979,2.923,0
6.98,0.36,0
6.981,3.656,0
6.982,5.853,0
6.983,3.106,0
6.984,5.67,0
6.985,0.909,0
6.986,-0.922,0
6.987,1.092,0
6.988,-0.556,0
6.989,6.951,0
6.99,21.783,0
6.991,43.939,0
6.992,46.868,0
6.993,44.305,0
6.994,22.332,0
6.995,-4.401,0
6.996,-29.303,0
6.997,-38.825,0
6.998,-41.755,0
6.999,-39.191,0
7,-36.811,0
7.001,-34.614,0
7.002,-28.571,0
7.003,-23.078,0
7.004,-18.134,0
7.005,-13.74,0
7.006,-9.711,0
7.007,-8.613,0
7.008,-5.317,0
7.009,-4.401,0
7.01,2.008,0
7.011,4.388,0
7.012,6.585,0
7.013,8.416,0
7.014,10.247,0
7.015,12.994,0
7.016,9.698,0
7.017,5.487,0
7.018,4.937,0
7.019,3.656,0
7.02,5.853,0
7.021,3.106,0
7.022,4.937,0
7.023,5.303,0
7.024,6.036,0
7.025,1.824,0
7.026,3.656,0
7.027,0.909,0
7.028,4.205,0
7.029,4.571,0
7.03,6.585,0
7.031,7.684,0
7.032,2.191,0
7.033,1.458,0
7.034,4.754,0
7.035,2.923,0
7.036,0.177,0
7.037,-0.19,0
7.038,-1.105,0
7.039,2.008,0
7.04,6.585,0
7.041,16.107,0
7.042,36.615,0
7.043,57.305,0
7.044,17.022,0
7.045,-11.725,0
7.046,-27.289,0
7.047,-22.529,0
7.048,-35.346,0
7.049,-31.501,0
7.05,-28.022,0
7.051,-24.909,0
7.052,-21.979,0
7.053,-19.416,0
7.054,-17.035,0
7.055,-10.444,0
7.056,-8.429,0
7.057,-2.936,0
7.058,-1.288,0
7.059,0.177,0
7.06,1.458,0
7.061,4.937,0
7.062,6.036,0
7.063,6.951,0
7.064,7.867,0
7.065,8.599,0
7.066,9.332,0
7.067,6.036,0
7.068,2.923,0
7.069,2.374,0
7.07,1.092,0
7.071,1.458,0
7.072,4.205,0
7.073,1.641,0
7.074,5.67,0
7.075,3.289,0
7.076,2.923,0
7.077,1.824,0
7.078,2.191,0
7.079,3.289,0
7.08,7.867,0
7.081,8.416,0
7.082,5.303,0
7.083,5.853,0
7.084,3.472,0
7.085,2.191,0
7.086,3.289,0
7.087,2.191,0
7.088,3.289,0
7.089,1.824,0
7.09,2.008,0
7.091,6.219,0
7.092,15.74,0
7.093,36.248,0
7.094,56.939,0
7.095,27.459,0
7.096,-8.063,0
7.097,-22.345,0
7.098,-35.163,0
7.099,-31.318,0
7.1,-27.839,0
7.101,-30.951,0
7.102,-28.022,0
7.103,-20.148,0
7.104,-17.768,0
7.105,-11.176,0
7.106,-13.19,0
7.107,-7.697,0
7.108,-2.753,0
7.109,-4.218,0
7.11,-5.5,0
7.111,-2.021,0
7.112,5.853,0
7.113,2.923,0
7.114,15.008,0
7.115,39.91,0
7.116,22.149,0
7.117,6.036,0
7.118,-8.796,0
7.119,-6.232,0
7.12,-8.613,0
7.121,-6.415,0
7.122,-8.429,0
7.123,-6.598,0
7.124,-4.95,0
7.125,-6.415,0
7.126,0.36,0
7.127,-3.119,0
7.128,2.557,0
7.129,5.487,0
7.13,6.402,0
7.131,2.374,0
7.132,6.219,0
7.133,2.923,0
7.134,6.036,0
7.135,6.585,0
7.136,6.951,0
7.137,5.67,0
7.138,2.923,0
7.139,2.557,0
7.14,4.754,0
7.141,2.923,0
7.142,7.501,0
7.143,17.755,0
7.144,40.277,0
7.145,62.799,0
7.146,54.01,0
7.147,19.036,0
7.148,-14.289,0
7.149,-35.895,0
7.15,-39.74,0
7.151,-36.261,0
7.152,-33.149,0
7.153,-30.219,0
7.154,-27.656,0
7.155,-20.514,0
7.156,-18.317,0
7.157,-16.303,0
7.158,-10.81,0
7.159,-9.162,0
7.16,-4.767,0
7.161,-3.486,0
7.162,-0.007,0
7.163,5.67,0
7.164,6.585,0
7.165,9.332,0
7.166,8.599,0
7.167,9.332,0
7.168,4.754,0
7.169,4.205,0
7.17,6.951,0
7.171,9.332,0
7.172,8.966,0
7.173,5.12,0
7.174,6.402,0
7.175,7.684,0
7.176,4.937,0
7.177,0.726,0
7.178,2.374,0
7.179,2.008,0
7.18,4.205,0
7.181,2.191,0
7.182,1.092,0
7.183,1.458,0
7.184,-0.556,0
7.185,0.177,0
7.186,-0.556,0
7.187,0.543,0
7.188,2.008,0
7.189,1.824,0
7.19,2.008,0
7.191,2.557,0
7.192,0.543,0
7.193,6.036,0
7.194,17.572,0
7.195,42.474,0
7.196,60.235,0
7.197,30.938,0
7.198,-4.584,0
7.199,-28.388,0
7.2,-24.177,0
7.201,-35.895,0
7.202,-32.416,0
7.203,-29.303,0
7.204,-26.374,0
7.205,-28.937,0
7.206,-21.796,0
7.207,-15.204,0
7.208,-13.19,0
7.209,-7.697,0
7.21,-6.049,0
7.211,-4.584,0
7.212,2.191,0
7.213,1.092,0
7.214,4.388,0
7.215,5.303,0
7.216,6.219,0
7.217,6.951,0
7.218,7.684,0
7.219,4.388,0
7.22,6.219,0
7.221,6.768,0
7.222,6.402,0
7.223,1.275,0
7.224,3.106,0
7.225,-1.288,0
7.226,-1.838,0
7.227,0.543,0
7.228,6.585,0
7.229,4.205,0
7.23,4.937,0
7.231,6.768,0
7.232,4.937,0
7.233,3.289,0
7.234,2.923,0
7.235,2.557,0
7.236,0.543,0
7.237,-0.556,0
7.238,2.74,0
7.239,-0.007,0
7.24,2.557,0
7.241,1.458,0
7.242,-0.373,0
7.243,1.641,0
7.244,5.853,0
7.245,15.374,0
7.246,35.882,0
7.247,62.615,0
7.248,59.136,0
7.249,16.839,0
7.25,-11.908,0
7.251,-27.472,0
7.252,-41.755,0
7.253,-37.543,0
7.254,-41.388,0
7.255,-37.909,0
7.256,-28.388,0
7.257,-25.458,0
7.258,-22.895,0
7.259,-20.514,0
7.26,-13.923,0
7.261,-11.908,0
7.262,-2.753,0
7.263,-1.105,0
7.264,3.289,0
7.265,4.571,0
7.266,5.67,0
7.267,6.768,0
7.268,9.698,0
7.269,10.614,0
7.27,8.233,0
7.271,8.966,0
7.272,5.67,0
7.273,7.501,0
7.274,2.374,0
7.275,2.923,0
7.276,3.472,0
7.277,4.022,0
7.278,4.388,0
7.279,6.585,0
7.28,5.487,0
7.281,7.318,0
7.282,6.951,0
7.283,7.135,0
7.284,6.402,0
7.285,4.022,0
7.286,2.557,0
7.287,1.824,0
7.288,5.853,0
7.289,2.008,0
7.29,3.289,0
7.291,0.177,0
7.292,-0.922,0
7.293,-2.57,0
7.294,-1.471,0
7.295,3.289,0
7.296,12.811,0
7.297,33.319,0
7.298,60.052,0
7.299,27.825,0
7.3,-11.176,0
7.301,-26.74,0
7.302,-31.501,0
7.303,-35.712,0
7.304,-31.867,0
7.305,-21.247,0
7.306,-24.36,0
7.307,-15.571,0
7.308,-13.007,0
7.309,-10.627,0
7.31,-8.429,0
7.311,-6.415,0
7.312,-0.922,0
7.313,0.726,0
7.314,-0.739,0
7.315,0.543,0
7.316,4.022,0
7.317,0.726,0
7.318,-4.218,0
7.319,4.205,0
7.32,5.303,0
7.321,2.374,0
7.322,1.458,0
7.323,0.726,0
7.324,2.923,0
7.325,3.472,0
7.326,1.641,0
7.327,3.289,0
7.328,3.656,0
7.329,4.937,0
7.33,6.036,0
7.331,7.135,0
7.332,5.303,0
7.333,7.318,0
7.334,7.501,0
7.335,5.67,0
7.336,4.571,0
7.337,6.036,0
7.338,3.839,0
7.339,2.008,0
7.34,2.74,0
7.341,-0.739,0
7.342,-4.035,0
7.343,-2.753,0
7.344,-1.105,0
7.345,1.641,0
7.346,7.318,0
7.347,19.769,0
7.348,47.235,0
7.349,58.953,0
7.35,62.432,0
7.351,33.135,0
7.352,-10.26,0
7.353,-39.008,0
7.354,-44.135,0
7.355,-48.896,0
7.356,-44.684,0
7.357,-40.839,0
7.358,-37.36,0
7.359,-27.839,0
7.36,-7.148,0
7.361,11.529,0
7.362,-0.556,0
7.363,-11.542,0
7.364,-13.556,0
7.365,-11.725,0
7.366,-10.077,0
7.367,-11.542,0
7.368,-7.514,0
7.369,-4.035,0
7.37,-2.936,0
7.371,-2.021,0
7.372,4.388,0
7.373,10.064,0
7.374,10.797,0
7.375,7.501,0
7.376,9.332,0
7.377,9.881,0
7.378,9.515,0
7.379,8.233,0
7.38,7.135,0
7.381,8.233,0
7.382,6.402,0
7.383,6.219,0
7.384,2.557,0
7.385,5.853,0
7.386,7.135,0
7.387,6.768,0
7.388,3.289,0
7.389,4.571,0
7.39,2.557,0
7.391,2.923,0
7.392,1.824,0
7.393,3.839,0
7.394,3.106,0
7.395,5.487,0
7.396,6.219,0
7.397,9.698,0
7.398,17.205,0
7.399,34.234,0
7.4,70.672,0
7.401,34.051,0
7.402,10.247,0
7.403,-19.965,0
7.404,-39.557,0
7.405,-43.036,0
7.406,-39.924,0
7.407,-31.135,0
7.408,-28.571,0
7.409,-30.951,0
7.41,-19.965,0
7.411,-17.951,0
7.412,-16.12,0
7.413,-11.176,0
7.414,-6.781,0
7.415,-2.753,0
7.416,-1.655,0
7.417,-0.556,0
7.418,0.36,0
7.419,3.106,0
7.42,5.487,0
7.421,6.219,0
7.422,8.05,0
7.423,7.501,0
7.424,6.951,0
7.425,5.67,0
7.426,7.867,0
7.427,6.768,0
7.428,7.867,0
7.429,7.501,0
7.43,8.966,0
7.431,7.135,0
7.432,6.402,0
7.433,6.219,0
7.434,2.923,0
7.435,4.205,0
7.436,6.951,0
7.437,3.472,0
7.438,1.275,0
7.439,-2.57,0
7.44,-1.288,0
7.441,-3.486,0
7.442,-6.232,0
7.443,-3.669,0
7.444,-1.838,0
7.445,-1.105,0
7.446,4.022,0
7.447,5.303,0
7.448,9.332,0
7.449,17.755,0
7.45,36.248,0
7.451,65.728,0
7.452,54.01,0
7.453,14.642,0
7.454,-21.979,0
7.455,-36.261,0
7.456,-40.473,0
7.457,-36.628,0
7.458,-40.107,0
7.459,-36.994,0
7.46,-28.205,0
7.461,-25.641,0
7.462,-23.261,0
7.463,-21.064,0
7.464,-19.05,0
7.465,-9.894,0
7.466,-11.542,0
7.467,-4.035,0
7.468,-0.007,0
7.469,6.036,0
7.47,4.937,0
7.471,11.895,0
7.472,10.98,0
7.473,10.247,0
7.474,10.98,0
7.475,9.149,0
7.476,6.036,0
7.477,6.585,0
7.478,8.966,0
7.479,10.247,0
7.48,10.614,0
7.481,9.515,0
7.482,10.614,0
7.483,9.881,0
7.484,10.614,0
7.485,7.684,0
7.486,6.585,0
7.487,4.754,0
7.488,3.289,0
7.489,4.022,0
7.49,4.205,0
7.491,1.641,0
7.492,2.008,0
7.493,1.824,0
7.494,2.557,0
7.495,3.289,0
7.496,0.177,0
7.497,4.754,0
7.498,5.853,0
7.499,11.529,0
7.5,23.98,0
7.501,40.46,0
7.502,42.657,0
7.503,40.643,0
7.504,35.15,0
7.505,36.798,0
7.506,14.276,0
7.507,-21.43,0
7.508,-45.234,0
7.509,-58.051,0
7.51,-61.896,0
7.511,-58.417,0
7.512,-48.896,0
7.513,-40.107,0
7.514,-37.543,0
7.515,-30.402,0
7.516,-19.416,0
7.517,-17.402,0
7.518,-11.908,0
7.519,-3.669,0
7.52,-2.204,0
7.521,-0.922,0
7.522,5.12,0
7.523,6.219,0
7.524,7.135,0
7.525,6.219,0
7.526,10.247,0
7.527,10.98,0
7.528,10.43,0
7.529,10.98,0
7.53,11.529,0
7.531,10.247,0
7.532,10.614,0
7.533,10.98,0
7.534,9.149,0
7.535,8.05,0
7.536,7.318,0
7.537,11.529,0
7.538,7.135,0
7.539,8.782,0
7.54,8.416,0
7.541,5.303,0
7.542,6.402,0
7.543,4.571,0
7.544,7.135,0
7.545,5.67,0
7.546,6.402,0
7.547,2.374,0
7.548,6.951,0
7.549,3.106,0
7.55,5.487,0
7.551,12.445,0
7.552,27.642,0
7.553,47.601,0
7.554,45.037,0
7.555,47.418,0
7.556,45.22,0
7.557,39.178,0
7.558,11.712,0
7.559,-39.557,0
7.56,-46.515,0
7.561,-65.375,0
7.562,-48.163,0
7.563,-53.29,0
7.564,-39.008,0
7.565,-34.797,0
7.566,-30.951,0
7.567,-20.331,0
7.568,-23.444,0
7.569,-14.655,0
7.57,-6.781,0
7.571,-4.401,0
7.572,-2.204,0
7.573,3.839,0
7.574,5.67,0
7.575,7.318,0
7.576,11.712,0
7.577,18.487,0
7.578,21.966,0
7.579,25.262,0
7.58,28.192,0
7.581,32.769,0
7.582,35.15,0
7.583,40.46,0
7.584,34.234,0
7.585,30.206,0
7.586,28.009,0
7.587,20.501,0
7.588,15.557,0
7.589,18.304,0
7.59,7.501,0
7.591,-6.049,0
7.592,-15.204,0
7.593,-23.444,0
7.594,-27.839,0
7.595,-40.107,0
7.596,-38.459,0
7.597,-34.064,0
7.598,-27.289,0
7.599,-23.81,0
7.6,-24.909,0
7.601,-32.782,0
7.602,-47.98,0
7.603,-63.361,0
7.604,-73.432,0
7.605,-86.249,0
7.606,-94.489,0
7.607,-98.884,0
7.608,-119.39,0
7.609,-134.22,0
7.61,-110.05,0
7.611,-93.94,0
7.612,-73.249,0
7.613,-32.966,0
7.614,-4.218,0
7.615,53.46,0
7.616,91.912,0
7.617,98.87,0
7.618,105.1,0
7.619,99.42,0
7.62,83.856,0
7.621,60.052,0
7.622,55.841,0
7.623,51.995,0
7.624,48.516,0
7.625,58.038,0
7.626,72.869,0
7.627,97.039,0
7.628,113.15,0
7.629,121.94,0
7.63,124.5,0
7.631,122.13,0
7.632,115.53,0
7.633,113.52,0
7.634,104.36,0
7.635,89.349,0
7.636,67.193,0
7.637,52.362,0
7.638,44.488,0
7.639,42.108,0
7.64,39.91,0
7.641,37.896,0
7.642,28.741,0
7.643,10.43,0
7.644,-1.655,0
7.645,-12.641,0
7.646,-22.712,0
7.647,-20.881,0
7.648,-19.233,0
7.649,-29.67,0
7.65,-40.656,0
7.651,-41.938,0
7.652,-23.444,0
7.653,-15.571,0
7.654,-8.429,0
7.655,6.951,0
7.656,12.994,0
7.657,-14.472,0
7.658,-65.741,0
7.659,-86.615,0
7.66,-105.47,0
7.661,-99.799,0
7.662,-104.93,0
7.663,-100.17,0
7.664,-87.348,0
7.665,-83.503,0
7.666,-72.883,0
7.667,-69.77,0
7.668,-60.981,0
7.669,-53.107,0
7.67,-41.022,0
7.671,-34.43,0
7.672,-24.36,0
7.673,-22.529,0
7.674,-14.289,0
7.675,-12.824,0
7.676,-8.796,0
7.677,-2.753,0
7.678,0.543,0
7.679,3.472,0
7.68,4.388,0
7.681,8.416,0
7.682,6.219,0
7.683,8.05,0
7.684,8.599,0
7.685,10.247,0
7.686,10.614,0
7.687,13.726,0
7.688,13.36,0
7.689,11.529,0
7.69,8.966,0
7.691,7.501,0
7.692,9.332,0
7.693,12.261,0
7.694,8.05,0
7.695,8.599,0
7.696,9.881,0
7.697,10.247,0
7.698,11.346,0
7.699,13.177,0
7.7,9.881,0
7.701,6.951,0
7.702,8.05,0
7.703,12.994,0
7.704,23.248,0
7.705,45.77,0
7.706,55.291,0
7.707,52.362,0
7.708,54.925,0
7.709,47.784,0
7.71,41.192,0
7.711,10.98,0
7.712,-28.022,0
7.713,-43.586,0
7.714,-57.868,0
7.715,-53.656,0
7.716,-49.811,0
7.717,-39.191,0
7.718,-36.078,0
7.719,-21.247,0
7.72,-13.373,0
7.721,-10.993,0
7.722,-4.401,0
7.723,-6.415,0
7.724,-4.584,0
7.725,0.36,0
7.726,-1.105,0
7.727,5.67,0
7.728,11.712,0
7.729,12.811,0
7.73,15.74,0
7.731,18.487,0
7.732,20.867,0
7.733,15.557,0
7.734,16.107,0
7.735,14.276,0
7.736,15.924,0
7.737,13.543,0
7.738,9.332,0
7.739,6.585,0
7.74,11.163,0
7.741,6.768,0
7.742,9.515,0
7.743,9.881,0
7.744,10.247,0
7.745,9.149,0
7.746,4.205,0
7.747,7.501,0
7.748,4.388,0
7.749,6.036,0
7.75,1.458,0
7.751,0.909,0
7.752,4.754,0
7.753,0.909,0
7.754,8.416,0
7.755,25.445,0
7.756,47.418,0
7.757,62.249,0
7.758,54.376,0
7.759,17.938,0
7.76,-18.683,0
7.761,-32.966,0
7.762,-37.177,0
7.763,-41.022,0
7.764,-30.402,0
7.765,-33.515,0
7.766,-30.585,0
7.767,-28.022,0
7.768,-25.641,0
7.769,-19.05,0
7.77,-17.035,0
7.771,-11.542,0
7.772,-3.302,0
7.773,1.092,0
7.774,-2.936,0
7.775,0.543,0
7.776,3.839,0
7.777,4.754,0
7.778,7.501,0
7.779,8.233,0
7.78,8.966,0
7.781,8.416,0
7.782,8.966,0
7.783,3.839,0
7.784,5.67,0
7.785,8.782,0
7.786,10.43,0
7.787,10.797,0
7.788,4.754,0
7.789,4.022,0
7.79,4.754,0
7.791,5.303,0
7.792,0.909,0
7.793,-0.739,0
7.794,-4.035,0
7.795,0.177,0
7.796,0.726,0
7.797,1.092,0
7.798,0.726,0
7.799,1.092,0
7.8,-1.471,0
7.801,0.36,0
7.802,-1.655,0
7.803,-4.767,0
7.804,-2.936,0
7.805,1.092,0
7.806,9.515,0
7.807,28.009,0
7.808,62.982,0
7.809,39.178,0
7.81,0.177,0
7.811,-15.387,0
7.812,-29.67,0
7.813,-25.458,0
7.814,-29.303,0
7.815,-25.824,0
7.816,-22.712,0
7.817,-19.782,0
7.818,-17.219,0
7.819,-10.077,0
7.82,-7.88,0
7.821,-9.894,0
7.822,-8.063,0
7.823,-3.119,0
7.824,-7.514,0
7.825,-6.232,0
7.826,-0.19,0
7.827,0.909,0
7.828,1.824,0
7.829,0.909,0
7.83,3.289,0
7.831,5.487,0
7.832,4.937,0
7.833,4.388,0
7.834,0.543,0
7.835,0.909,0
7.836,2.191,0
7.837,3.289,0
7.838,0.726,0
7.839,5.487,0
7.84,6.036,0
7.841,6.585,0
7.842,1.092,0
7.843,3.289,0
7.844,-0.007,0
7.845,3.106,0
7.846,1.458,0
7.847,6.951,0
7.848,6.219,0
7.849,6.768,0
7.85,4.937,0
7.851,13.36,0
7.852,29.473,0
7.853,31.671,0
7.854,6.219,0
7.855,0.177,0
7.856,-8.979,0
7.857,-10.627,0
7.858,-3.119,0
7.859,17.388,0
7.86,38.079,0
7.861,62.249,0
7.862,32.952,0
7.863,-2.57,0
7.864,-26.374,0
7.865,-39.191,0
7.866,-35.346,0
7.867,-38.825,0
7.868,-35.712,0
7.869,-32.782,0
7.87,-24.909,0
7.871,-22.529,0
7.872,-15.937,0
7.873,-9.894,0
7.874,-4.401,0
7.875,-2.753,0
7.876,1.641,0
7.877,2.923,0
7.878,4.022,0
7.879,2.923,0
7.88,5.853,0
7.881,4.937,0
7.882,5.67,0
7.883,3.472,0
7.884,9.698,0
7.885,5.67,0
7.886,6.402,0
7.887,5.853,0
7.888,6.402,0
7.889,5.853,0
7.89,7.135,0
7.891,4.937,0
7.892,4.571,0
7.893,8.782,0
7.894,11.529,0
7.895,12.811,0
7.896,11.529,0
7.897,9.515,0
7.898,10.614,0
7.899,5.12,0
7.9,-0.19,0
7.901,-3.486,0
7.902,0.909,0
7.903,1.458,0
7.904,-0.922,0
7.905,2.557,0
7.906,0.36,0
7.907,6.585,0
7.908,20.501,0
7.909,38.629,0
7.91,45.77,0
7.911,56.756,0
7.912,42.657,0
7.913,15.191,0
7.914,-28.205,0
7.915,-33.881,0
7.916,-39.008,0
7.917,-43.769,0
7.918,-39.557,0
7.919,-35.712,0
7.92,-32.233,0
7.921,-22.712,0
7.922,-19.782,0
7.923,-17.219,0
7.924,-10.077,0
7.925,-7.88,0
7.926,-5.866,0
7.927,-4.035,0
7.928,4.205,0
7.929,2.74,0
7.93,6.768,0
7.931,7.867,0
7.932,6.768,0
7.933,9.698,0
7.934,6.951,0
7.935,7.684,0
7.936,9.881,0
7.937,6.585,0
7.938,6.036,0
7.939,5.487,0
7.94,10.98,0
7.941,4.022,0
7.942,4.937,0
7.943,2.557,0
7.944,1.824,0
7.945,1.275,0
7.946,8.233,0
7.947,7.318,0
7.948,6.585,0
7.949,5.853,0
7.95,4.022,0
7.951,2.191,0
7.952,-1.655,0
7.953,2.923,0
7.954,3.472,0
7.955,4.022,0
7.956,4.022,0
7.957,-1.471,0
7.958,10.064,0
7.959,18.304,0
7.96,40.826,0
7.961,43.939,0
7.962,41.009,0
7.963,43.573,0
7.964,45.953,0
7.965,17.205,0
7.966,-26.191,0
7.967,-54.938,0
7.968,-60.065,0
7.969,-55.304,0
7.97,-51.093,0
7.971,-54.938,0
7.972,-37.177,0
7.973,-34.064,0
7.974,-25.275,0
7.975,-17.402,0
7.976,-15.021,0
7.977,-8.429,0
7.978,-2.387,0
7.979,-0.556,0
7.98,7.684,0
7.981,3.289,0
7.982,7.318,0
7.983,6.219,0
7.984,2.923,0
7.985,3.839,0
7.986,4.754,0
7.987,5.487,0
7.988,9.332,0
7.989,9.881,0
7.99,11.712,0
7.991,8.966,0
7.992,8.599,0
7.993,9.881,0
7.994,7.867,0
7.995,11.346,0
7.996,11.712,0
7.997,11.346,0
7.998,10.247,0
7.999,12.078,0
8,8.782,0
8.001,5.67,0
8.002,1.092,0
8.003,2.923,0
8.004,2.374,0
8.005,1.092,0
8.006,-3.119,0
8.007,0.36,0
8.008,-2.387,0
8.009,-0.007,0
8.01,6.951,0
8.011,22.149,0
8.012,46.502,0
8.013,43.389,0
8.014,40.46,0
8.015,37.896,0
8.016,30.755,0
8.017,-2.387,0
8.018,-35.712,0
8.019,-57.319,0
8.02,-61.164,0
8.021,-57.685,0
8.022,-48.163,0
8.023,-45.234,0
8.024,-37.36,0
8.025,-30.219,0
8.026,-23.627,0
8.027,-17.585,0
8.028,-8.429,0
8.029,-3.486,0
8.03,0.909,0
8.031,2.191,0
8.032,5.67,0
8.033,-0.007,0
8.034,4.937,0
8.035,9.515,0
8.036,11.895,0
8.037,12.628,0
8.038,14.459,0
8.039,12.628,0
8.04,10.98,0
8.041,8.599,0
8.042,8.966,0
8.043,8.599,0
8.044,8.966,0
8.045,10.064,0
8.046,12.078,0
8.047,12.811,0
8.048,11.529,0
8.049,10.064,0
8.05,9.881,0
8.051,6.951,0
8.052,3.106,0
8.053,2.74,0
8.054,1.458,0
8.055,5.303,0
8.056,6.585,0
8.057,4.388,0
8.058,4.022,0
8.059,5.12,0
8.06,9.332,0
8.061,17.755,0
8.062,36.248,0
8.063,65.728,0
8.064,54.01,0
8.065,7.501,0
8.066,-24.177,0
8.067,-41.388,0
8.068,-46.515,0
8.069,-41.755,0
8.07,-37.543,0
8.071,-33.698,0
8.072,-23.078,0
8.073,-26.191,0
8.074,-23.261,0
8.075,-20.698,0
8.076,-13.556,0
8.077,-6.965,0
8.078,-0.922,0
8.079,-2.753,0
8.08,5.487,0
8.081,6.951,0
8.082,5.67,0
8.083,2.191,0
8.084,3.289,0
8.085,4.205,0
8.086,3.289,0
8.087,7.318,0
8.088,6.585,0
8.089,6.036,0
8.09,6.585,0
8.091,7.135,0
8.092,6.768,0
8.093,7.135,0
8.094,8.233,0
8.095,3.289,0
8.096,3.839,0
8.097,13.36,0
8.098,33.868,0
8.099,25.079,0
8.1,6.402,0
8.101,-5.683,0
8.102,-7.88,0
8.103,-9.894,0
8.104,-8.063,0
8.105,-9.711,0
8.106,-11.176,0
8.107,-9.894,0
8.108,-10.993,0
8.109,-2.57,0
8.11,-1.471,0
8.111,13.726,0
8.112,29.107,0
8.113,47.235,0
8.114,49.615,0
8.115,51.812,0
8.116,29.656,0
8.117,-8.979,0
8.118,-24.543,0
8.119,-38.825,0
8.12,-43.036,0
8.121,-39.191,0
8.122,-35.712,0
8.123,-32.599,0
8.124,-29.67,0
8.125,-27.106,0
8.126,-19.965,0
8.127,-13.373,0
8.128,-7.331,0
8.129,-5.5,0
8.13,-0.556,0
8.131,0.909,0
8.132,4.937,0
8.133,1.458,0
8.134,7.135,0
8.135,4.205,0
8.136,6.951,0
8.137,7.684,0
8.138,9.881,0
8.139,11.712,0
8.14,8.599,0
8.141,5.853,0
8.142,9.149,0
8.143,4.022,0
8.144,8.599,0
8.145,8.05,0
8.146,8.599,0
8.147,8.233,0
8.148,8.599,0
8.149,3.106,0
8.15,3.839,0
8.151,4.388,0
8.152,4.937,0
8.153,4.388,0
8.154,3.106,0
8.155,4.388,0
8.156,0.543,0
8.157,2.923,0
8.158,1.641,0
8.159,0.543,0
8.16,0.36,0
8.161,2.191,0
8.162,7.684,0
8.163,19.219,0
8.164,44.122,0
8.165,61.883,0
8.166,19.586,0
8.167,-9.162,0
8.168,-24.726,0
8.169,-29.487,0
8.17,-33.698,0
8.171,-29.853,0
8.172,-33.332,0
8.173,-30.219,0
8.174,-21.43,0
8.175,-13.556,0
8.176,-11.176,0
8.177,-13.373,0
8.178,-7.331,0
8.179,-1.838,0
8.18,3.106,0
8.181,1.641,0
8.182,0.36,0
8.183,-0.739,0
8.184,2.557,0
8.185,3.472,0
8.186,2.557,0
8.187,1.824,0
8.188,5.67,0
8.189,5.12,0
8.19,9.515,0
8.191,4.388,0
8.192,2.557,0
8.193,6.951,0
8.194,7.501,0
8.195,6.219,0
8.196,6.585,0
8.197,3.839,0
8.198,6.402,0
8.199,5.303,0
8.2,2.557,0
8.201,-0.007,0
8.202,2.557,0
8.203,-0.19,0
8.204,-2.021,0
8.205,-2.387,0
8.206,-4.401,0
8.207,-2.57,0
8.208,0.909,0
8.209,2.191,0
