0,5.608,0
0.001,1.031,0
0.002,11.284,0
0.003,33.806,0
0.004,49.92,0
0.005,52.849,0
0.006,55.413,0
0.007,28.679,0
0.008,-17.829,0
0.009,-36.689,0
0.01,-53.901,0
0.011,-48.774,0
0.012,-44.013,0
0.013,-39.802,0
0.014,-35.957,0
0.015,-25.337,0
0.016,-22.224,0
0.017,-13.435,0
0.018,-10.871,0
0.019,-3.73,0
0.02,-5.927,0
0.021,0.115,0
0.022,-1.716,0
0.023,3.228,0
0.024,1.763,0
0.025,3.045,0
0.026,6.524,0
0.027,9.82,0
0.028,10.735,0
0.029,15.313,0
0.03,12.932,0
0.031,10.735,0
0.032,11.284,0
0.033,11.834,0
0.034,6.707,0
0.035,4.876,0
0.036,7.989,0
0.037,4.143,0
0.038,3.777,0
0.039,3.411,0
0.04,3.777,0
0.041,4.143,0
0.042,2.312,0
0.043,4.326,0
0.044,8.538,0
0.045,18.059,0
0.046,24.834,0
0.047,6.341,0
0.048,-7.026,0
0.049,-9.406,0
0.05,-15.998,0
0.051,-14.9,0
0.052,-12.885,0
0.053,-3.73,0
0.054,21.172,0
0.055,53.399,0
0.056,66.216,0
0.057,30.694,0
0.058,-12.336,0
0.059,-29.548,0
0.06,-45.112,0
0.061,-40.351,0
0.062,-36.14,0
0.063,-32.295,0
0.064,-21.675,0
0.065,-18.562,0
0.066,-9.773,0
0.067,-7.209,0
0.068,-4.829,0
0.069,-2.632,0
0.07,-0.617,0
0.071,-2.448,0
0.072,-0.801,0
0.073,3.594,0
0.074,4.876,0
0.075,5.974,0
0.076,7.073,0
0.077,7.989,0
0.078,10.735,0
0.079,11.468,0
0.08,13.665,0
0.081,15.496,0
0.082,11.101,0
0.083,10.552,0
0.084,7.256,0
0.085,5.974,0
0.086,4.876,0
0.087,7.439,0
0.088,3.411,0
0.089,1.031,0
0.09,5.242,0
0.091,1.397,0
0.092,-0.984,0
0.093,0.298,0
0.094,-0.801,0
0.095,4.143,0
0.096,2.312,0
0.097,4.143,0
0.098,0.298,0
0.099,-0.068,0
0.1,-1.35,0
0.101,-3.364,0
0.102,0.481,0
0.103,1.58,0
0.104,7.073,0
0.105,15.496,0
0.106,32.525,0
0.107,68.963,0
0.108,32.342,0
0.109,-10.688,0
0.11,-39.436,0
0.111,-34.309,0
0.112,-39.07,0
0.113,-34.858,0
0.114,-31.013,0
0.115,-27.534,0
0.116,-24.421,0
0.117,-21.491,0
0.118,-18.928,0
0.119,-11.787,0
0.12,-5.195,0
0.121,-7.209,0
0.122,-1.716,0
0.123,3.228,0
0.124,1.763,0
0.125,5.791,0
0.126,6.89,0
0.127,7.989,0
0.128,8.904,0
0.129,4.326,0
0.13,6.707,0
0.131,7.439,0
0.132,6.89,0
0.133,8.721,0
0.134,5.974,0
0.135,3.594,0
0.136,4.876,0
0.137,5.242,0
0.138,6.341,0
0.139,0.847,0
0.14,3.045,0
0.141,-0.251,0
0.142,4.143,0
0.143,3.594,0
0.144,5.974,0
0.145,2.862,0
0.146,6.707,0
0.147,5.425,0
0.148,2.312,0
0.149,2.678,0
0.15,-0.801,0
0.151,-3.913,0
0.152,-1.167,0
0.153,1.946,0
0.154,0.847,0
0.155,6.341,0
0.156,17.876,0
0.157,42.779,0
0.158,67.681,0
0.159,31.975,0
0.16,-11.054,0
0.161,-28.266,0
0.162,-43.83,0
0.163,-39.07,0
0.164,-34.858,0
0.165,-31.013,0
0.166,-27.534,0
0.167,-24.421,0
0.168,-21.491,0
0.169,-18.928,0
0.17,-11.787,0
0.171,-9.59,0
0.172,-7.575,0
0.173,-2.082,0
0.174,2.862,0
0.175,1.397,0
0.176,5.425,0
0.177,8.904,0
0.178,7.805,0
0.179,10.735,0
0.18,11.651,0
0.181,10.918,0
0.182,10.186,0
0.183,8.355,0
0.184,5.242,0
0.185,3.594,0
0.186,-1.899,0
0.187,0.298,0
0.188,-1.533,0
0.189,0.298,0
0.19,0.847,0
0.191,2.129,0
0.192,0.847,0
0.193,5.425,0
0.194,7.256,0
0.195,6.707,0
0.196,7.989,0
0.197,11.101,0
0.198,6.524,0
0.199,5.974,0
0.2,2.129,0
0.201,1.763,0
0.202,1.397,0
0.203,1.031,0
0.204,-0.251,0
0.205,2.312,0
0.206,7.805,0
0.207,19.341,0
0.208,44.243,0
0.209,62.005,0
0.21,19.707,0
0.211,-20.576,0
0.212,-25.703,0
0.213,-30.464,0
0.214,-26.252,0
0.215,-30.097,0
0.216,-19.477,0
0.217,-22.59,0
0.218,-19.66,0
0.219,-17.097,0
0.22,-9.956,0
0.221,-3.364,0
0.222,-5.378,0
0.223,-3.547,0
0.224,-1.899,0
0.225,-3.364,0
0.226,0.664,0
0.227,1.763,0
0.228,0.664,0
0.229,1.58,0
0.23,4.326,0
0.231,6.707,0
0.232,8.904,0
0.233,8.355,0
0.234,1.397,0
0.235,2.312,0
0.236,1.58,0
0.237,0.847,0
0.238,1.397,0
0.239,4.51,0
0.24,6.157,0
0.241,5.791,0
0.242,1.58,0
0.243,-2.265,0
0.244,0.115,0
0.245,-0.251,0
0.246,0.847,0
0.247,2.678,0
0.248,0.847,0
0.249,0.664,0
0.25,2.495,0
0.251,1.214,0
0.252,1.397,0
0.253,-0.984,0
0.254,-0.251,0
0.255,2.678,0
0.256,-0.984,0
0.257,6.524,0
0.258,23.552,0
0.259,50.286,0
0.26,53.765,0
0.261,31.243,0
0.262,4.51,0
0.263,-27.717,0
0.264,-31.928,0
0.265,-35.774,0
0.266,-39.253,0
0.267,-36.14,0
0.268,-33.21,0
0.269,-25.337,0
0.27,-18.196,0
0.271,-15.998,0
0.272,-9.956,0
0.273,-11.787,0
0.274,-6.843,0
0.275,-5.378,0
0.276,-1.35,0
0.277,2.129,0
0.278,3.228,0
0.279,8.172,0
0.28,5.425,0
0.281,11.101,0
0.282,10.369,0
0.283,7.073,0
0.284,1.397,0
0.285,8.355,0
0.286,9.27,0
0.287,10.003,0
0.288,10.735,0
0.289,11.284,0
0.29,20.806,0
0.291,35.821,0
0.292,17.693,0
0.293,0.847,0
0.294,-5.744,0
0.295,-7.759,0
0.296,-9.59,0
0.297,-11.238,0
0.298,-6.843,0
0.299,-5.561,0
0.3,-4.463,0
0.301,-5.561,0
0.302,-2.632,0
0.303,3.777,0
0.304,9.453,0
0.305,14.763,0
0.306,19.524,0
0.307,22.82,0
0.308,31.06,0
0.309,48.089,0
0.31,74.822,0
0.311,71.343,0
0.312,80.865,0
0.313,60.174,0
0.314,19.89,0
0.315,-20.393,0
0.316,-35.957,0
0.317,-59.76,0
0.318,-72.578,0
0.319,-68.733,0
0.32,-65.254,0
0.321,-74.775,0
0.322,-71.845,0
0.323,-63.972,0
0.324,-56.831,0
0.325,-45.844,0
0.326,-43.83,0
0.327,-27.351,0
0.328,-29.548,0
0.329,-43.647,0
0.33,-52.802,0
0.331,-64.338,0
0.332,-80.818,0
0.333,-100.78,0
0.334,-114.14,0
0.335,-111.76,0
0.336,-109.56,0
0.337,-103.52,0
0.338,-109.02,0
0.339,-90.705,0
0.34,-68.733,0
0.341,-24.238,0
0.342,71.16,0
0.343,139.46,0
0.344,176.81,0
0.345,187.98,0
0.346,157.22,0
0.347,147.88,0
0.348,122.61,0
0.349,99.541,0
0.35,78.667,0
0.351,72.442,0
0.352,66.765,0
0.353,82.329,0
0.354,87.09,0
0.355,99.907,0
0.356,103.75,0
0.357,102.29,0
0.358,98.809,0
0.359,101.92,0
0.36,122.61,0
0.361,146.78,0
0.362,143.67,0
0.363,99.175,0
0.364,29.229,0
0.365,1.214,0
0.366,-7.209,0
0.367,-14.9,0
0.368,-7.942,0
0.369,-14.167,0
0.37,-31.379,0
0.371,-36.506,0
0.372,-31.745,0
0.373,-44.563,0
0.374,-48.408,0
0.375,-44.929,0
0.376,-41.816,0
0.377,-44.746,0
0.378,-47.309,0
0.379,-49.69,0
0.38,-47.492,0
0.381,-45.478,0
0.382,-47.309,0
0.383,-48.957,0
0.384,-50.422,0
0.385,-49.14,0
0.386,-52.619,0
0.387,-49.323,0
0.388,-50.239,0
0.389,-49.323,0
0.39,-50.056,0
0.391,-46.211,0
0.392,-45.661,0
0.393,-42.549,0
0.394,-38.703,0
0.395,-35.407,0
0.396,-32.295,0
0.397,-27.717,0
0.398,-23.323,0
0.399,-19.477,0
0.4,-18.196,0
0.401,-15.083,0
0.402,-14.717,0
0.403,-14.35,0
0.404,-8.857,0
0.405,-5.012,0
0.406,-5.561,0
0.407,-3.73,0
0.408,-4.646,0
0.409,2.678,0
0.41,13.848,0
0.411,36.37,0
0.412,52.483,0
0.413,73.174,0
0.414,65.301,0
0.415,28.863,0
0.416,-18.379,0
0.417,-37.239,0
0.418,-42.915,0
0.419,-37.788,0
0.42,-33.027,0
0.421,-28.816,0
0.422,-24.97,0
0.423,-14.35,0
0.424,-11.238,0
0.425,-8.308,0
0.426,-5.744,0
0.427,1.397,0
0.428,3.594,0
0.429,5.608,0
0.43,11.101,0
0.431,9.453,0
0.432,13.848,0
0.433,9.82,0
0.434,10.918,0
0.435,14.214,0
0.436,15.13,0
0.437,16.045,0
0.438,16.778,0
0.439,16.045,0
0.44,12.749,0
0.441,12.2,0
0.442,10.552,0
0.443,10.918,0
0.444,12.2,0
0.445,16.045,0
0.446,17.327,0
0.447,11.284,0
0.448,13.665,0
0.449,12.932,0
0.45,6.707,0
0.451,1.031,0
0.452,1.763,0
0.453,2.312,0
0.454,1.763,0
0.455,1.214,0
0.456,5.791,0
0.457,7.622,0
0.458,0.298,0
0.459,1.946,0
0.46,2.862,0
0.461,14.947,0
0.462,33.257,0
0.463,59.99,0
0.464,70.611,0
0.465,67.498,0
0.466,28.863,0
0.467,-18.379,0
0.468,-37.239,0
0.469,-42.915,0
0.47,-48.042,0
0.471,-43.281,0
0.472,-39.07,0
0.473,-27.351,0
0.474,-23.872,0
0.475,-26.985,0
0.476,-18.196,0
0.477,-15.632,0
0.478,-8.491,0
0.479,-1.899,0
0.48,4.143,0
0.481,5.974,0
0.482,4.326,0
0.483,5.791,0
0.484,7.073,0
0.485,8.172,0
0.486,9.27,0
0.487,6.341,0
0.488,7.256,0
0.489,7.989,0
0.49,7.256,0
0.491,5.425,0
0.492,4.876,0
0.493,7.622,0
0.494,8.904,0
0.495,10.186,0
0.496,9.087,0
0.497,9.453,0
0.498,9.087,0
0.499,13.115,0
0.5,9.27,0
0.501,6.89,0
0.502,6.524,0
0.503,3.777,0
0.504,0.298,0
0.505,6.341,0
0.506,0.664,0
0.507,5.974,0
0.508,-4.28,0
0.509,-8.674,0
0.51,-0.984,0
0.511,-2.265,0
0.512,16.228,0
0.513,18.792,0
0.514,55.23,0
0.515,70.794,0
0.516,37.469,0
0.517,-10.139,0
0.518,-28.999,0
0.519,-34.675,0
0.52,-39.802,0
0.521,-35.041,0
0.522,-30.83,0
0.523,-26.985,0
0.524,-23.506,0
0.525,-20.393,0
0.526,-17.463,0
0.527,-9.59,0
0.528,-7.209,0
0.529,-5.012,0
0.53,-2.998,0
0.531,2.495,0
0.532,4.143,0
0.533,2.678,0
0.534,3.96,0
0.535,7.439,0
0.536,24.468,0
0.537,41.314,0
0.538,12.566,0
0.539,0.847,0
0.54,-9.773,0
0.541,-6.66,0
0.542,-15.449,0
0.543,-7.575,0
0.544,-5.195,0
0.545,-2.998,0
0.546,-5.012,0
0.547,4.143,0
0.548,5.791,0
0.549,4.326,0
0.55,3.045,0
0.551,6.524,0
0.552,3.228,0
0.553,0.298,0
0.554,1.214,0
0.555,0.481,0
0.556,4.326,0
0.557,3.777,0
0.558,4.326,0
0.559,1.58,0
0.56,1.946,0
0.561,3.411,0
0.562,3.777,0
0.563,10.003,0
0.564,23.919,0
0.565,54.131,0
0.566,66.948,0
0.567,23.552,0
0.568,-16.731,0
0.569,-32.295,0
0.57,-37.055,0
0.571,-32.844,0
0.572,-36.689,0
0.573,-26.069,0
0.574,-22.956,0
0.575,-20.027,0
0.576,-12.153,0
0.577,-5.012,0
0.578,-2.815,0
0.579,-4.829,0
0.58,0.664,0
0.581,2.312,0
0.582,6.707,0
0.583,7.989,0
0.584,1.946,0
0.585,-1.35,0
0.586,5.608,0
0.587,4.693,0
0.588,7.073,0
0.589,4.876,0
0.59,8.172,0
0.591,3.777,0
0.592,5.425,0
0.593,4.143,0
0.594,2.862,0
0.595,7.439,0
0.596,6.89,0
0.597,6.341,0
0.598,1.763,0
0.599,6.157,0
0.6,3.411,0
0.601,3.045,0
0.602,0.847,0
0.603,3.594,0
0.604,1.763,0
0.605,1.397,0
0.606,3.411,0
0.607,3.594,0
0.608,4.326,0
0.609,0.847,0
0.61,1.214,0
0.611,3.411,0
0.612,1.214,0
0.613,0.115,0
0.614,5.791,0
0.615,18.242,0
0.616,45.708,0
0.617,57.427,0
0.618,60.906,0
0.619,25.2,0
0.62,-17.829,0
0.621,-46.577,0
0.622,-51.704,0
0.623,-46.943,0
0.624,-42.732,0
0.625,-38.886,0
0.626,-35.407,0
0.627,-32.295,0
0.628,-23.506,0
0.629,-15.632,0
0.63,-3.547,0
0.631,-1.35,0
0.632,-3.364,0
0.633,2.129,0
0.634,0.481,0
0.635,4.876,0
0.636,3.594,0
0.637,7.073,0
0.638,10.369,0
0.639,11.284,0
0.64,12.2,0
0.641,9.82,0
0.642,12.017,0
0.643,8.721,0
0.644,8.172,0
0.645,6.524,0
0.646,11.101,0
0.647,9.27,0
0.648,8.721,0
0.649,10.003,0
0.65,4.876,0
0.651,6.707,0
0.652,3.594,0
0.653,3.045,0
0.654,2.678,0
0.655,2.312,0
0.656,1.946,0
0.657,5.425,0
0.658,1.214,0
0.659,1.763,0
0.66,1.397,0
0.661,2.678,0
0.662,3.045,0
0.663,1.946,0
0.664,6.157,0
0.665,14.58,0
0.666,33.074,0
0.667,51.751,0
0.668,58.892,0
0.669,30.144,0
0.67,-5.378,0
0.671,-29.182,0
0.672,-41.999,0
0.673,-45.844,0
0.674,-42.365,0
0.675,-39.253,0
0.676,-30.464,0
0.677,-27.9,0
0.678,-20.759,0
0.679,-18.562,0
0.68,-12.519,0
0.681,-7.026,0
0.682,-2.082,0
0.683,-3.547,0
0.684,-2.265,0
0.685,3.777,0
0.686,2.678,0
0.687,5.608,0
0.688,6.524,0
0.689,7.256,0
0.69,5.059,0
0.691,5.608,0
0.692,7.439,0
0.693,5.791,0
0.694,8.172,0
0.695,7.805,0
0.696,8.904,0
0.697,5.425,0
0.698,9.636,0
0.699,7.989,0
0.7,2.495,0
0.701,6.341,0
0.702,1.763,0
0.703,1.214,0
0.704,1.763,0
0.705,1.397,0
0.706,1.031,0
0.707,2.129,0
0.708,-2.815,0
0.709,1.763,0
0.71,-0.068,0
0.711,3.777,0
0.712,2.495,0
0.713,2.862,0
0.714,2.678,0
0.715,3.777,0
0.716,9.453,0
0.717,21.905,0
0.718,49.37,0
0.719,61.089,0
0.72,21.721,0
0.721,-14.9,0
0.722,-38.703,0
0.723,-34.492,0
0.724,-38.337,0
0.725,-41.816,0
0.726,-32.295,0
0.727,-29.365,0
0.728,-21.491,0
0.729,-14.35,0
0.73,-12.153,0
0.731,-10.139,0
0.732,-0.984,0
0.733,-2.632,0
0.734,-4.096,0
0.735,-0.068,0
0.736,3.411,0
0.737,4.51,0
0.738,7.439,0
0.739,8.355,0
0.74,7.622,0
0.741,6.89,0
0.742,7.439,0
0.743,6.89,0
0.744,7.439,0
0.745,6.157,0
0.746,6.524,0
0.747,4.51,0
0.748,4.876,0
0.749,8.172,0
0.75,5.425,0
0.751,7.256,0
0.752,4.693,0
0.753,3.96,0
0.754,1.397,0
0.755,3.228,0
0.756,1.214,0
0.757,-0.617,0
0.758,1.214,0
0.759,0.664,0
0.76,-0.801,0
0.761,-1.716,0
0.762,1.031,0
0.763,4.51,0
0.764,2.312,0
0.765,2.678,0
0.766,-0.068,0
0.767,5.608,0
0.768,18.059,0
0.769,45.525,0
0.77,57.244,0
0.771,53.765,0
0.772,44.243,0
0.773,41.314,0
0.774,11.834,0
0.775,-31.562,0
0.776,-60.31,0
0.777,-65.437,0
0.778,-60.676,0
0.779,-56.465,0
0.78,-44.746,0
0.781,-34.126,0
0.782,1.58,0
0.783,6.341,0
0.784,-15.266,0
0.785,-19.111,0
0.786,-22.59,0
0.787,-19.477,0
0.788,-10.688,0
0.789,-8.125,0
0.79,-5.744,0
0.791,-3.547,0
0.792,2.495,0
0.793,4.326,0
0.794,9.27,0
0.795,7.805,0
0.796,11.834,0
0.797,12.932,0
0.798,16.228,0
0.799,13.299,0
0.8,12.383,0
0.801,14.763,0
0.802,16.961,0
0.803,12.383,0
0.804,14.214,0
0.805,13.665,0
0.806,13.299,0
0.807,11.101,0
0.808,8.355,0
0.809,7.256,0
0.81,6.89,0
0.811,10.918,0
0.812,8.172,0
0.813,6.89,0
0.814,6.524,0
0.815,6.157,0
0.816,4.876,0
0.817,8.355,0
0.818,15.313,0
0.819,30.51,0
0.82,50.469,0
0.821,69.146,0
0.822,57.061,0
0.823,23.919,0
0.824,-28.633,0
0.825,-49.507,0
0.826,-43.281,0
0.827,-48.957,0
0.828,-43.83,0
0.829,-39.07,0
0.83,-34.858,0
0.831,-31.013,0
0.832,-20.393,0
0.833,-17.28,0
0.834,-8.491,0
0.835,-5.927,0
0.836,1.214,0
0.837,-0.984,0
0.838,5.059,0
0.839,3.228,0
0.84,8.172,0
0.841,6.707,0
0.842,7.989,0
0.843,9.087,0
0.844,10.186,0
0.845,9.27,0
0.846,8.355,0
0.847,7.622,0
0.848,8.355,0
0.849,5.059,0
0.85,6.89,0
0.851,8.538,0
0.852,10.918,0
0.853,9.636,0
0.854,4.143,0
0.855,4.876,0
0.856,4.326,0
0.857,1.214,0
0.858,1.763,0
0.859,1.397,0
0.86,1.763,0
0.861,2.129,0
0.862,0.298,0
0.863,-0.801,0
0.864,-2.815,0
0.865,0.298,0
0.866,0.664,0
0.867,-0.251,0
0.868,0.115,0
0.869,5.608,0
0.87,17.144,0
0.871,42.046,0
0.872,59.807,0
0.873,69.329,0
0.874,30.694,0
0.875,-16.548,0
0.876,-35.407,0
0.877,-41.084,0
0.878,-46.211,0
0.879,-41.45,0
0.88,-37.239,0
0.881,-33.393,0
0.882,-29.914,0
0.883,-20.393,0
0.884,-11.604,0
0.885,-9.04,0
0.886,-6.66,0
0.887,-4.463,0
0.888,1.58,0
0.889,3.411,0
0.89,8.355,0
0.891,6.89,0
0.892,5.608,0
0.893,9.087,0
0.894,10.186,0
0.895,7.256,0
0.896,8.172,0
0.897,5.791,0
0.898,9.636,0
0.899,7.805,0
0.9,5.974,0
0.901,6.524,0
0.902,9.82,0
0.903,7.622,0
0.904,7.256,0
0.905,5.425,0
0.906,7.256,0
0.907,5.791,0
0.908,3.228,0
0.909,4.326,0
0.91,2.862,0
0.911,1.031,0
0.912,2.862,0
0.913,5.059,0
0.914,1.946,0
0.915,4.693,0
0.916,-0.984,0
0.917,-0.251,0
0.918,-2.448,0
0.919,-0.251,0
0.92,10.003,0
0.921,32.525,0
0.922,68.23,0
0.923,63.469,0
0.924,24.468,0
0.925,-12.153,0
0.926,-26.435,0
0.927,-30.647,0
0.928,-42.365,0
0.929,-38.886,0
0.93,-29.365,0
0.931,-26.435,0
0.932,-18.562,0
0.933,-16.181,0
0.934,-13.984,0
0.935,-11.97,0
0.936,-10.139,0
0.937,-8.491,0
0.938,-4.096,0
0.939,-5.378,0
0.94,-1.899,0
0.941,1.397,0
0.942,6.341,0
0.943,5.425,0
0.944,9.453,0
0.945,8.721,0
0.946,14.947,0
0.947,9.27,0
0.948,7.073,0
0.949,6.524,0
0.95,5.974,0
0.951,5.425,0
0.952,6.707,0
0.953,8.904,0
0.954,6.89,0
0.955,1.946,0
0.956,0.115,0
0.957,-1.716,0
0.958,2.129,0
0.959,-0.251,0
0.96,-0.617,0
0.961,2.129,0
0.962,5.608,0
0.963,7.805,0
0.964,3.96,0
0.965,5.242,0
0.966,0.115,0
0.967,0.664,0
0.968,0.115,0
0.969,4.143,0
0.97,5.791,0
0.971,13.299,0
0.972,23.552,0
0.973,44.06,0
0.974,64.751,0
0.975,35.271,0
0.976,-8.125,0
0.977,-36.872,0
0.978,-41.999,0
0.979,-37.239,0
0.98,-33.027,0
0.981,-29.182,0
0.982,-25.703,0
0.983,-28.816,0
0.984,-20.027,0
0.985,-17.463,0
0.986,-10.322,0
0.987,-8.125,0
0.988,-2.082,0
0.989,-3.913,0
0.99,1.031,0
0.991,2.495,0
0.992,9.27,0
0.993,10.369,0
0.994,9.27,0
0.995,10.186,0
0.996,12.932,0
0.997,12.2,0
0.998,10.003,0
0.999,11.834,0
1,14.947,0
1.001,12.2,0
1.002,8.904,0
1.003,8.538,0
1.004,8.904,0
1.005,7.073,0
1.006,8.172,0
1.007,7.439,0
1.008,3.228,0
1.009,2.678,0
1.01,3.228,0
1.011,3.594,0
1.012,2.312,0
1.013,1.214,0
1.014,2.312,0
1.015,-0.251,0
1.016,-0.068,0
1.017,-1.899,0
1.018,-1.167,0
1.019,0.298,0
1.02,-0.984,0
1.021,2.312,0
1.022,-1.899,0
1.023,3.228,0
1.024,-4.28,0
1.025,-5.195,0
1.026,-6.111,0
1.027,6.341,0
1.028,30.144,0
1.029,20.623,0
1.03,-0.068,0
1.031,2.495,0
1.032,34.173,0
1.033,46.99,0
1.034,43.145,0
1.035,3.777,0
1.036,-32.844,0
1.037,-47.126,0
1.038,-51.338,0
1.039,-55.183,0
1.04,-44.563,0
1.041,-35.041,0
1.042,-26.252,0
1.043,-23.689,0
1.044,-16.548,0
1.045,-9.956,0
1.046,-7.942,0
1.047,-2.448,0
1.048,2.495,0
1.049,1.031,0
1.05,5.059,0
1.051,8.538,0
1.052,9.636,0
1.053,10.552,0
1.054,9.636,0
1.055,8.904,0
1.056,9.636,0
1.057,9.087,0
1.058,10.918,0
1.059,10.369,0
1.06,11.651,0
1.061,10.369,0
1.062,8.355,0
1.063,8.721,0
1.064,9.087,0
1.065,7.622,0
1.066,6.89,0
1.067,2.862,0
1.068,6.707,0
1.069,1.214,0
1.07,6.524,0
1.071,4.143,0
1.072,3.594,0
1.073,13.115,0
1.074,17.144,0
1.075,35.637,0
1.076,70.611,0
1.077,37.285,0
1.078,-10.322,0
1.079,-29.182,0
1.08,-34.858,0
1.081,-39.985,0
1.082,-44.746,0
1.083,-31.928,0
1.084,-28.083,0
1.085,-24.604,0
1.086,-21.491,0
1.087,-12.702,0
1.088,-4.829,0
1.089,-7.209,0
1.09,-0.617,0
1.091,1.397,0
1.092,6.89,0
1.093,11.834,0
1.094,16.228,0
1.095,17.51,0
1.096,23.552,0
1.097,26.848,0
1.098,33.806,0
1.099,34.722,0
1.1,37.102,0
1.101,28.679,0
1.102,27.581,0
1.103,20.623,0
1.104,16.045,0
1.105,15.313,0
1.106,10.003,0
1.107,-0.251,0
1.108,-16.731,0
1.109,-23.323,0
1.11,-21.308,0
1.111,-30.464,0
1.112,-32.112,0
1.113,-30.647,0
1.114,-29.365,0
1.115,-23.323,0
1.116,-24.421,0
1.117,-39.619,0
1.118,-63.972,0
1.119,-80.085,0
1.12,-106.82,0
1.121,-124.58,0
1.122,-133.55,0
1.123,-143.07,0
1.124,-134.28,0
1.125,-126.41,0
1.126,-94.734,0
1.127,-55.732,0
1.128,-60.859,0
1.129,-84.663,0
1.13,-88.874,0
1.131,-29.731,0
1.132,63.469,0
1.133,125.72,0
1.134,159.42,0
1.135,149.16,0
1.136,139.82,0
1.137,114.56,0
1.138,106.86,0
1.139,113.82,0
1.14,94.964,0
1.141,100.64,0
1.142,116.2,0
1.143,140.01,0
1.144,170.22,0
1.145,174.06,0
1.146,163.44,0
1.147,153.92,0
1.148,127.19,0
1.149,116.57,0
1.15,107.05,0
1.151,86.358,0
1.152,62.188,0
1.153,39.666,0
1.154,24.834,0
1.155,16.961,0
1.156,19.341,0
1.157,12.749,0
1.158,-1.35,0
1.159,-14.167,0
1.16,-19.111,0
1.161,-29.548,0
1.162,-36.323,0
1.163,-37.422,0
1.164,-34.126,0
1.165,-49.323,0
1.166,-55.915,0
1.167,-57.929,0
1.168,-56.098,0
1.169,-54.45,0
1.17,-61.958,0
1.171,-65.986,0
1.172,-64.887,0
1.173,-62.507,0
1.174,-65.803,0
1.175,-50.605,0
1.176,-44.013,0
1.177,-21.858,0
1.178,-36.689,0
1.179,-12.519,0
1.18,-2.998,0
1.181,-35.591,0
1.182,-74.592,0
1.183,-90.156,0
1.184,-94.917,0
1.185,-90.705,0
1.186,-86.86,0
1.187,-69.099,0
1.188,-52.986,0
1.189,-44.197,0
1.19,-36.323,0
1.191,-24.238,0
1.192,-22.041,0
1.193,-15.998,0
1.194,-10.505,0
1.195,-2.265,0
1.196,2.129,0
1.197,3.411,0
1.198,9.453,0
1.199,12.749,0
1.2,13.665,0
1.201,14.58,0
1.202,13.848,0
1.203,14.58,0
1.204,16.411,0
1.205,19.524,0
1.206,16.778,0
1.207,14.397,0
1.208,15.679,0
1.209,16.778,0
1.21,19.341,0
1.211,18.242,0
1.212,18.059,0
1.213,13.848,0
1.214,12.017,0
1.215,10.369,0
1.216,4.876,0
1.217,2.678,0
1.218,4.51,0
1.219,3.96,0
1.22,11.284,0
1.221,8.355,0
1.222,9.27,0
1.223,10.003,0
1.224,8.538,0
1.225,12.383,0
1.226,16.961,0
1.227,26.482,0
1.228,46.99,0
1.229,67.681,0
1.23,70.244,0
1.231,38.567,0
1.232,-9.04,0
1.233,-27.9,0
1.234,-33.576,0
1.235,-38.703,0
1.236,-33.943,0
1.237,-29.731,0
1.238,-25.886,0
1.239,-22.407,0
1.24,-12.885,0
1.241,-9.956,0
1.242,-7.392,0
1.243,-0.251,0
1.244,-2.448,0
1.245,-0.434,0
1.246,5.059,0
1.247,10.003,0
1.248,11.468,0
1.249,7.439,0
1.25,6.341,0
1.251,9.636,0
1.252,10.552,0
1.253,11.468,0
1.254,9.087,0
1.255,6.89,0
1.256,8.721,0
1.257,6.89,0
1.258,6.341,0
1.259,3.96,0
1.26,8.172,0
1.261,6.524,0
1.262,7.805,0
1.263,7.439,0
1.264,6.341,0
1.265,6.707,0
1.266,7.805,0
1.267,3.228,0
1.268,5.059,0
1.269,3.228,0
1.27,-0.617,0
1.271,-0.251,0
1.272,2.862,0
1.273,9.087,0
1.274,23.003,0
1.275,-0.251,0
1.276,-10.322,0
1.277,-15.815,0
1.278,-14.167,0
1.279,8.355,0
1.28,44.06,0
1.281,48.821,0
1.282,18.609,0
1.283,-16.914,0
1.284,-31.196,0
1.285,-44.013,0
1.286,-40.168,0
1.287,-36.689,0
1.288,-33.576,0
1.289,-24.787,0
1.29,-22.224,0
1.291,-15.083,0
1.292,-8.491,0
1.293,-2.448,0
1.294,-0.617,0
1.295,7.622,0
1.296,9.087,0
1.297,5.059,0
1.298,6.157,0
1.299,7.256,0
1.3,8.172,0
1.301,7.256,0
1.302,7.989,0
1.303,7.256,0
1.304,6.707,0
1.305,7.256,0
1.306,7.805,0
1.307,7.439,0
1.308,4.326,0
1.309,4.693,0
1.31,3.594,0
1.311,2.495,0
1.312,1.763,0
1.313,5.425,0
1.314,4.143,0
1.315,2.862,0
1.316,4.876,0
1.317,-0.801,0
1.318,4.876,0
1.319,2.678,0
1.32,-0.617,0
1.321,1.214,0
1.322,2.862,0
1.323,1.58,0
1.324,0.298,0
1.325,-4.28,0
1.326,-2.448,0
1.327,-4.28,0
1.328,4.143,0
1.329,22.637,0
1.33,52.117,0
1.331,55.962,0
1.332,23.736,0
1.333,-6.477,0
1.334,-26.069,0
1.335,-36.689,0
1.336,-46.211,0
1.337,-43.281,0
1.338,-35.407,0
1.339,-33.027,0
1.34,-26.435,0
1.341,-16.365,0
1.342,-18.196,0
1.343,-13.252,0
1.344,-8.857,0
1.345,-4.829,0
1.346,1.214,0
1.347,2.312,0
1.348,3.228,0
1.349,5.974,0
1.35,3.594,0
1.351,5.791,0
1.352,5.242,0
1.353,8.355,0
1.354,5.608,0
1.355,3.228,0
1.356,5.425,0
1.357,8.172,0
1.358,4.693,0
1.359,5.974,0
1.36,7.073,0
1.361,9.636,0
1.362,5.608,0
1.363,4.326,0
1.364,3.96,0
1.365,6.707,0
1.366,3.228,0
1.367,4.51,0
1.368,4.876,0
1.369,1.397,0
1.37,5.608,0
1.371,5.059,0
1.372,2.678,0
1.373,3.045,0
1.374,2.678,0
1.375,3.045,0
1.376,2.678,0
1.377,2.678,0
1.378,-0.068,0
1.379,5.608,0
1.38,18.059,0
1.381,45.525,0
1.382,72.991,0
1.383,62.371,0
1.384,13.665,0
1.385,-21.308,0
1.386,-40.168,0
1.387,-45.844,0
1.388,-40.718,0
1.389,-45.478,0
1.39,-32.661,0
1.391,-36.506,0
1.392,-25.886,0
1.393,-16.365,0
1.394,-13.435,0
1.395,-5.561,0
1.396,-7.942,0
1.397,-1.35,0
1.398,0.664,0
1.399,2.495,0
1.4,4.143,0
1.401,5.608,0
1.402,6.89,0
1.403,5.791,0
1.404,6.89,0
1.405,3.96,0
1.406,3.045,0
1.407,3.777,0
1.408,4.51,0
1.409,3.96,0
1.41,9.636,0
1.411,8.904,0
1.412,8.355,0
1.413,8.904,0
1.414,6.157,0
1.415,8.538,0
1.416,5.425,0
1.417,11.651,0
1.418,25.567,0
1.419,55.779,0
1.42,42.962,0
1.421,15.496,0
1.422,-16.731,0
1.423,-29.548,0
1.424,-33.393,0
1.425,-29.914,0
1.426,-26.802,0
1.427,-29.731,0
1.428,-23.689,0
1.429,-21.125,0
1.43,5.608,0
1.431,23.369,0
1.432,52.666,0
1.433,56.511,0
1.434,53.032,0
1.435,17.327,0
1.436,-25.703,0
1.437,-42.915,0
1.438,-48.042,0
1.439,-43.281,0
1.44,-39.07,0
1.441,-35.224,0
1.442,-24.604,0
1.443,-15.083,0
1.444,-12.153,0
1.445,-9.59,0
1.446,-2.448,0
1.447,4.143,0
1.448,6.157,0
1.449,7.989,0
1.45,6.341,0
1.451,7.805,0
1.452,14.58,0
1.453,11.101,0
1.454,10.003,0
1.455,10.918,0
1.456,13.665,0
1.457,14.397,0
1.458,9.087,0
1.459,9.636,0
1.46,6.524,0
1.461,9.27,0
1.462,9.636,0
1.463,12.749,0
1.464,8.904,0
1.465,7.622,0
1.466,7.989,0
1.467,5.974,0
1.468,3.411,0
1.469,-0.617,0
1.47,1.763,0
1.471,2.129,0
1.472,1.763,0
1.473,4.326,0
1.474,-1.167,0
1.475,-0.434,0
1.476,-5.012,0
1.477,-0.617,0
1.478,1.031,0
1.479,4.143,0
1.48,2.862,0
1.481,9.82,0
1.482,25.017,0
1.483,53.765,0
1.484,65.484,0
1.485,54.864,0
1.486,12.566,0
1.487,-27.717,0
1.488,-43.281,0
1.489,-48.042,0
1.49,-43.83,0
1.491,-39.985,0
1.492,-43.464,0
1.493,-33.943,0
1.494,-31.013,0
1.495,-28.449,0
1.496,-21.308,0
1.497,-14.717,0
1.498,-8.674,0
1.499,-3.181,0
1.5,-1.533,0
1.501,-0.068,0
1.502,3.96,0
1.503,10.003,0
1.504,6.707,0
1.505,9.636,0
1.506,10.552,0
1.507,8.172,0
1.508,12.017,0
1.509,12.566,0
1.51,8.172,0
1.511,9.82,0
1.512,9.453,0
1.513,9.087,0
1.514,8.721,0
1.515,8.355,0
1.516,4.326,0
1.517,3.045,0
1.518,10.003,0
1.519,25.2,0
1.52,14.214,0
1.521,-3.913,0
1.522,-15.998,0
1.523,-13.801,0
1.524,-11.787,0
1.525,-13.618,0
1.526,-15.266,0
1.527,-7.759,0
1.528,-3.73,0
1.529,-7.209,0
1.53,-2.448,0
1.531,0.847,0
1.532,5.791,0
1.533,19.707,0
1.534,49.92,0
1.535,71.526,0
1.536,44.06,0
1.537,-2.448,0
1.538,-34.126,0
1.539,-39.802,0
1.54,-44.929,0
1.541,-40.168,0
1.542,-35.957,0
1.543,-24.238,0
1.544,-20.759,0
1.545,-17.646,0
1.546,-20.576,0
1.547,-12.702,0
1.548,-5.561,0
1.549,-3.364,0
1.55,2.678,0
1.551,0.847,0
1.552,5.791,0
1.553,7.256,0
1.554,8.538,0
1.555,2.495,0
1.556,8.172,0
1.557,11.101,0
1.558,10.186,0
1.559,10.918,0
1.56,11.651,0
1.561,7.073,0
1.562,5.242,0
1.563,5.791,0
1.564,9.087,0
1.565,5.974,0
1.566,7.989,0
1.567,2.312,0
1.568,3.045,0
1.569,2.312,0
1.57,1.763,0
1.571,3.594,0
1.572,3.045,0
1.573,3.411,0
1.574,0.298,0
1.575,-1.716,0
1.576,3.96,0
1.577,6.341,0
1.578,2.495,0
1.579,0.664,0
1.58,2.495,0
1.581,4.876,0
1.582,3.228,0
1.583,10.735,0
1.584,27.764,0
1.585,59.441,0
1.586,72.259,0
1.587,60.54,0
1.588,21.172,0
1.589,-26.069,0
1.59,-44.929,0
1.591,-50.605,0
1.592,-45.478,0
1.593,-40.718,0
1.594,-36.506,0
1.595,-32.661,0
1.596,-29.182,0
1.597,-19.66,0
1.598,-16.731,0
1.599,-14.167,0
1.6,-11.787,0
1.601,-5.195,0
1.602,0.847,0
1.603,-0.984,0
1.604,3.96,0
1.605,5.425,0
1.606,9.453,0
1.607,8.355,0
1.608,9.453,0
1.609,8.538,0
1.61,5.791,0
1.611,5.059,0
1.612,7.256,0
1.613,5.425,0
1.614,8.538,0
1.615,11.284,0
1.616,12.566,0
1.617,8.355,0
1.618,4.51,0
1.619,4.876,0
1.62,0.664,0
1.621,3.411,0
1.622,3.777,0
1.623,0.664,0
1.624,1.031,0
1.625,5.242,0
1.626,5.791,0
1.627,4.51,0
1.628,2.312,0
1.629,2.678,0
1.63,0.115,0
1.631,1.214,0
1.632,0.481,0
1.633,-1.533,0
1.634,2.678,0
1.635,12.2,0
1.636,32.708,0
1.637,71.343,0
1.638,34.722,0
1.639,-8.308,0
1.64,-25.52,0
1.641,-41.084,0
1.642,-45.844,0
1.643,-41.633,0
1.644,-29.914,0
1.645,-26.435,0
1.646,-23.323,0
1.647,-20.393,0
1.648,-17.829,0
1.649,-10.688,0
1.65,-4.096,0
1.651,-2.082,0
1.652,-0.251,0
1.653,1.397,0
1.654,-0.068,0
1.655,1.214,0
1.656,7.256,0
1.657,1.58,0
1.658,6.524,0
1.659,5.608,0
1.66,9.636,0
1.661,8.904,0
1.662,8.355,0
1.663,7.805,0
1.664,10.552,0
1.665,8.172,0
1.666,8.538,0
1.667,6.524,0
1.668,7.622,0
1.669,5.791,0
1.67,3.777,0
1.671,3.96,0
1.672,4.693,0
1.673,7.256,0
1.674,3.96,0
1.675,5.059,0
1.676,0.847,0
1.677,-1.899,0
1.678,0.481,0
1.679,4.693,0
1.68,3.045,0
1.681,1.763,0
1.682,2.129,0
1.683,1.946,0
1.684,-4.28,0
1.685,9.636,0
1.686,31.792,0
1.687,46.624,0
1.688,54.497,0
1.689,66.582,0
1.69,33.44,0
1.691,-19.111,0
1.692,-39.985,0
1.693,-46.211,0
1.694,-51.887,0
1.695,-46.76,0
1.696,-41.999,0
1.697,-29.182,0
1.698,-25.337,0
1.699,-21.858,0
1.7,-18.745,0
1.701,-9.956,0
1.702,-7.392,0
1.703,-5.012,0
1.704,-2.815,0
1.705,3.228,0
1.706,5.059,0
1.707,3.411,0
1.708,10.918,0
1.709,9.636,0
1.71,6.157,0
1.711,7.256,0
1.712,10.186,0
1.713,9.27,0
1.714,11.651,0
1.715,4.693,0
1.716,5.608,0
1.717,7.989,0
1.718,7.256,0
1.719,6.707,0
1.72,7.256,0
1.721,4.51,0
1.722,7.805,0
1.723,7.439,0
1.724,5.425,0
1.725,6.524,0
1.726,3.228,0
1.727,7.073,0
1.728,2.495,0
1.729,1.946,0
1.73,3.594,0
1.731,3.228,0
1.732,1.946,0
1.733,3.045,0
1.734,-0.984,0
1.735,1.58,0
1.736,7.073,0
1.737,18.609,0
1.738,40.215,0
1.739,60.906,0
1.74,68.78,0
1.741,32.342,0
1.742,-14.9,0
1.743,-46.577,0
1.744,-52.253,0
1.745,-47.126,0
1.746,-42.365,0
1.747,-46.577,0
1.748,-34.858,0
1.749,-24.238,0
1.75,-21.125,0
1.751,-18.196,0
1.752,-15.632,0
1.753,-8.491,0
1.754,-6.294,0
1.755,-4.28,0
1.756,4.876,0
1.757,6.524,0
1.758,2.129,0
1.759,6.157,0
1.76,9.636,0
1.761,6.341,0
1.762,9.27,0
1.763,21.355,0
1.764,39.666,0
1.765,37.285,0
1.766,12.932,0
1.767,3.411,0
1.768,-5.378,0
1.769,-7.942,0
1.77,-10.322,0
1.771,-8.125,0
1.772,-10.139,0
1.773,-8.308,0
1.774,-0.068,0
1.775,-7.575,0
1.776,-0.801,0
1.777,5.242,0
1.778,13.115,0
1.779,8.172,0
1.78,7.256,0
1.781,4.876,0
1.782,5.608,0
1.783,-0.617,0
1.784,-4.646,0
1.785,-3.181,0
1.786,-0.984,0
1.787,9.27,0
1.788,31.792,0
1.789,61.089,0
1.79,72.808,0
1.791,47.906,0
1.792,-0.801,0
1.793,-21.675,0
1.794,-27.9,0
1.795,-33.576,0
1.796,-38.703,0
1.797,-24.421,0
1.798,-20.21,0
1.799,-16.365,0
1.8,-12.885,0
1.801,-9.773,0
1.802,-6.843,0
1.803,-9.406,0
1.804,-7.026,0
1.805,-4.829,0
1.806,5.242,0
1.807,3.411,0
1.808,8.355,0
1.809,3.96,0
1.81,-2.815,0
1.811,5.608,0
1.812,2.312,0
1.813,3.228,0
1.814,4.143,0
1.815,6.524,0
1.816,2.678,0
1.817,0.847,0
1.818,0.298,0
1.819,-3.547,0
1.82,3.96,0
1.821,2.862,0
1.822,-2.082,0
1.823,-1.167,0
1.824,-1.899,0
1.825,-2.632,0
1.826,1.946,0
1.827,5.059,0
1.828,4.51,0
1.829,2.129,0
1.83,1.763,0
1.831,4.51,0
1.832,4.143,0
1.833,2.312,0
1.834,1.58,0
1.835,1.397,0
1.836,1.946,0
1.837,2.129,0
1.838,5.608,0
1.839,13.115,0
1.84,30.144,0
1.841,61.822,0
1.842,14.214,0
1.843,-17.463,0
1.844,-34.675,0
1.845,-29.548,0
1.846,-34.309,0
1.847,-38.52,0
1.848,-26.802,0
1.849,-23.323,0
1.85,-20.21,0
1.851,-11.421,0
1.852,-8.857,0
1.853,-11.238,0
1.854,-4.646,0
1.855,-2.632,0
1.856,-0.801,0
1.857,0.847,0
1.858,5.242,0
1.859,9.27,0
1.86,10.369,0
1.861,13.665,0
1.862,8.721,0
1.863,11.468,0
1.864,5.791,0
1.865,3.594,0
1.866,4.143,0
1.867,4.693,0
1.868,5.242,0
1.869,4.876,0
1.87,5.242,0
1.871,4.876,0
1.872,5.242,0
1.873,0.481,0
1.874,2.312,0
1.875,3.96,0
1.876,2.678,0
1.877,-0.434,0
1.878,2.312,0
1.879,1.946,0
1.88,5.242,0
1.881,5.608,0
1.882,8.172,0
1.883,2.678,0
1.884,-2.632,0
1.885,0.664,0
1.886,2.495,0
1.887,2.678,0
1.888,5.425,0
1.889,12.932,0
1.89,29.961,0
1.891,66.399,0
1.892,81.963,0
1.893,48.638,0
1.894,9.636,0
1.895,-5.927,0
1.896,-10.688,0
1.897,-14.9,0
1.898,-11.054,0
1.899,-14.533,0
1.9,-11.421,0
1.901,-8.491,0
1.902,-16.365,0
1.903,-28.449,0
1.904,-35.041,0
1.905,-37.055,0
1.906,-42.549,0
1.907,-50.788,0
1.908,-49.323,0
1.909,-39.802,0
1.91,-23.689,0
1.911,-21.491,0
1.912,-27.534,0
1.913,-40.351,0
1.914,-51.887,0
1.915,-71.479,0
1.916,-84.846,0
1.917,-96.931,0
1.918,-107.92,0
1.919,-113.96,0
1.92,-130.44,0
1.921,-132.64,0
1.922,-126.59,0
1.923,-117.44,0
1.924,-109.2,0
1.925,-89.607,0
1.926,-49.323,0
1.927,37.285,0
1.928,124.44,0
1.929,158.13,0
1.93,168.39,0
1.931,159.05,0
1.932,133.78,0
1.933,110.71,0
1.934,103.75,0
1.935,97.527,0
1.936,103.2,0
1.937,118.77,0
1.938,133.78,0
1.939,157.59,0
1.94,161.8,0
1.941,181.39,0
1.942,184.87,0
1.943,168.75,0
1.944,148.06,0
1.945,145.5,0
1.946,128.66,0
1.947,95.513,0
1.948,23.919,0
1.949,-47.859,0
1.95,-38.52,0
1.951,-46.943,0
1.952,-39.253,0
1.953,-46.211,0
1.954,-52.436,0
1.955,-46.76,0
1.956,-51.887,0
1.957,-47.126,0
1.958,-42.915,0
1.959,-31.196,0
1.96,-41.816,0
1.961,-51.338,0
1.962,-48.408,0
1.963,-50.971,0
1.964,-43.83,0
1.965,-41.633,0
1.966,-47.676,0
1.967,-42.182,0
1.968,-47.126,0
1.969,-48.591,0
1.97,-52.619,0
1.971,-51.521,0
1.972,-54.817,0
1.973,-53.901,0
1.974,-52.986,0
1.975,-47.309,0
1.976,-41.999,0
1.977,-41.45,0
1.978,-40.901,0
1.979,-37.055,0
1.98,-29.548,0
1.981,-26.252,0
1.982,-21.308,0
1.983,-24.055,0
1.984,-21.675,0
1.985,-16.365,0
1.986,-13.069,0
1.987,-9.956,0
1.988,-6.111,0
1.989,-1.716,0
1.99,-1.35,0
1.991,5.608,0
1.992,16.778,0
1.993,39.3,0
1.994,68.596,0
1.995,41.131,0
1.996,1.763,0
1.997,-24.421,0
1.998,-29.182,0
1.999,-33.393,0
2,-29.548,0
2.001,-26.069,0
2.002,-22.956,0
2.003,-14.167,0
2.004,-11.604,0
2.005,-4.463,0
2.006,-2.265,0
2.007,-4.28,0
2.008,4.876,0
2.009,13.115,0
2.01,35.637,0
2.011,38.75,0
2.012,12.017,0
2.013,8.538,0
2.014,5.425,0
2.015,2.495,0
2.016,-0.068,0
2.017,2.312,0
2.018,4.51,0
2.019,6.524,0
2.02,1.031,0
2.021,5.974,0
2.022,4.51,0
2.023,5.791,0
2.024,6.89,0
2.025,7.989,0
2.026,8.904,0
2.027,7.989,0
2.028,10.369,0
2.029,11.101,0
2.03,10.552,0
2.031,11.101,0
2.032,9.453,0
2.033,9.82,0
2.034,11.101,0
2.035,12.2,0
2.036,6.524,0
2.037,8.904,0
2.038,8.172,0
2.039,7.622,0
2.04,4.143,0
2.041,5.974,0
2.042,2.129,0
2.043,9.636,0
2.044,26.665,0
2.045,48.638,0
2.046,45.708,0
2.047,37.835,0
2.048,49.92,0
2.049,16.778,0
2.05,-35.774,0
2.051,-56.648,0
2.052,-62.873,0
2.053,-57.197,0
2.054,-52.07,0
2.055,-47.309,0
2.056,-43.098,0
2.057,-31.379,0
2.058,-20.759,0
2.059,-11.238,0
2.06,3.594,0
2.061,16.961,0
2.062,19.341,0
2.063,25.933,0
2.064,23.919,0
2.065,22.088,0
2.066,17.144,0
2.067,12.749,0
2.068,8.721,0
2.069,5.242,0
2.07,4.143,0
2.071,5.059,0
2.072,0.481,0
2.073,-3.547,0
2.074,-1.35,0
2.075,0.481,0
2.076,3.594,0
2.077,0.847,0
2.078,2.129,0
2.079,0.847,0
2.08,1.214,0
2.081,-2.265,0
2.082,0.847,0
2.083,-1.899,0
2.084,-1.533,0
2.085,-2.632,0
2.086,-3.364,0
2.087,-0.801,0
2.088,-1.899,0
2.089,-0.434,0
2.09,-4.096,0
2.091,-1.716,0
2.092,0.664,0
2.093,7.622,0
2.094,22.82,0
2.095,55.962,0
2.096,60.723,0
2.097,64.934,0
2.098,21.538,0
2.099,-18.745,0
2.1,-44.929,0
2.101,-40.168,0
2.102,-44.38,0
2.103,-40.534,0
2.104,-37.055,0
2.105,-27.534,0
2.106,-24.604,0
2.107,-22.041,0
2.108,-14.9,0
2.109,-8.308,0
2.11,-6.294,0
2.111,-4.463,0
2.112,-2.815,0
2.113,4.693,0
2.114,0.664,0
2.115,4.143,0
2.116,5.242,0
2.117,8.172,0
2.118,9.087,0
2.119,8.355,0
2.12,7.622,0
2.121,9.453,0
2.122,7.622,0
2.123,7.073,0
2.124,7.439,0
2.125,5.242,0
2.126,7.989,0
2.127,6.157,0
2.128,5.059,0
2.129,4.326,0
2.13,7.989,0
2.131,5.608,0
2.132,4.326,0
2.133,2.312,0
2.134,2.678,0
2.135,-2.082,0
2.136,2.312,0
2.137,0.664,0
2.138,0.298,0
2.139,-0.984,0
2.14,2.862,0
2.141,1.58,0
2.142,3.411,0
2.143,1.214,0
2.144,7.439,0
2.145,21.355,0
2.146,51.568,0
2.147,64.385,0
2.148,52.666,0
2.149,13.299,0
2.15,-23.323,0
2.151,-37.605,0
2.152,-41.816,0
2.153,-37.971,0
2.154,-41.45,0
2.155,-31.928,0
2.156,-23.139,0
2.157,-20.576,0
2.158,-18.196,0
2.159,-11.604,0
2.16,-9.59,0
2.161,-7.759,0
2.162,-2.815,0
2.163,-1.35,0
2.164,2.678,0
2.165,3.777,0
2.166,7.073,0
2.167,10.003,0
2.168,5.425,0
2.169,6.157,0
2.17,10.003,0
2.171,11.834,0
2.172,8.721,0
2.173,5.974,0
2.174,9.27,0
2.175,7.989,0
2.176,10.003,0
2.177,5.791,0
2.178,5.242,0
2.179,6.524,0
2.18,2.312,0
2.181,2.862,0
2.182,2.495,0
2.183,2.129,0
2.184,4.143,0
2.185,1.58,0
2.186,1.214,0
2.187,2.678,0
2.188,1.397,0
2.189,2.678,0
2.19,-0.801,0
2.191,-1.167,0
2.192,1.031,0
2.193,0.481,0
2.194,0.847,0
2.195,6.524,0
2.196,18.975,0
2.197,46.441,0
2.198,66.033,0
2.199,33.806,0
2.2,-13.801,0
2.201,-32.661,0
2.202,-38.337,0
2.203,-33.21,0
2.204,-37.971,0
2.205,-33.76,0
2.206,-29.914,0
2.207,-19.294,0
2.208,-16.181,0
2.209,-13.252,0
2.21,-10.688,0
2.211,-8.308,0
2.212,-1.716,0
2.213,0.298,0
2.214,-1.533,0
2.215,3.411,0
2.216,4.876,0
2.217,6.157,0
2.218,5.059,0
2.219,3.96,0
2.22,4.876,0
2.221,5.791,0
2.222,6.524,0
2.223,4.326,0
2.224,8.904,0
2.225,9.453,0
2.226,7.805,0
2.227,6.524,0
2.228,5.242,0
2.229,7.256,0
2.23,6.89,0
2.231,5.791,0
2.232,6.524,0
2.233,4.693,0
2.234,1.763,0
2.235,3.594,0
2.236,3.228,0
2.237,3.411,0
2.238,3.594,0
2.239,1.214,0
2.24,5.791,0
2.241,2.495,0
2.242,4.326,0
2.243,0.481,0
2.244,1.214,0
2.245,3.594,0
2.246,10.552,0
2.247,25.75,0
2.248,58.892,0
2.249,54.131,0
2.25,15.13,0
2.251,-11.054,0
2.252,-34.858,0
2.253,-30.647,0
2.254,-34.492,0
2.255,-16.731,0
2.256,-7.209,0
2.257,-4.28,0
2.258,-22.956,0
2.259,-30.097,0
2.26,-27.9,0
2.261,-21.858,0
2.262,-20.027,0
2.263,-18.379,0
2.264,-13.984,0
2.265,-9.956,0
2.266,-6.477,0
2.267,-3.181,0
2.268,-2.265,0
2.269,0.481,0
2.27,2.862,0
2.271,3.594,0
2.272,5.425,0
2.273,8.538,0
2.274,9.087,0
2.275,9.453,0
2.276,8.172,0
2.277,9.27,0
2.278,9.636,0
2.279,9.27,0
2.28,6.524,0
2.281,9.087,0
2.282,7.989,0
2.283,3.411,0
2.284,3.96,0
2.285,3.411,0
2.286,0.664,0
2.287,3.045,0
2.288,0.847,0
2.289,-0.251,0
2.29,-2.082,0
2.291,-0.251,0
2.292,0.481,0
2.293,-3.181,0
2.294,1.397,0
2.295,3.411,0
2.296,1.58,0
2.297,10.003,0
2.298,28.496,0
2.299,68.78,0
2.3,63.103,0
2.301,26.482,0
2.302,-16.548,0
2.303,-33.76,0
2.304,-38.886,0
2.305,-34.126,0
2.306,-29.914,0
2.307,-26.069,0
2.308,-29.548,0
2.309,-20.027,0
2.31,-17.097,0
2.311,-14.533,0
2.312,-12.153,0
2.313,-5.561,0
2.314,-7.575,0
2.315,-2.082,0
2.316,-3.73,0
2.317,-2.265,0
2.318,-0.984,0
2.319,0.115,0
2.32,1.214,0
2.321,4.143,0
2.322,5.059,0
2.323,4.326,0
2.324,8.172,0
2.325,10.003,0
2.326,9.453,0
2.327,11.101,0
2.328,11.468,0
2.329,8.355,0
2.33,11.101,0
2.331,10.003,0
2.332,10.369,0
2.333,9.636,0
2.334,7.073,0
2.335,3.777,0
2.336,1.031,0
2.337,-0.068,0
2.338,-1.899,0
2.339,-1.716,0
2.34,-2.448,0
2.341,0.481,0
2.342,-2.082,0
2.343,-3.913,0
2.344,-1.899,0
2.345,-5.561,0
2.346,-1.716,0
2.347,-1.35,0
2.348,5.608,0
2.349,20.806,0
2.35,49.553,0
2.351,69.146,0
2.352,51.385,0
2.353,9.087,0
2.354,-31.196,0
2.355,-36.323,0
2.356,-50.605,0
2.357,-46.394,0
2.358,-34.675,0
2.359,-38.154,0
2.36,-28.633,0
2.361,-25.703,0
2.362,-23.139,0
2.363,-15.998,0
2.364,-13.801,0
2.365,-3.73,0
2.366,-5.561,0
2.367,2.678,0
2.368,7.073,0
2.369,8.355,0
2.37,11.834,0
2.371,10.735,0
2.372,9.82,0
2.373,7.073,0
2.374,11.101,0
2.375,11.834,0
2.376,12.383,0
2.377,7.989,0
2.378,10.735,0
2.379,13.115,0
2.38,7.073,0
2.381,6.341,0
2.382,8.538,0
2.383,10.369,0
2.384,9.82,0
2.385,7.073,0
2.386,7.439,0
2.387,5.242,0
2.388,6.341,0
2.389,2.862,0
2.39,3.228,0
2.391,7.073,0
2.392,4.693,0
2.393,5.974,0
2.394,3.96,0
2.395,1.397,0
2.396,-2.632,0
2.397,0.481,0
2.398,0.847,0
2.399,7.805,0
2.4,23.003,0
2.401,56.145,0
2.402,70.427,0
2.403,40.215,0
2.404,-3.181,0
2.405,-31.928,0
2.406,-37.055,0
2.407,-41.816,0
2.408,-37.605,0
2.409,-33.76,0
2.41,-30.281,0
2.411,-27.168,0
2.412,-24.238,0
2.413,-16.365,0
2.414,-13.984,0
2.415,-11.787,0
2.416,-5.744,0
2.417,-0.251,0
2.418,-1.899,0
2.419,-0.434,0
2.42,3.594,0
2.421,4.693,0
2.422,3.594,0
2.423,4.51,0
2.424,3.594,0
2.425,9.27,0
2.426,5.425,0
2.427,5.974,0
2.428,5.425,0
2.429,5.974,0
2.43,7.256,0
2.431,5.059,0
2.432,4.693,0
2.433,5.059,0
2.434,3.96,0
2.435,3.228,0
2.436,3.96,0
2.437,4.693,0
2.438,3.228,0
2.439,4.326,0
2.44,1.397,0
2.441,1.031,0
2.442,0.664,0
2.443,1.031,0
2.444,3.045,0
2.445,0.481,0
2.446,1.58,0
2.447,1.763,0
2.448,6.341,0
2.449,6.524,0
2.45,10.552,0
2.451,18.975,0
2.452,37.469,0
2.453,50.835,0
2.454,53.216,0
2.455,28.863,0
2.456,-13.435,0
2.457,-42.182,0
2.458,-47.309,0
2.459,-52.07,0
2.46,-47.859,0
2.461,-44.013,0
2.462,-40.534,0
2.463,-37.422,0
2.464,-28.633,0
2.465,-20.759,0
2.466,-13.618,0
2.467,-11.421,0
2.468,-5.378,0
2.469,0.115,0
2.47,1.763,0
2.471,9.27,0
2.472,7.989,0
2.473,11.468,0
2.474,12.566,0
2.475,11.651,0
2.476,8.904,0
2.477,9.636,0
2.478,7.439,0
2.479,9.27,0
2.48,7.439,0
2.481,9.087,0
2.482,10.369,0
2.483,10.003,0
2.484,11.101,0
2.485,7.622,0
2.486,10.735,0
2.487,6.157,0
2.488,4.326,0
2.489,8.172,0
2.49,4.876,0
2.491,0.664,0
2.492,2.312,0
2.493,5.608,0
2.494,5.974,0
2.495,1.397,0
2.496,4.51,0
2.497,6.157,0
2.498,1.58,0
2.499,-3.181,0
2.5,-2.632,0
2.501,5.791,0
2.502,24.285,0
2.503,10.918,0
2.504,8.538,0
2.505,32.891,0
2.506,55.413,0
2.507,40.581,0
2.508,0.298,0
2.509,-39.985,0
2.51,-45.112,0
2.511,-49.873,0
2.512,-37.055,0
2.513,-40.901,0
2.514,-37.422,0
2.515,-34.309,0
2.516,-25.52,0
2.517,-17.646,0
2.518,-15.266,0
2.519,-8.674,0
2.52,-2.632,0
2.521,-0.801,0
2.522,0.847,0
2.523,5.242,0
2.524,6.524,0
2.525,7.622,0
2.526,6.524,0
2.527,9.453,0
2.528,8.538,0
2.529,10.918,0
2.53,8.721,0
2.531,8.172,0
2.532,8.721,0
2.533,8.172,0
2.534,7.805,0
2.535,10.918,0
2.536,5.425,0
2.537,4.693,0
2.538,2.862,0
2.539,2.312,0
2.54,5.059,0
2.541,7.439,0
2.542,5.242,0
2.543,4.876,0
2.544,5.242,0
2.545,6.341,0
2.546,5.608,0
2.547,4.876,0
2.548,3.594,0
2.549,2.129,0
2.55,3.411,0
2.551,0.115,0
2.552,7.073,0
2.553,22.271,0
2.554,55.413,0
2.555,69.695,0
2.556,39.483,0
2.557,-11.787,0
2.558,-32.661,0
2.559,-38.886,0
2.56,-44.563,0
2.561,-28.999,0
2.562,-33.76,0
2.563,-29.548,0
2.564,-25.703,0
2.565,-22.224,0
2.566,-12.702,0
2.567,-9.773,0
2.568,-7.209,0
2.569,-9.59,0
2.57,-2.998,0
2.571,-0.984,0
2.572,0.847,0
2.573,-0.801,0
2.574,0.664,0
2.575,1.946,0
2.576,5.425,0
2.577,8.721,0
2.578,5.791,0
2.579,12.2,0
2.58,4.693,0
2.581,9.636,0
2.582,10.552,0
2.583,8.172,0
2.584,7.439,0
2.585,5.608,0
2.586,6.157,0
2.587,6.707,0
2.588,7.073,0
2.589,7.439,0
2.59,1.214,0
2.591,-1.533,0
2.592,-0.801,0
2.593,-0.068,0
2.594,-0.617,0
2.595,-0.068,0
2.596,1.58,0
2.597,3.96,0
2.598,3.594,0
2.599,5.608,0
2.6,4.51,0
2.601,4.876,0
2.602,6.707,0
2.603,2.129,0
2.604,12.383,0
2.605,34.905,0
2.606,64.202,0
2.607,52.483,0
2.608,55.962,0
2.609,13.665,0
2.61,-26.618,0
2.611,-52.802,0
2.612,-48.042,0
2.613,-43.83,0
2.614,-39.985,0
2.615,-36.506,0
2.616,-33.393,0
2.617,-24.604,0
2.618,-16.731,0
2.619,-14.35,0
2.62,-7.759,0
2.621,-1.716,0
2.622,-3.547,0
2.623,1.397,0
2.624,-0.068,0
2.625,3.96,0
2.626,7.439,0
2.627,6.341,0
2.628,7.256,0
2.629,4.51,0
2.63,5.242,0
2.631,7.439,0
2.632,4.143,0
2.633,5.974,0
2.634,7.622,0
2.635,10.003,0
2.636,4.876,0
2.637,9.453,0
2.638,7.622,0
2.639,4.876,0
2.64,7.256,0
2.641,2.129,0
2.642,2.678,0
2.643,3.228,0
2.644,-0.617,0
2.645,2.678,0
2.646,3.045,0
2.647,5.059,0
2.648,2.495,0
2.649,0.664,0
2.65,-0.801,0
2.651,0.481,0
2.652,-1.716,0
2.653,-1.533,0
2.654,1.946,0
2.655,9.453,0
2.656,26.482,0
2.657,62.92,0
2.658,36.736,0
2.659,-15.815,0
2.66,-36.689,0
2.661,-30.464,0
2.662,-36.14,0
2.663,-41.267,0
2.664,-26.985,0
2.665,-22.773,0
2.666,-18.928,0
2.667,-15.449,0
2.668,-12.336,0
2.669,-9.406,0
2.67,-6.843,0
2.671,-4.463,0
2.672,-6.66,0
2.673,-0.617,0
2.674,1.214,0
2.675,2.862,0
2.676,4.326,0
2.677,5.608,0
2.678,6.707,0
2.679,10.003,0
2.68,9.087,0
2.681,6.341,0
2.682,5.608,0
2.683,6.341,0
2.684,6.89,0
2.685,7.439,0
2.686,5.791,0
2.687,4.51,0
2.688,2.312,0
2.689,1.946,0
2.69,3.777,0
2.691,7.073,0
2.692,3.228,0
2.693,0.847,0
2.694,1.214,0
2.695,3.228,0
2.696,4.326,0
2.697,4.693,0
2.698,0.115,0
2.699,0.664,0
2.7,-1.167,0
2.701,-2.815,0
2.702,-2.448,0
2.703,1.946,0
2.704,7.073,0
2.705,17.327,0
2.706,27.764,0
2.707,48.272,0
2.708,86.907,0
2.709,50.286,0
2.71,7.256,0
2.711,-21.491,0
2.712,-16.365,0
2.713,-11.604,0
2.714,-7.392,0
2.715,-11.238,0
2.716,-7.759,0
2.717,-4.646,0
2.718,-7.575,0
2.719,-5.012,0
2.72,2.129,0
2.721,-8.857,0
2.722,-18.928,0
2.723,-24.421,0
2.724,-32.661,0
2.725,-37.055,0
2.726,-41.084,0
2.727,-39.985,0
2.728,-29.731,0
2.729,-25.703,0
2.73,-19.66,0
2.731,-18.562,0
2.732,-31.745,0
2.733,-44.563,0
2.734,-62.873,0
2.735,-74.958,0
2.736,-85.945,0
2.737,-104.07,0
2.738,-116.16,0
2.739,-118.35,0
2.74,-124.4,0
2.741,-122.57,0
2.742,-117.62,0
2.743,-110.11,0
2.744,-89.607,0
2.745,-45.112,0
2.746,50.286,0
2.747,173.33,0
2.748,189.81,0
2.749,174.8,0
2.75,133.97,0
2.751,121.51,0
2.752,87.823,0
2.753,77.569,0
2.754,70.061,0
2.755,60.723,0
2.756,69.146,0
2.757,107.6,0
2.758,170.77,0
2.759,179.19,0
2.76,186.88,0
2.761,151.91,0
2.762,94.597,0
2.763,56.145,0
2.764,49.187,0
2.765,42.962,0
2.766,48.638,0
2.767,22.454,0
2.768,-1.35,0
2.769,2.862,0
2.77,6.707,0
2.771,10.186,0
2.772,13.299,0
2.773,4.51,0
2.774,-3.364,0
2.775,-10.505,0
2.776,-12.702,0
2.777,-26.802,0
2.778,-28.633,0
2.779,-23.689,0
2.78,-28.083,0
2.781,-34.858,0
2.782,-38.337,0
2.783,-39.436,0
2.784,-38.52,0
2.785,-43.098,0
2.786,-40.718,0
2.787,-46.028,0
2.788,-46.577,0
2.789,-50.971,0
2.79,-51.521,0
2.791,-56.098,0
2.792,-54.267,0
2.793,-54.817,0
2.794,-53.535,0
2.795,-50.422,0
2.796,-47.676,0
2.797,-44.197,0
2.798,-39.985,0
2.799,-37.239,0
2.8,-31.745,0
2.801,-29.548,0
2.802,-24.97,0
2.803,-23.139,0
2.804,-20.393,0
2.805,-17.097,0
2.806,-15.815,0
2.807,-8.857,0
2.808,6.341,0
2.809,39.483,0
2.81,63.286,0
2.811,33.074,0
2.812,-10.322,0
2.813,-39.07,0
2.814,-44.197,0
2.815,-39.436,0
2.816,-35.224,0
2.817,-31.379,0
2.818,-27.9,0
2.819,-18.379,0
2.82,-15.449,0
2.821,-12.885,0
2.822,-5.744,0
2.823,-3.547,0
2.824,2.495,0
2.825,4.326,0
2.826,5.974,0
2.827,10.369,0
2.828,14.397,0
2.829,13.299,0
2.83,14.397,0
2.831,11.468,0
2.832,17.876,0
2.833,15.496,0
2.834,16.228,0
2.835,14.397,0
2.836,16.228,0
2.837,13.482,0
2.838,11.101,0
2.839,14.214,0
2.84,13.115,0
2.841,13.482,0
2.842,10.918,0
2.843,6.89,0
2.844,9.636,0
2.845,6.341,0
2.846,5.059,0
2.847,6.157,0
2.848,4.326,0
2.849,7.622,0
2.85,4.876,0
2.851,10.552,0
2.852,8.172,0
2.853,7.439,0
2.854,7.989,0
2.855,3.594,0
2.856,4.143,0
2.857,4.693,0
2.858,7.989,0
2.859,14.947,0
2.86,30.144,0
2.861,63.286,0
2.862,58.526,0
2.863,19.524,0
2.864,-17.097,0
2.865,-40.901,0
2.866,-36.689,0
2.867,-40.534,0
2.868,-37.055,0
2.869,-27.534,0
2.87,-24.604,0
2.871,-22.041,0
2.872,-14.9,0
2.873,-12.702,0
2.874,-6.66,0
2.875,-8.491,0
2.876,-3.547,0
2.877,0.847,0
2.878,-0.434,0
2.879,3.045,0
2.88,8.721,0
2.881,7.805,0
2.882,6.89,0
2.883,9.27,0
2.884,10.003,0
2.885,8.172,0
2.886,10.003,0
2.887,7.256,0
2.888,5.974,0
2.889,5.608,0
2.89,11.834,0
2.891,9.087,0
2.892,8.355,0
2.893,6.157,0
2.894,7.989,0
2.895,9.82,0
2.896,9.27,0
2.897,7.989,0
2.898,7.622,0
2.899,3.045,0
2.9,2.495,0
2.901,0.847,0
2.902,2.129,0
2.903,2.495,0
2.904,-2.082,0
2.905,-2.632,0
2.906,-2.082,0
2.907,1.214,0
2.908,3.594,0
2.909,10.552,0
2.91,25.75,0
2.911,45.708,0
2.912,53.582,0
2.913,70.427,0
2.914,37.285,0
2.915,-15.266,0
2.916,-36.14,0
2.917,-55,0
2.918,-49.323,0
2.919,-44.197,0
2.92,-39.436,0
2.921,-35.224,0
2.922,-31.379,0
2.923,-27.9,0
2.924,-18.379,0
2.925,-9.59,0
2.926,-7.026,0
2.927,-4.646,0
2.928,1.946,0
2.929,-0.068,0
2.93,1.763,0
2.931,6.707,0
2.932,5.242,0
2.933,3.96,0
2.934,5.059,0
2.935,8.355,0
2.936,5.425,0
2.937,10.003,0
2.938,7.622,0
2.939,3.777,0
2.94,10.003,0
2.941,12.383,0
2.942,11.651,0
2.943,4.143,0
2.944,7.073,0
2.945,4.326,0
2.946,3.594,0
2.947,8.904,0
2.948,5.608,0
2.949,5.059,0
2.95,3.411,0
2.951,3.777,0
2.952,5.059,0
2.953,2.312,0
2.954,1.946,0
2.955,3.777,0
2.956,-0.801,0
2.957,1.031,0
2.958,-0.984,0
2.959,4.693,0
2.96,14.763,0
2.961,35.271,0
2.962,62.005,0
2.963,65.484,0
2.964,29.778,0
2.965,-13.252,0
2.966,-30.464,0
2.967,-35.591,0
2.968,-40.351,0
2.969,-36.14,0
2.97,-32.295,0
2.971,-21.675,0
2.972,-18.562,0
2.973,-15.632,0
2.974,-13.069,0
2.975,-10.688,0
2.976,-4.096,0
2.977,-2.082,0
2.978,-0.251,0
2.979,1.397,0
2.98,5.791,0
2.981,4.51,0
2.982,5.608,0
2.983,6.707,0
2.984,5.791,0
2.985,6.707,0
2.986,9.087,0
2.987,5.242,0
2.988,5.791,0
2.989,10.186,0
2.99,9.636,0
2.991,8.355,0
2.992,15.313,0
2.993,30.51,0
2.994,37.102,0
2.995,10.918,0
2.996,-6.843,0
2.997,-9.956,0
2.998,-12.885,0
2.999,-10.322,0
3,-7.942,0
3.001,-10.139,0
3.002,-8.125,0
3.003,-6.294,0
3.004,-7.942,0
3.005,-3.547,0
3.006,-4.829,0
3.007,-3.73,0
3.008,-2.632,0
3.009,-0.251,0
3.01,4.693,0
3.011,1.946,0
3.012,14.397,0
3.013,41.863,0
3.014,53.582,0
3.015,42.962,0
3.016,46.074,0
3.017,49.004,0
3.018,14.031,0
3.019,-28.999,0
3.02,-57.746,0
3.021,-62.873,0
3.022,-58.113,0
3.023,-53.901,0
3.024,-42.182,0
3.025,-38.703,0
3.026,-29.182,0
3.027,-20.393,0
3.028,-12.519,0
3.029,-5.378,0
3.03,1.214,0
3.031,7.256,0
3.032,5.425,0
3.033,10.369,0
3.034,2.862,0
3.035,6.89,0
3.036,5.791,0
3.037,6.89,0
3.038,9.82,0
3.039,10.735,0
3.04,10.003,0
3.041,12.2,0
3.042,12.749,0
3.043,13.299,0
3.044,9.453,0
3.045,10.735,0
3.046,12.017,0
3.047,14.031,0
3.048,12.932,0
3.049,8.904,0
3.05,6.524,0
3.051,9.636,0
3.052,6.89,0
3.053,5.791,0
3.054,4.693,0
3.055,3.228,0
3.056,1.397,0
3.057,5.425,0
3.058,2.678,0
3.059,2.312,0
3.06,5.608,0
3.061,4.326,0
3.062,10.552,0
3.063,22.637,0
3.064,44.243,0
3.065,53.032,0
3.066,66.399,0
3.067,44.427,0
3.068,-0.068,0
3.069,-31.745,0
3.07,-48.957,0
3.071,-54.084,0
3.072,-49.323,0
3.073,-45.112,0
3.074,-33.393,0
3.075,-29.914,0
3.076,-20.393,0
3.077,-17.463,0
3.078,-14.9,0
3.079,-12.519,0
3.08,-10.322,0
3.081,-4.28,0
3.082,-2.448,0
3.083,-0.801,0
3.084,3.594,0
3.085,4.876,0
3.086,8.355,0
3.087,9.453,0
3.088,8.538,0
3.089,7.622,0
3.09,10.003,0
3.091,6.157,0
3.092,10.735,0
3.093,8.904,0
3.094,6.157,0
3.095,6.524,0
3.096,8.721,0
3.097,5.974,0
3.098,4.876,0
3.099,7.439,0
3.1,5.425,0
3.101,3.594,0
3.102,4.326,0
3.103,0.847,0
3.104,-1.533,0
3.105,-1.899,0
3.106,0.115,0
3.107,-0.251,0
3.108,2.312,0
3.109,2.129,0
3.11,-1.533,0
3.111,2.678,0
3.112,-0.617,0
3.113,6.341,0
3.114,21.538,0
3.115,54.68,0
3.116,59.441,0
3.117,20.44,0
3.118,-16.181,0
3.119,-30.464,0
3.12,-34.675,0
3.121,-38.52,0
3.122,-35.041,0
3.123,-31.928,0
3.124,-23.139,0
3.125,-20.576,0
3.126,-18.196,0
3.127,-11.604,0
3.128,-9.59,0
3.129,-4.096,0
3.13,-2.448,0
3.131,-0.984,0
3.132,0.298,0
3.133,1.397,0
3.134,4.693,0
3.135,5.608,0
3.136,4.693,0
3.137,3.96,0
3.138,7.805,0
3.139,4.51,0
3.14,8.904,0
3.141,7.256,0
3.142,5.974,0
3.143,7.256,0
3.144,9.27,0
3.145,10.369,0
3.146,7.073,0
3.147,5.974,0
3.148,3.411,0
3.149,1.58,0
3.15,4.876,0
3.151,1.763,0
3.152,1.397,0
3.153,-1.167,0
3.154,2.862,0
3.155,4.143,0
3.156,2.862,0
3.157,0.115,0
3.158,1.946,0
3.159,3.777,0
3.16,-0.801,0
3.161,2.495,0
3.162,-0.984,0
3.163,2.129,0
3.164,10.552,0
3.165,29.046,0
3.166,47.722,0
3.167,64.568,0
3.168,49.187,0
3.169,18.975,0
3.17,-28.633,0
3.171,-34.858,0
3.172,-40.534,0
3.173,-45.661,0
3.174,-40.901,0
3.175,-36.689,0
3.176,-24.97,0
3.177,-21.491,0
3.178,-18.379,0
3.179,-9.59,0
3.18,-12.153,0
3.181,-5.012,0
3.182,-7.209,0
3.183,-5.195,0
3.184,-3.364,0
3.185,-1.716,0
3.186,5.791,0
3.187,4.51,0
3.188,7.989,0
3.189,9.087,0
3.19,12.017,0
3.191,7.439,0
3.192,9.82,0
3.193,7.622,0
3.194,8.172,0
3.195,7.622,0
3.196,10.369,0
3.197,7.989,0
3.198,8.355,0
3.199,7.256,0
3.2,2.312,0
3.201,1.763,0
3.202,2.312,0
3.203,-0.434,0
3.204,1.946,0
3.205,2.312,0
3.206,1.946,0
3.207,5.425,0
3.208,6.707,0
3.209,5.608,0
3.21,-0.068,0
3.211,-0.801,0
3.212,-1.533,0
3.213,1.946,0
3.214,-1.35,0
3.215,8.172,0
3.216,28.679,0
3.217,43.511,0
3.218,51.385,0
3.219,63.469,0
3.22,30.327,0
3.221,-2.998,0
3.222,-41.999,0
3.223,-47.126,0
3.224,-42.365,0
3.225,-38.154,0
3.226,-34.309,0
3.227,-30.83,0
3.228,-21.308,0
3.229,-12.519,0
3.23,-9.956,0
3.231,-7.575,0
3.232,-0.984,0
3.233,-2.998,0
3.234,-4.829,0
3.235,-3.181,0
3.236,-1.716,0
3.237,-0.434,0
3.238,10.735,0
3.239,33.257,0
3.24,23.736,0
3.241,3.045,0
3.242,-10.322,0
3.243,-12.702,0
3.244,-14.9,0
3.245,-16.914,0
3.246,-7.759,0
3.247,-9.406,0
3.248,-5.012,0
3.249,-3.73,0
3.25,-0.251,0
3.251,-1.35,0
3.252,1.58,0
3.253,4.326,0
3.254,6.707,0
3.255,7.439,0
3.256,7.989,0
3.257,6.157,0
3.258,3.411,0
3.259,3.777,0
3.26,6.89,0
3.261,5.791,0
3.262,8.355,0
3.263,5.059,0
3.264,1.214,0
3.265,3.228,0
3.266,7.439,0
3.267,15.862,0
3.268,34.356,0
3.269,63.836,0
3.27,28.313,0
3.271,-14.717,0
3.272,-31.928,0
3.273,-37.055,0
3.274,-32.295,0
3.275,-36.506,0
3.276,-32.661,0
3.277,-22.041,0
3.278,-25.154,0
3.279,-16.365,0
3.28,-13.801,0
3.281,-11.421,0
3.282,-4.829,0
3.283,-2.815,0
3.284,-0.984,0
3.285,-5.927,0
3.286,-1.533,0
3.287,2.495,0
3.288,3.594,0
3.289,4.693,0
3.29,5.608,0
3.291,4.693,0
3.292,7.073,0
3.293,9.27,0
3.294,7.439,0
3.295,6.89,0
3.296,9.636,0
3.297,8.355,0
3.298,7.073,0
3.299,5.974,0
3.3,7.805,0
3.301,6.707,0
3.302,6.89,0
3.303,5.059,0
3.304,6.89,0
3.305,7.989,0
3.306,7.805,0
3.307,8.721,0
3.308,8.538,0
3.309,6.524,0
3.31,8.355,0
3.311,3.777,0
3.312,4.326,0
3.313,2.495,0
3.314,0.847,0
3.315,-5.378,0
3.316,-4.096,0
3.317,2.862,0
3.318,18.059,0
3.319,42.412,0
3.32,39.3,0
3.321,66.033,0
3.322,41.131,0
3.323,-1.167,0
3.324,-29.914,0
3.325,-45.478,0
3.326,-50.239,0
3.327,-46.028,0
3.328,-42.182,0
3.329,-38.703,0
3.33,-29.182,0
3.331,-26.252,0
3.332,-18.379,0
3.333,-15.998,0
3.334,-9.406,0
3.335,-3.364,0
3.336,-1.533,0
3.337,0.115,0
3.338,7.622,0
3.339,3.594,0
3.34,2.495,0
3.341,8.172,0
3.342,7.256,0
3.343,13.665,0
3.344,17.693,0
3.345,13.848,0
3.346,15.679,0
3.347,8.721,0
3.348,4.143,0
3.349,6.524,0
3.35,8.721,0
3.351,8.172,0
3.352,8.721,0
3.353,5.974,0
3.354,7.256,0
3.355,3.045,0
3.356,1.397,0
3.357,1.763,0
3.358,2.129,0
3.359,-3.364,0
3.36,3.594,0
3.361,6.341,0
3.362,3.96,0
3.363,4.693,0
3.364,1.397,0
3.365,-1.716,0
3.366,-1.716,0
3.367,1.031,0
3.368,8.538,0
3.369,25.567,0
3.37,32.708,0
3.371,61.455,0
3.372,65.301,0
3.373,25.933,0
3.374,-21.308,0
3.375,-40.168,0
3.376,-45.844,0
3.377,-50.971,0
3.378,-46.211,0
3.379,-41.999,0
3.38,-38.154,0
3.381,-27.534,0
3.382,-24.421,0
3.383,-15.632,0
3.384,-7.759,0
3.385,-5.378,0
3.386,-7.575,0
3.387,-1.533,0
3.388,0.298,0
3.389,5.242,0
3.39,3.777,0
3.391,7.805,0
3.392,8.904,0
3.393,12.2,0
3.394,13.115,0
3.395,8.538,0
3.396,7.805,0
3.397,5.608,0
3.398,6.157,0
3.399,5.608,0
3.4,6.157,0
3.401,7.439,0
3.402,8.721,0
3.403,3.228,0
3.404,1.031,0
3.405,2.862,0
3.406,5.974,0
3.407,3.228,0
3.408,3.594,0
3.409,5.791,0
3.41,7.805,0
3.411,5.242,0
3.412,3.411,0
3.413,3.594,0
3.414,1.031,0
3.415,1.397,0
3.416,0.664,0
3.417,-0.251,0
3.418,-1.533,0
3.419,2.495,0
3.42,10.918,0
3.421,29.412,0
3.422,53.582,0
3.423,44.06,0
3.424,-0.434,0
3.425,-32.112,0
3.426,-37.788,0
3.427,-42.915,0
3.428,-38.154,0
3.429,-33.943,0
3.43,-30.097,0
3.431,-26.618,0
3.432,-23.506,0
3.433,-14.717,0
3.434,-6.843,0
3.435,0.298,0
3.436,6.89,0
3.437,12.932,0
3.438,18.426,0
3.439,29.961,0
3.44,31.426,0
3.441,35.454,0
3.442,29.412,0
3.443,26.116,0
3.444,23.186,0
3.445,12.932,0
3.446,14.214,0
3.447,10.735,0
3.448,0.481,0
3.449,-14.533,0
3.45,-20.576,0
3.451,-26.069,0
3.452,-31.013,0
3.453,-41.45,0
3.454,-40.168,0
3.455,-43.647,0
3.456,-42.549,0
3.457,-41.633,0
3.458,-31.379,0
3.459,-21.858,0
3.46,-27.9,0
3.461,-42.732,0
3.462,-52.802,0
3.463,-69.282,0
3.464,-93.635,0
3.465,-109.75,0
3.466,-118.54,0
3.467,-110.66,0
3.468,-105.72,0
3.469,-103.34,0
3.47,-92.353,0
3.471,-62.141,0
3.472,2.862,0
3.473,68.23,0
3.474,161.43,0
3.475,173.88,0
3.476,162.71,0
3.477,131.95,0
3.478,103.94,0
3.479,95.513,0
3.48,57.061,0
3.481,36.187,0
3.482,42.412,0
3.483,36.736,0
3.484,62.92,0
3.485,86.724,0
3.486,73.906,0
3.487,70.061,0
3.488,73.54,0
3.489,76.653,0
3.49,73.723,0
3.491,65.85,0
3.492,68.23,0
3.493,66.033,0
3.494,72.075,0
3.495,55.596,0
3.496,31.243,0
3.497,21.721,0
3.498,24.651,0
3.499,27.215,0
3.5,24.834,0
3.501,22.637,0
3.502,8.538,0
3.503,-4.28,0
3.504,-5.927,0
3.505,-13.435,0
3.506,-20.21,0
3.507,-19.111,0
3.508,-22.407,0
3.509,-27.351,0
3.51,-37.605,0
3.511,-41.633,0
3.512,-42.732,0
3.513,-46.028,0
3.514,-45.112,0
3.515,-44.197,0
3.516,-44.929,0
3.517,-47.126,0
3.518,-48.957,0
3.519,-47.859,0
3.52,-47.309,0
3.521,-38.886,0
3.522,-20.393,0
3.523,9.087,0
3.524,20.806,0
3.525,-11.421,0
3.526,-41.633,0
3.527,-69.099,0
3.528,-72.578,0
3.529,-75.691,0
3.53,-66.902,0
3.531,-59.028,0
3.532,-56.648,0
3.533,-41.267,0
3.534,-35.224,0
3.535,-29.731,0
3.536,-21.491,0
3.537,-17.097,0
3.538,-10.322,0
3.539,-9.223,0
3.54,-3.547,0
3.541,-0.617,0
3.542,5.791,0
3.543,9.82,0
3.544,12.017,0
3.545,11.468,0
3.546,12.017,0
3.547,14.763,0
3.548,15.13,0
3.549,14.763,0
3.55,15.13,0
3.551,16.961,0
3.552,11.468,0
3.553,12.2,0
3.554,15.496,0
3.555,11.101,0
3.556,10.552,0
3.557,11.834,0
3.558,8.721,0
3.559,9.82,0
3.56,10.186,0
3.561,7.622,0
3.562,9.087,0
3.563,7.256,0
3.564,8.538,0
3.565,5.059,0
3.566,12.566,0
3.567,11.468,0
3.568,8.538,0
3.569,9.453,0
3.57,4.876,0
3.571,2.495,0
3.572,14.031,0
3.573,35.637,0
3.574,56.328,0
3.575,58.892,0
3.576,70.977,0
3.577,37.835,0
3.578,-14.717,0
3.579,-35.591,0
3.58,-41.816,0
3.581,-47.492,0
3.582,-52.619,0
3.583,-38.337,0
3.584,-34.126,0
3.585,-30.281,0
3.586,-19.66,0
3.587,-10.139,0
3.588,-13.069,0
3.589,-5.195,0
3.59,-2.815,0
3.591,3.777,0
3.592,5.791,0
3.593,7.622,0
3.594,9.27,0
3.595,13.665,0
3.596,14.947,0
3.597,13.848,0
3.598,10.552,0
3.599,13.482,0
3.6,12.566,0
3.601,10.186,0
3.602,9.453,0
3.603,10.003,0
3.604,5.608,0
3.605,6.157,0
3.606,7.439,0
3.607,9.636,0
3.608,10.003,0
3.609,8.904,0
3.61,10.003,0
3.611,7.989,0
3.612,7.805,0
3.613,4.876,0
3.614,5.974,0
3.615,4.876,0
3.616,2.129,0
3.617,2.495,0
3.618,5.059,0
3.619,0.481,0
3.62,1.031,0
3.621,1.214,0
3.622,-0.617,0
3.623,7.805,0
3.624,26.299,0
3.625,50.469,0
3.626,72.991,0
3.627,52.3,0
3.628,12.017,0
3.629,-28.266,0
3.63,-43.83,0
3.631,-48.591,0
3.632,-44.38,0
3.633,-40.534,0
3.634,-37.055,0
3.635,-33.943,0
3.636,-25.154,0
3.637,-17.28,0
3.638,-14.9,0
3.639,-8.308,0
3.64,-10.322,0
3.641,-4.829,0
3.642,3.411,0
3.643,7.805,0
3.644,6.524,0
3.645,10.003,0
3.646,6.707,0
3.647,7.622,0
3.648,8.538,0
3.649,6.157,0
3.65,6.89,0
3.651,7.439,0
3.652,6.89,0
3.653,7.439,0
3.654,8.721,0
3.655,7.439,0
3.656,2.862,0
3.657,2.312,0
3.658,2.862,0
3.659,0.481,0
3.66,3.594,0
3.661,1.58,0
3.662,1.946,0
3.663,-0.617,0
3.664,1.397,0
3.665,0.664,0
3.666,1.397,0
3.667,-1.167,0
3.668,1.397,0
3.669,1.214,0
3.67,0.481,0
3.671,-0.251,0
3.672,1.214,0
3.673,-0.984,0
3.674,3.228,0
3.675,12.749,0
3.676,33.257,0
3.677,53.948,0
3.678,51.385,0
3.679,29.412,0
3.68,-15.083,0
3.681,-46.76,0
3.682,-52.436,0
3.683,-57.563,0
3.684,-52.802,0
3.685,-48.591,0
3.686,-36.872,0
3.687,-33.393,0
3.688,-23.872,0
3.689,-20.942,0
3.69,-13.069,0
3.691,-5.927,0
3.692,-3.73,0
3.693,-1.716,0
3.694,3.777,0
3.695,5.425,0
3.696,3.96,0
3.697,7.989,0
3.698,9.087,0
3.699,7.989,0
3.7,7.073,0
3.701,9.82,0
3.702,10.552,0
3.703,9.82,0
3.704,11.651,0
3.705,13.482,0
3.706,12.932,0
3.707,16.228,0
3.708,16.594,0
3.709,15.496,0
3.71,9.82,0
3.711,10.552,0
3.712,9.82,0
3.713,7.989,0
3.714,6.157,0
3.715,8.904,0
3.716,12.2,0
3.717,7.989,0
3.718,6.341,0
3.719,3.045,0
3.72,2.678,0
3.721,3.045,0
3.722,-1.899,0
3.723,-0.251,0
3.724,3.045,0
3.725,-0.068,0
3.726,-2.815,0
3.727,-0.434,0
3.728,-3.547,0
3.729,2.678,0
3.73,16.594,0
3.731,34.722,0
3.732,3.045,0
3.733,-9.773,0
3.734,17.693,0
3.735,35.454,0
3.736,32.342,0
3.737,29.412,0
3.738,31.975,0
3.739,34.356,0
3.74,5.608,0
3.741,-45.661,0
3.742,-66.535,0
3.743,-72.761,0
3.744,-67.085,0
3.745,-61.958,0
3.746,-47.676,0
3.747,-43.464,0
3.748,-31.745,0
3.749,-21.125,0
3.75,-18.012,0
3.751,-9.223,0
3.752,-1.35,0
3.753,1.031,0
3.754,3.228,0
3.755,9.27,0
3.756,11.101,0
3.757,9.453,0
3.758,13.848,0
3.759,15.13,0
3.76,11.651,0
3.761,17.327,0
3.762,18.242,0
3.763,15.496,0
3.764,13.115,0
3.765,12.383,0
3.766,14.214,0
3.767,18.609,0
3.768,14.763,0
3.769,13.482,0
3.77,11.284,0
3.771,9.27,0
3.772,10.369,0
3.773,8.538,0
3.774,7.805,0
3.775,5.059,0
3.776,10.735,0
3.777,23.186,0
3.778,50.652,0
3.779,70.244,0
3.78,66.765,0
3.781,24.468,0
3.782,-15.815,0
3.783,-41.999,0
3.784,-46.76,0
3.785,-50.971,0
3.786,-39.253,0
3.787,-42.732,0
3.788,-33.21,0
3.789,-24.421,0
3.79,-21.858,0
3.791,-14.717,0
3.792,-8.125,0
3.793,-6.111,0
3.794,-0.617,0
3.795,4.326,0
3.796,5.791,0
3.797,7.073,0
3.798,3.594,0
3.799,6.89,0
3.8,3.96,0
3.801,4.876,0
3.802,7.256,0
3.803,6.524,0
3.804,4.693,0
3.805,5.242,0
3.806,4.693,0
3.807,5.974,0
3.808,3.777,0
3.809,3.411,0
3.81,5.974,0
3.811,10.003,0
3.812,6.707,0
3.813,5.425,0
3.814,1.58,0
3.815,4.876,0
3.816,3.594,0
3.817,3.228,0
3.818,-0.251,0
3.819,-3.364,0
3.82,0.481,0
3.821,-0.801,0
3.822,2.312,0
3.823,5.059,0
3.824,5.425,0
3.825,3.411,0
3.826,2.312,0
3.827,6.89,0
3.828,17.144,0
3.829,39.666,0
3.83,55.779,0
3.831,58.709,0
3.832,34.539,0
3.833,-14.167,0
3.834,-35.041,0
3.835,-53.901,0
3.836,-59.577,0
3.837,-54.45,0
3.838,-49.69,0
3.839,-36.872,0
3.84,-33.027,0
3.841,-29.548,0
3.842,-20.027,0
3.843,-11.238,0
3.844,-8.674,0
3.845,-1.533,0
3.846,0.664,0
3.847,6.707,0
3.848,4.876,0
3.849,6.524,0
3.85,2.129,0
3.851,6.157,0
3.852,14.58,0
3.853,11.284,0
3.854,6.341,0
3.855,10.918,0
3.856,10.186,0
3.857,7.989,0
3.858,7.439,0
3.859,6.89,0
3.86,7.439,0
3.861,9.82,0
3.862,8.538,0
3.863,8.904,0
3.864,6.341,0
3.865,6.707,0
3.866,4.693,0
3.867,8.355,0
3.868,5.974,0
3.869,3.777,0
3.87,3.411,0
3.871,3.777,0
3.872,4.876,0
3.873,6.341,0
3.874,6.524,0
3.875,7.805,0
3.876,6.341,0
3.877,3.228,0
3.878,9.453,0
3.879,23.369,0
3.88,49.553,0
3.881,74.456,0
3.882,45.159,0
3.883,-6.111,0
3.884,-26.985,0
3.885,-45.844,0
3.886,-40.168,0
3.887,-45.295,0
3.888,-40.534,0
3.889,-36.323,0
3.89,-32.478,0
3.891,-28.999,0
3.892,-19.477,0
3.893,-16.548,0
3.894,-8.674,0
3.895,-6.294,0
3.896,-4.096,0
3.897,-2.082,0
3.898,-3.913,0
3.899,1.031,0
3.9,2.495,0
3.901,3.777,0
3.902,4.876,0
3.903,8.172,0
3.904,3.228,0
3.905,7.805,0
3.906,2.129,0
3.907,9.087,0
3.908,6.341,0
3.909,7.073,0
3.91,4.876,0
3.911,3.045,0
3.912,6.157,0
3.913,6.707,0
3.914,4.326,0
3.915,4.693,0
3.916,5.791,0
3.917,4.693,0
3.918,5.791,0
3.919,6.524,0
3.92,3.411,0
3.921,7.989,0
3.922,4.876,0
3.923,5.425,0
3.924,4.143,0
3.925,1.031,0
3.926,1.397,0
3.927,1.946,0
3.928,0.847,0
3.929,6.341,0
3.93,8.538,0
3.931,18.792,0
3.932,41.314,0
3.933,38.201,0
3.934,-6.294,0
3.935,-37.971,0
3.936,-43.647,0
3.937,-38.52,0
3.938,-43.281,0
3.939,-39.07,0
3.94,-27.351,0
3.941,-23.872,0
3.942,-20.759,0
3.943,-11.97,0
3.944,-9.406,0
3.945,2.678,0
3.946,-3.913,0
3.947,-1.899,0
3.948,3.594,0
3.949,1.946,0
3.95,6.341,0
3.951,7.622,0
3.952,6.524,0
3.953,7.622,0
3.954,4.693,0
3.955,9.27,0
3.956,8.538,0
3.957,4.693,0
3.958,7.989,0
3.959,11.101,0
3.96,8.355,0
3.961,7.989,0
3.962,6.707,0
3.963,5.608,0
3.964,4.51,0
3.965,7.805,0
3.966,5.059,0
3.967,0.847,0
3.968,4.693,0
3.969,4.326,0
3.97,3.96,0
3.971,6.707,0
3.972,1.031,0
3.973,3.411,0
3.974,5.608,0
3.975,8.904,0
3.976,18.426,0
3.977,27.947,0
3.978,0.481,0
3.979,-7.942,0
3.98,-11.238,0
3.981,-14.167,0
3.982,-0.251,0
3.983,25.933,0
3.984,29.412,0
3.985,32.525,0
3.986,29.595,0
3.987,21.721,0
3.988,19.341,0
3.989,21.538,0
3.99,-4.646,0
3.991,-36.872,0
3.992,-67.085,0
3.993,-63.24,0
3.994,-66.719,0
3.995,-57.197,0
3.996,-48.408,0
3.997,-40.534,0
3.998,-33.393,0
3.999,-22.407,0
4,-12.336,0
4.001,-10.505,0
4.002,-2.265,0
4.003,2.129,0
4.004,0.847,0
4.005,6.89,0
4.006,10.186,0
4.007,13.115,0
4.008,17.693,0
4.009,16.961,0
4.01,14.763,0
4.011,18.059,0
4.012,17.51,0
4.013,16.961,0
4.014,13.665,0
4.015,13.299,0
4.016,12.2,0
4.017,12.566,0
4.018,13.665,0
4.019,11.651,0
4.02,8.538,0
4.021,9.636,0
4.022,10.003,0
4.023,5.974,0
4.024,8.355,0
4.025,8.721,0
4.026,4.876,0
4.027,8.172,0
4.028,5.974,0
4.029,4.143,0
4.03,1.397,0
4.031,7.073,0
4.032,19.524,0
4.033,46.99,0
4.034,66.582,0
4.035,55.962,0
4.036,13.665,0
4.037,-26.618,0
4.038,-42.182,0
4.039,-46.943,0
4.04,-42.732,0
4.041,-38.886,0
4.042,-35.407,0
4.043,-32.295,0
4.044,-29.365,0
4.045,-15.998,0
4.046,-8.857,0
4.047,-6.66,0
4.048,-8.674,0
4.049,-3.181,0
4.05,1.763,0
4.051,3.228,0
4.052,1.946,0
4.053,0.847,0
4.054,1.946,0
4.055,1.031,0
4.056,3.777,0
4.057,4.51,0
4.058,2.312,0
4.059,5.608,0
4.06,6.157,0
4.061,10.003,0
4.062,10.369,0
4.063,8.172,0
4.064,7.073,0
4.065,8.904,0
4.066,10.003,0
4.067,8.538,0
4.068,4.876,0
4.069,8.172,0
4.07,5.974,0
4.071,4.876,0
4.072,3.777,0
4.073,4.876,0
4.074,5.059,0
4.075,4.326,0
4.076,6.157,0
4.077,5.608,0
4.078,4.143,0
4.079,3.228,0
4.08,0.481,0
4.081,3.228,0
4.082,8.904,0
4.083,21.355,0
4.084,48.821,0
4.085,68.413,0
4.086,57.793,0
4.087,9.087,0
4.088,-25.886,0
4.089,-44.746,0
4.09,-50.422,0
4.091,-45.295,0
4.092,-40.534,0
4.093,-36.323,0
4.094,-32.478,0
4.095,-28.999,0
4.096,-19.477,0
4.097,-16.548,0
4.098,-8.674,0
4.099,-6.294,0
4.1,0.298,0
4.101,-1.716,0
4.102,0.115,0
4.103,-1.533,0
4.104,2.862,0
4.105,1.58,0
4.106,7.622,0
4.107,4.326,0
4.108,7.256,0
4.109,6.341,0
4.11,7.073,0
4.111,9.27,0
4.112,5.974,0
4.113,6.524,0
4.114,4.876,0
4.115,4.51,0
4.116,4.876,0
4.117,5.974,0
4.118,4.143,0
4.119,2.312,0
4.12,2.495,0
4.121,5.059,0
4.122,1.763,0
4.123,1.397,0
4.124,1.031,0
4.125,3.594,0
4.126,2.862,0
4.127,2.129,0
4.128,1.397,0
4.129,4.876,0
4.13,2.495,0
4.131,4.143,0
4.132,1.031,0
4.133,7.256,0
4.134,21.172,0
4.135,47.356,0
4.136,65.117,0
4.137,49.004,0
4.138,4.51,0
4.139,-27.168,0
4.14,-44.38,0
4.141,-49.507,0
4.142,-44.746,0
4.143,-40.534,0
4.144,-36.689,0
4.145,-26.069,0
4.146,-22.956,0
4.147,-14.167,0
4.148,-11.604,0
4.149,-9.223,0
4.15,-2.632,0
4.151,-0.617,0
4.152,1.214,0
4.153,-0.434,0
4.154,3.96,0
4.155,5.242,0
4.156,6.341,0
4.157,7.439,0
4.158,6.524,0
4.159,9.27,0
4.16,6.89,0
4.161,4.693,0
4.162,5.242,0
4.163,5.791,0
4.164,7.439,0
4.165,5.059,0
4.166,6.341,0
4.167,5.242,0
4.168,6.341,0
4.169,8.172,0
4.17,5.425,0
4.171,10.369,0
4.172,12.2,0
4.173,14.031,0
4.174,20.257,0
4.175,24.285,0
4.176,26.482,0
4.177,24.651,0
4.178,34.173,0
4.179,30.144,0
4.18,21.721,0
4.181,20.623,0
4.182,17.327,0
4.183,10.369,0
4.184,18.792,0
4.185,33.623,0
4.186,39.666,0
4.187,41.497,0
4.188,29.961,0
4.189,7.439,0
4.19,-41.267,0
4.191,-90.156,0
4.192,-83.93,0
4.193,-78.254,0
4.194,-73.127,0
4.195,-68.366,0
4.196,-72.578,0
4.197,-84.297,0
4.198,-87.776,0
4.199,-97.297,0
4.2,-112.13,0
4.201,-120,0
4.202,-132.09,0
4.203,-138.68,0
4.204,-136.66,0
4.205,-127.51,0
4.206,-112.5,0
4.207,-106.45,0
4.208,-78.987,0
4.209,-51.521,0
4.21,2.129,0
4.211,117.67,0
4.212,167.29,0
4.213,182.31,0
4.214,168.75,0
4.215,156.3,0
4.216,122.61,0
4.217,112.36,0
4.218,121.7,0
4.219,96.428,0
4.22,104.12,0
4.221,124.99,0
4.222,182.31,0
4.223,174.62,0
4.224,153.74,0
4.225,147.51,0
4.226,118.77,0
4.227,103.2,0
4.228,88.921,0
4.229,84.71,0
4.23,65.117,0
4.231,40.215,0
4.232,10.918,0
4.233,7.073,0
4.234,3.228,0
4.235,6.707,0
4.236,22.82,0
4.237,43.511,0
4.238,51.385,0
4.239,34.539,0
4.24,1.397,0
4.241,-60.676,0
4.242,-69.099,0
4.243,-76.789,0
4.244,-83.747,0
4.245,-89.973,0
4.246,-84.297,0
4.247,-79.17,0
4.248,-74.409,0
4.249,-70.198,0
4.25,-74.043,0
4.251,-63.423,0
4.252,-60.31,0
4.253,-57.38,0
4.254,-54.817,0
4.255,-57.197,0
4.256,-59.394,0
4.257,-53.352,0
4.258,-55.183,0
4.259,-43.647,0
4.26,-42.182,0
4.261,-38.154,0
4.262,-34.675,0
4.263,-26.802,0
4.264,-25.886,0
4.265,-23.139,0
4.266,-20.759,0
4.267,-15.449,0
4.268,-10.871,0
4.269,-11.421,0
4.27,-7.575,0
4.271,-4.28,0
4.272,-4.646,0
4.273,-2.632,0
4.274,-0.068,0
4.275,0.298,0
4.276,1.763,0
4.277,5.974,0
4.278,5.425,0
4.279,5.974,0
4.28,6.341,0
4.281,4.143,0
4.282,5.242,0
4.283,10.186,0
4.284,4.143,0
4.285,10.369,0
4.286,21.172,0
4.287,37.652,0
4.288,57.61,0
4.289,81.78,0
4.29,46.074,0
4.291,3.045,0
4.292,-25.703,0
4.293,-30.83,0
4.294,-26.069,0
4.295,-30.281,0
4.296,-26.435,0
4.297,-22.956,0
4.298,-13.435,0
4.299,-16.365,0
4.3,-13.801,0
4.301,-6.66,0
4.302,-0.068,0
4.303,1.946,0
4.304,3.777,0
4.305,5.425,0
4.306,6.89,0
4.307,10.918,0
4.308,9.82,0
4.309,13.115,0
4.31,12.2,0
4.311,5.791,0
4.312,11.468,0
4.313,12.2,0
4.314,11.651,0
4.315,12.2,0
4.316,8.355,0
4.317,10.735,0
4.318,11.101,0
4.319,7.256,0
4.32,5.974,0
4.321,7.256,0
4.322,4.51,0
4.323,7.989,0
4.324,9.27,0
4.325,10.369,0
4.326,6.157,0
4.327,8.904,0
4.328,7.622,0
4.329,4.51,0
4.33,1.763,0
4.331,4.326,0
4.332,1.031,0
4.333,2.129,0
4.334,0.298,0
4.335,4.876,0
4.336,2.312,0
4.337,6.89,0
4.338,17.144,0
4.339,39.666,0
4.34,49.187,0
4.341,57.976,0
4.342,23.003,0
4.343,-0.801,0
4.344,-39.802,0
4.345,-44.929,0
4.346,-40.168,0
4.347,-44.38,0
4.348,-40.534,0
4.349,-37.055,0
4.35,-27.534,0
4.351,-24.604,0
4.352,-16.731,0
4.353,-9.59,0
4.354,-7.392,0
4.355,-9.406,0
4.356,-0.251,0
4.357,1.397,0
4.358,2.862,0
4.359,6.89,0
4.36,7.989,0
4.361,6.89,0
4.362,7.805,0
4.363,8.721,0
4.364,7.989,0
4.365,10.186,0
4.366,10.735,0
4.367,10.186,0
4.368,7.439,0
4.369,6.157,0
4.37,9.27,0
4.371,3.777,0
4.372,4.51,0
4.373,2.678,0
4.374,5.791,0
4.375,7.439,0
4.376,4.143,0
4.377,5.425,0
4.378,2.678,0
4.379,8.355,0
4.38,0.847,0
4.381,3.777,0
4.382,1.031,0
4.383,3.411,0
4.384,-0.434,0
4.385,2.862,0
4.386,3.411,0
4.387,3.96,0
4.388,12.383,0
4.389,30.877,0
4.39,38.75,0
4.391,60.723,0
4.392,57.793,0
4.393,28.313,0
4.394,-22.956,0
4.395,-43.83,0
4.396,-50.056,0
4.397,-44.38,0
4.398,-39.253,0
4.399,-34.492,0
4.4,-38.703,0
4.401,-26.985,0
4.402,-23.506,0
4.403,-20.393,0
4.404,-11.604,0
4.405,-3.73,0
4.406,-6.111,0
4.407,0.481,0
4.408,2.495,0
4.409,0.664,0
4.41,5.608,0
4.411,7.073,0
4.412,8.355,0
4.413,7.256,0
4.414,6.157,0
4.415,7.073,0
4.416,7.989,0
4.417,5.608,0
4.418,3.411,0
4.419,3.96,0
4.42,4.51,0
4.421,8.355,0
4.422,7.073,0
4.423,7.439,0
4.424,8.538,0
4.425,5.974,0
4.426,4.876,0
4.427,6.341,0
4.428,2.678,0
4.429,3.045,0
4.43,3.411,0
4.431,2.312,0
4.432,1.214,0
4.433,3.777,0
4.434,1.763,0
4.435,1.946,0
4.436,-1.533,0
4.437,-2.448,0
4.438,0.664,0
4.439,6.89,0
4.44,20.806,0
4.441,51.018,0
4.442,63.836,0
4.443,12.566,0
4.444,-22.407,0
4.445,-28.633,0
4.446,-34.309,0
4.447,-39.436,0
4.448,-25.154,0
4.449,-29.365,0
4.45,-25.52,0
4.451,-22.041,0
4.452,-18.928,0
4.453,-10.139,0
4.454,-7.575,0
4.455,-5.195,0
4.456,-7.392,0
4.457,-5.378,0
4.458,0.115,0
4.459,1.763,0
4.46,3.228,0
4.461,4.51,0
4.462,3.411,0
4.463,0.115,0
4.464,7.073,0
4.465,9.82,0
4.466,7.439,0
4.467,18.975,0
4.468,37.285,0
4.469,20.44,0
4.47,5.059,0
4.471,-0.984,0
4.472,-6.477,0
4.473,-8.125,0
4.474,-6.66,0
4.475,-5.378,0
4.476,-1.899,0
4.477,-5.195,0
4.478,-4.28,0
4.479,-1.533,0
4.48,-3.913,0
4.481,-3.181,0
4.482,-2.632,0
4.483,0.481,0
4.484,-2.265,0
4.485,0.115,0
4.486,0.481,0
4.487,1.58,0
4.488,1.214,0
4.489,5.425,0
4.49,10.552,0
4.491,20.806,0
4.492,43.328,0
4.493,72.625,0
4.494,37.102,0
4.495,-5.927,0
4.496,-23.139,0
4.497,-28.266,0
4.498,-33.027,0
4.499,-28.816,0
4.5,-24.97,0
4.501,-21.491,0
4.502,-18.379,0
4.503,-15.449,0
4.504,-12.885,0
4.505,-10.505,0
4.506,-8.308,0
4.507,-6.294,0
4.508,-4.463,0
4.509,-2.815,0
4.51,1.58,0
4.511,5.608,0
4.512,6.707,0
4.513,7.805,0
4.514,6.89,0
4.515,4.143,0
4.516,8.172,0
4.517,10.369,0
4.518,9.82,0
4.519,7.989,0
4.52,6.341,0
4.521,3.96,0
4.522,5.242,0
4.523,7.989,0
4.524,7.622,0
4.525,6.524,0
4.526,4.51,0
4.527,3.228,0
4.528,6.157,0
4.529,1.946,0
4.53,5.791,0
4.531,3.411,0
4.532,5.608,0
4.533,6.707,0
4.534,1.763,0
4.535,2.312,0
4.536,-0.801,0
4.537,-1.35,0
4.538,-0.068,0
4.539,0.481,0
4.54,2.678,0
4.541,8.904,0
4.542,22.82,0
4.543,53.032,0
4.544,65.85,0
4.545,38.384,0
4.546,-0.984,0
4.547,-37.605,0
4.548,-42.365,0
4.549,-46.577,0
4.55,-42.732,0
4.551,-39.253,0
4.552,-36.14,0
4.553,-21.308,0
4.554,-18.745,0
4.555,-11.604,0
4.556,-9.406,0
4.557,-7.392,0
4.558,-5.561,0
4.559,-0.617,0
4.56,3.777,0
4.561,5.059,0
4.562,8.538,0
4.563,9.636,0
4.564,8.721,0
4.565,7.805,0
4.566,5.425,0
4.567,0.115,0
4.568,1.946,0
4.569,0.115,0
4.57,1.763,0
4.571,4.143,0
4.572,3.777,0
4.573,2.678,0
4.574,6.89,0
4.575,5.242,0
4.576,5.608,0
4.577,2.495,0
4.578,5.242,0
4.579,4.143,0
4.58,3.045,0
4.581,5.791,0
4.582,3.96,0
4.583,-0.801,0
4.584,-1.35,0
4.585,0.298,0
4.586,1.58,0
4.587,-3.547,0
4.588,-2.998,0
4.589,0.115,0
4.59,-2.448,0
4.591,-1.899,0
4.592,5.608,0
4.593,22.637,0
4.594,49.37,0
4.595,52.849,0
4.596,68.963,0
4.597,30.327,0
4.598,-6.294,0
4.599,-39.619,0
4.6,-43.83,0
4.601,-47.676,0
4.602,-44.197,0
4.603,-34.675,0
4.604,-37.605,0
4.605,-35.041,0
4.606,-27.9,0
4.607,-21.308,0
4.608,-11.238,0
4.609,-5.744,0
4.61,-0.801,0
4.611,-2.265,0
4.612,4.51,0
4.613,3.411,0
4.614,6.707,0
4.615,5.791,0
4.616,8.538,0
4.617,7.805,0
4.618,7.073,0
4.619,10.369,0
4.62,9.82,0
4.621,7.073,0
4.622,8.355,0
4.623,9.636,0
4.624,10.003,0
4.625,8.904,0
4.626,7.073,0
4.627,7.256,0
4.628,9.087,0
4.629,7.256,0
4.63,5.791,0
4.631,5.608,0
4.632,6.89,0
4.633,7.073,0
4.634,6.341,0
4.635,4.326,0
4.636,2.495,0
4.637,3.96,0
4.638,1.397,0
4.639,3.228,0
4.64,4.693,0
4.641,7.805,0
4.642,3.594,0
4.643,13.115,0
4.644,33.623,0
4.645,42.412,0
4.646,66.582,0
4.647,63.469,0
4.648,30.877,0
4.649,-16.731,0
4.65,-48.408,0
4.651,-54.084,0
4.652,-48.957,0
4.653,-53.718,0
4.654,-40.901,0
4.655,-37.055,0
4.656,-26.435,0
4.657,-16.914,0
4.658,-19.844,0
4.659,-17.28,0
4.66,-10.139,0
4.661,-7.942,0
4.662,-1.899,0
4.663,3.594,0
4.664,5.242,0
4.665,3.777,0
4.666,5.059,0
4.667,8.538,0
4.668,11.834,0
4.669,10.918,0
4.67,15.496,0
4.671,13.115,0
4.672,10.918,0
4.673,10.369,0
4.674,5.974,0
4.675,9.82,0
4.676,9.453,0
4.677,11.651,0
4.678,10.552,0
4.679,7.073,0
4.68,4.876,0
4.681,5.974,0
4.682,3.411,0
4.683,1.58,0
4.684,2.312,0
4.685,2.495,0
4.686,1.214,0
4.687,-2.265,0
4.688,0.115,0
4.689,-0.251,0
4.69,-1.35,0
4.691,-5.561,0
4.692,1.214,0
4.693,3.96,0
4.694,11.468,0
4.695,28.496,0
4.696,64.934,0
4.697,70.061,0
4.698,27.031,0
4.699,-13.252,0
4.7,-28.816,0
4.701,-43.098,0
4.702,-38.886,0
4.703,-35.041,0
4.704,-31.562,0
4.705,-28.449,0
4.706,-25.52,0
4.707,-17.646,0
4.708,-10.505,0
4.709,-8.308,0
4.71,-2.265,0
4.711,-4.096,0
4.712,4.143,0
4.713,26.665,0
4.714,36.187,0
4.715,9.453,0
4.716,-1.167,0
4.717,-4.28,0
4.718,-7.209,0
4.719,-4.646,0
4.72,-7.026,0
4.721,-9.223,0
4.722,-7.209,0
4.723,-5.378,0
4.724,-7.026,0
4.725,-2.632,0
4.726,6.89,0
4.727,3.411,0
4.728,9.087,0
4.729,12.017,0
4.73,16.594,0
4.731,14.214,0
4.732,8.904,0
4.733,8.355,0
4.734,5.242,0
4.735,2.495,0
4.736,5.791,0
4.737,3.594,0
4.738,1.58,0
4.739,2.678,0
4.74,5.242,0
4.741,3.228,0
4.742,0.664,0
4.743,-0.251,0
4.744,-2.082,0
4.745,2.495,0
4.746,12.749,0
4.747,35.271,0
4.748,51.385,0
4.749,60.174,0
4.75,19.89,0
4.751,-8.857,0
4.752,-35.041,0
4.753,-49.323,0
4.754,-53.535,0
4.755,-41.816,0
4.756,-45.295,0
4.757,-42.182,0
4.758,-27.351,0
4.759,-19.477,0
4.76,-17.097,0
4.761,-14.9,0
4.762,-4.829,0
4.763,-2.998,0
4.764,-1.35,0
4.765,0.115,0
4.766,1.397,0
4.767,2.495,0
4.768,1.397,0
4.769,2.312,0
4.77,1.397,0
4.771,5.425,0
4.772,4.693,0
4.773,5.242,0
4.774,5.791,0
4.775,6.341,0
4.776,3.96,0
4.777,10.003,0
4.778,15.679,0
4.779,14.947,0
4.78,13.115,0
4.781,8.721,0
4.782,10.369,0
4.783,5.791,0
4.784,5.242,0
4.785,9.087,0
4.786,7.805,0
4.787,9.087,0
4.788,11.101,0
4.789,14.58,0
4.79,13.299,0
4.791,8.721,0
4.792,6.89,0
4.793,-0.434,0
4.794,-0.984,0
4.795,1.946,0
4.796,-4.463,0
4.797,7.989,0
4.798,31.792,0
4.799,47.906,0
4.8,50.835,0
4.801,58.709,0
4.802,41.863,0
4.803,8.721,0
4.804,-43.83,0
4.805,-50.788,0
4.806,-69.648,0
4.807,-52.436,0
4.808,-47.309,0
4.809,-42.549,0
4.81,-29.731,0
4.811,-18.012,0
4.812,-14.533,0
4.813,-11.421,0
4.814,-14.35,0
4.815,-6.477,0
4.816,-4.096,0
4.817,-1.899,0
4.818,0.115,0
4.819,1.946,0
4.82,0.298,0
4.821,4.693,0
4.822,5.974,0
4.823,9.453,0
4.824,10.552,0
4.825,13.482,0
4.826,14.397,0
4.827,13.665,0
4.828,8.355,0
4.829,6.524,0
4.83,5.974,0
4.831,8.721,0
4.832,8.355,0
4.833,9.636,0
4.834,13.482,0
4.835,12.2,0
4.836,12.566,0
4.837,8.721,0
4.838,9.087,0
4.839,8.721,0
4.84,13.299,0
4.841,17.693,0
4.842,16.045,0
4.843,11.468,0
4.844,8.355,0
4.845,8.538,0
4.846,3.411,0
4.847,7.989,0
4.848,17.51,0
4.849,38.018,0
4.85,58.709,0
4.851,50.835,0
4.852,14.397,0
4.853,-22.224,0
4.854,-46.028,0
4.855,-50.239,0
4.856,-54.084,0
4.857,-50.605,0
4.858,-47.492,0
4.859,-38.703,0
4.86,-30.83,0
4.861,-18.745,0
4.862,-12.153,0
4.863,-14.167,0
4.864,-8.674,0
4.865,-3.73,0
4.866,-2.265,0
4.867,-3.547,0
4.868,2.495,0
4.869,-0.801,0
4.87,-1.716,0
4.871,-0.801,0
4.872,4.876,0
4.873,8.721,0
4.874,10.552,0
4.875,11.101,0
4.876,8.355,0
4.877,5.974,0
4.878,8.172,0
4.879,7.073,0
4.88,4.51,0
4.881,7.805,0
4.882,8.904,0
4.883,6.341,0
4.884,4.51,0
4.885,4.693,0
4.886,5.425,0
4.887,1.397,0
4.888,5.242,0
4.889,3.96,0
4.89,7.073,0
4.891,5.059,0
4.892,4.693,0
4.893,6.524,0
4.894,3.228,0
4.895,1.946,0
4.896,2.678,0
4.897,-1.167,0
4.898,6.341,0
4.899,23.369,0
4.9,45.342,0
4.901,54.131,0
4.902,56.695,0
4.903,29.961,0
4.904,-9.406,0
4.905,-46.028,0
4.906,-50.788,0
4.907,-46.577,0
4.908,-50.422,0
4.909,-39.802,0
4.91,-36.689,0
4.911,-27.9,0
4.912,-25.337,0
4.913,-18.196,0
4.914,-11.604,0
4.915,-9.59,0
4.916,-7.759,0
4.917,-2.815,0
4.918,4.693,0
4.919,5.974,0
4.92,7.073,0
4.921,10.369,0
4.922,5.425,0
4.923,10.003,0
4.924,9.27,0
4.925,11.468,0
4.926,12.017,0
4.927,10.186,0
4.928,8.538,0
4.929,7.256,0
4.93,1.214,0
4.931,1.946,0
4.932,7.256,0
4.933,6.707,0
4.934,9.82,0
4.935,14.947,0
4.936,16.778,0
4.937,12.383,0
4.938,16.228,0
4.939,16.594,0
4.94,23.552,0
4.941,32.708,0
4.942,36.187,0
4.943,37.285,0
4.944,34.356,0
4.945,29.778,0
4.946,17.327,0
4.947,12.2,0
4.948,10.369,0
4.949,12.017,0
4.95,13.482,0
4.951,33.99,0
4.952,25.2,0
4.953,-15.083,0
4.954,-67.085,0
4.955,-74.043,0
4.956,-80.268,0
4.957,-63.056,0
4.958,-47.492,0
4.959,-42.732,0
4.96,-46.943,0
4.961,-82.466,0
4.962,-115.79,0
4.963,-128.61,0
4.964,-132.45,0
4.965,-143.07,0
4.966,-152.59,0
4.967,-161.38,0
4.968,-163.95,0
4.969,-151.86,0
4.97,-136.48,0
4.971,-118.35,0
4.972,-81.916,0
4.973,-3.181,0
4.974,75.738,0
4.975,147.51,0
4.976,175.53,0
4.977,167.11,0
4.978,159.42,0
4.979,138.54,0
4.98,132.32,0
4.981,126.64,0
4.982,121.51,0
4.983,135.8,0
4.984,157.4,0
4.985,177,0
4.986,187.62,0
4.987,184.5,0
4.988,175.71,0
4.989,151.54,0
4.99,129.02,0
4.991,120.23,0
4.992,106.86,0
4.993,84.893,0
4.994,52.3,0
4.995,30.694,0
4.996,18.975,0
4.997,15.496,0
4.998,13.665,0
4.999,-2.448,0
5,-5.378,0
5.001,-7.942,0
5.002,8.904,0
5.003,6.707,0
5.004,4.693,0
5.005,6.524,0
5.006,-18.379,0
5.007,-21.858,0
5.008,-24.97,0
5.009,-63.606,0
5.01,-110.85,0
5.011,-129.71,0
5.012,-135.38,0
5.013,-130.26,0
5.014,-115.97,0
5.015,-111.76,0
5.016,-107.92,0
5.017,-104.44,0
5.018,-94.917,0
5.019,-80.085,0
5.02,-77.522,0
5.021,-65.437,0
5.022,-54.45,0
5.023,-44.38,0
5.024,-35.224,0
5.025,-30.281,0
5.026,-25.886,0
5.027,-19.111,0
5.028,-18.012,0
5.029,-14.717,0
5.03,-13.801,0
5.031,-7.392,0
5.032,-6.66,0
5.033,-2.815,0
5.034,-0.984,0
5.035,4.693,0
5.036,2.495,0
5.037,3.045,0
5.038,7.439,0
5.039,7.989,0
5.04,8.355,0
5.041,7.989,0
5.042,12.566,0
5.043,10.735,0
5.044,14.58,0
5.045,10.003,0
5.046,8.172,0
5.047,9.82,0
5.048,9.453,0
5.049,10.003,0
5.05,9.636,0
5.051,15.862,0
5.052,29.778,0
5.053,55.962,0
5.054,66.582,0
5.055,44.06,0
5.056,11.468,0
5.057,-18.745,0
5.058,-30.464,0
5.059,-33.943,0
5.06,-30.83,0
5.061,-27.9,0
5.062,-25.337,0
5.063,-22.956,0
5.064,-20.759,0
5.065,-14.717,0
5.066,-9.223,0
5.067,-4.28,0
5.068,-2.815,0
5.069,6.707,0
5.07,5.608,0
5.071,2.312,0
5.072,9.27,0
5.073,12.017,0
5.074,14.397,0
5.075,18.242,0
5.076,21.538,0
5.077,19.707,0
5.078,16.961,0
5.079,14.58,0
5.08,10.369,0
5.081,9.82,0
5.082,13.115,0
5.083,7.989,0
5.084,7.439,0
5.085,6.89,0
5.086,5.242,0
5.087,6.524,0
5.088,4.326,0
5.089,5.425,0
5.09,4.326,0
5.091,3.228,0
5.092,7.805,0
5.093,5.974,0
5.094,6.524,0
5.095,4.876,0
5.096,0.298,0
5.097,-1.533,0
5.098,-2.082,0
5.099,-5.378,0
5.1,-3.181,0
5.101,-0.068,0
5.102,6.157,0
5.103,20.073,0
5.104,50.286,0
5.105,63.103,0
5.106,66.948,0
5.107,27.581,0
5.108,-9.04,0
5.109,-32.844,0
5.11,-37.055,0
5.111,-33.21,0
5.112,-29.731,0
5.113,-32.844,0
5.114,-29.914,0
5.115,-27.351,0
5.116,-20.21,0
5.117,-18.012,0
5.118,-15.998,0
5.119,-10.505,0
5.12,-8.857,0
5.121,-4.463,0
5.122,-3.181,0
5.123,-4.28,0
5.124,-0.984,0
5.125,1.946,0
5.126,4.693,0
5.127,8.721,0
5.128,10.918,0
5.129,12.749,0
5.13,10.918,0
5.131,10.369,0
5.132,11.651,0
5.133,13.848,0
5.134,14.947,0
5.135,13.848,0
5.136,8.355,0
5.137,4.51,0
5.138,3.96,0
5.139,3.411,0
5.14,0.664,0
5.141,1.946,0
5.142,3.228,0
5.143,7.073,0
5.144,2.495,0
5.145,0.664,0
5.146,-5.561,0
5.147,1.946,0
5.148,-2.998,0
5.149,-3.913,0
5.15,0.115,0
5.151,-2.448,0
5.152,-1.716,0
5.153,8.538,0
5.154,22.088,0
5.155,49.553,0
5.156,69.146,0
5.157,36.919,0
5.158,-2.082,0
5.159,-28.266,0
5.16,-33.027,0
5.161,-28.816,0
5.162,-40.534,0
5.163,-37.055,0
5.164,-33.943,0
5.165,-31.013,0
5.166,-23.139,0
5.167,-25.52,0
5.168,-23.323,0
5.169,-17.28,0
5.17,-11.787,0
5.171,-6.843,0
5.172,-5.378,0
5.173,-1.35,0
5.174,-0.251,0
5.175,7.622,0
5.176,8.538,0
5.177,9.453,0
5.178,10.186,0
5.179,10.918,0
5.18,10.369,0
5.181,13.482,0
5.182,10.735,0
5.183,11.101,0
5.184,10.735,0
5.185,4.51,0
5.186,5.425,0
5.187,4.693,0
5.188,3.96,0
5.189,3.411,0
5.19,0.298,0
5.191,3.045,0
5.192,0.664,0
5.193,3.777,0
5.194,4.876,0
5.195,6.707,0
5.196,4.876,0
5.197,0.298,0
5.198,0.847,0
5.199,0.298,0
5.2,0.847,0
5.201,2.129,0
5.202,2.678,0
5.203,3.045,0
5.204,9.27,0
5.205,23.186,0
5.206,25.2,0
5.207,1.397,0
5.208,4.51,0
5.209,31.243,0
5.21,34.722,0
5.211,37.835,0
5.212,29.046,0
5.213,36.919,0
5.214,24.834,0
5.215,-8.308,0
5.216,-51.338,0
5.217,-68.55,0
5.218,-63.423,0
5.219,-68.183,0
5.22,-55.366,0
5.221,-51.521,0
5.222,-40.901,0
5.223,-31.379,0
5.224,-22.59,0
5.225,-14.717,0
5.226,-7.575,0
5.227,3.411,0
5.228,5.425,0
5.229,7.256,0
5.23,8.904,0
5.231,10.369,0
5.232,11.651,0
5.233,15.13,0
5.234,11.834,0
5.235,14.763,0
5.236,15.679,0
5.237,11.651,0
5.238,12.383,0
5.239,11.834,0
5.24,12.383,0
5.241,9.636,0
5.242,10.918,0
5.243,14.031,0
5.244,14.397,0
5.245,16.228,0
5.246,11.468,0
5.247,8.355,0
5.248,5.608,0
5.249,4.326,0
5.25,0.115,0
5.251,3.96,0
5.252,7.256,0
5.253,4.143,0
5.254,7.256,0
5.255,13.482,0
5.256,27.398,0
5.257,57.61,0
5.258,61.822,0
5.259,57.976,0
5.26,25.75,0
5.261,-21.858,0
5.262,-40.718,0
5.263,-46.394,0
5.264,-41.267,0
5.265,-36.506,0
5.266,-32.295,0
5.267,-36.14,0
5.268,-25.52,0
5.269,-22.407,0
5.27,-13.618,0
5.271,-11.054,0
5.272,-3.913,0
5.273,-1.716,0
5.274,0.298,0
5.275,2.129,0
5.276,3.777,0
5.277,8.172,0
5.278,1.397,0
5.279,0.298,0
5.28,1.397,0
5.281,2.312,0
5.282,8.721,0
5.283,9.453,0
5.284,5.608,0
5.285,3.777,0
5.286,3.228,0
5.287,3.777,0
5.288,2.495,0
5.289,6.707,0
5.29,8.355,0
5.291,7.989,0
5.292,9.27,0
5.293,13.115,0
5.294,7.622,0
5.295,3.777,0
5.296,3.228,0
5.297,1.397,0
5.298,1.946,0
5.299,2.312,0
5.3,0.115,0
5.301,-1.899,0
5.302,-0.801,0
5.303,1.763,0
5.304,-3.181,0
5.305,-2.448,0
5.306,1.763,0
5.307,11.284,0
5.308,31.792,0
5.309,52.483,0
5.31,55.047,0
5.311,28.313,0
5.312,-11.054,0
5.313,-37.239,0
5.314,-51.521,0
5.315,-47.309,0
5.316,-51.155,0
5.317,-40.534,0
5.318,-37.422,0
5.319,-28.633,0
5.32,-26.069,0
5.321,-18.928,0
5.322,-12.336,0
5.323,-2.265,0
5.324,-0.434,0
5.325,1.214,0
5.326,5.608,0
5.327,6.89,0
5.328,10.369,0
5.329,9.27,0
5.33,8.355,0
5.331,7.439,0
5.332,5.059,0
5.333,5.791,0
5.334,5.242,0
5.335,7.073,0
5.336,5.425,0
5.337,3.045,0
5.338,2.678,0
5.339,3.045,0
5.34,6.524,0
5.341,6.89,0
5.342,7.989,0
5.343,4.51,0
5.344,8.721,0
5.345,8.172,0
5.346,1.58,0
5.347,4.326,0
5.348,1.946,0
5.349,5.791,0
5.35,3.96,0
5.351,4.51,0
5.352,5.059,0
5.353,4.693,0
5.354,0.481,0
5.355,4.143,0
5.356,4.693,0
5.357,-2.815,0
5.358,14.214,0
5.359,40.948,0
5.36,44.427,0
5.361,41.314,0
5.362,38.384,0
5.363,35.821,0
5.364,28.679,0
5.365,-4.463,0
5.366,-47.492,0
5.367,-64.704,0
5.368,-69.831,0
5.369,-65.071,0
5.37,-60.859,0
5.371,-49.14,0
5.372,-38.52,0
5.373,-28.999,0
5.374,-14.167,0
5.375,-11.604,0
5.376,-4.463,0
5.377,-2.265,0
5.378,3.777,0
5.379,9.27,0
5.38,10.918,0
5.381,12.383,0
5.382,16.411,0
5.383,17.51,0
5.384,14.214,0
5.385,15.13,0
5.386,14.214,0
5.387,10.186,0
5.388,9.453,0
5.389,7.622,0
5.39,5.791,0
5.391,10.918,0
5.392,7.622,0
5.393,8.172,0
5.394,12.017,0
5.395,7.439,0
5.396,7.989,0
5.397,5.242,0
5.398,9.82,0
5.399,14.214,0
5.4,7.989,0
5.401,7.256,0
5.402,1.946,0
5.403,2.495,0
5.404,0.664,0
5.405,1.214,0
5.406,0.481,0
5.407,1.763,0
5.408,8.721,0
5.409,23.919,0
5.41,48.272,0
5.411,70.794,0
5.412,55.962,0
5.413,15.679,0
5.414,-24.604,0
5.415,-40.168,0
5.416,-44.929,0
5.417,-40.718,0
5.418,-36.872,0
5.419,-33.393,0
5.42,-30.281,0
5.421,-21.491,0
5.422,-18.928,0
5.423,-11.787,0
5.424,-5.195,0
5.425,0.847,0
5.426,2.678,0
5.427,4.326,0
5.428,5.791,0
5.429,1.763,0
5.43,2.862,0
5.431,8.538,0
5.432,9.453,0
5.433,8.538,0
5.434,4.51,0
5.435,3.777,0
5.436,7.073,0
5.437,5.242,0
5.438,3.594,0
5.439,4.876,0
5.44,7.073,0
5.441,8.172,0
5.442,7.073,0
5.443,7.439,0
5.444,5.425,0
5.445,7.256,0
5.446,6.524,0
5.447,6.341,0
5.448,4.876,0
5.449,2.678,0
5.45,6.89,0
5.451,16.411,0
5.452,17.693,0
5.453,-0.801,0
5.454,-14.167,0
5.455,-11.787,0
5.456,-13.984,0
5.457,-11.97,0
5.458,-9.956,0
5.459,6.524,0
5.46,13.115,0
5.461,43.328,0
5.462,64.934,0
5.463,37.469,0
5.464,-16.181,0
5.465,-39.253,0
5.466,-46.211,0
5.467,-39.985,0
5.468,-34.309,0
5.469,-39.436,0
5.47,-25.154,0
5.471,-20.942,0
5.472,-17.097,0
5.473,-13.618,0
5.474,-4.096,0
5.475,-1.167,0
5.476,1.397,0
5.477,-0.984,0
5.478,5.608,0
5.479,3.594,0
5.48,1.763,0
5.481,0.115,0
5.482,4.51,0
5.483,8.538,0
5.484,9.636,0
5.485,8.538,0
5.486,11.468,0
5.487,8.721,0
5.488,9.453,0
5.489,10.186,0
5.49,13.482,0
5.491,14.031,0
5.492,8.904,0
5.493,8.355,0
5.494,5.242,0
5.495,2.495,0
5.496,0.115,0
5.497,-2.082,0
5.498,-4.829,0
5.499,-1.35,0
5.5,-5.561,0
5.501,-3.913,0
5.502,-4.28,0
5.503,-0.068,0
5.504,-0.617,0
5.505,2.678,0
5.506,3.045,0
5.507,7.622,0
5.508,4.876,0
5.509,3.045,0
5.51,4.693,0
5.511,12.2,0
5.512,29.229,0
5.513,51.201,0
5.514,48.272,0
5.515,34.905,0
5.516,12.932,0
5.517,21.721,0
5.518,29.595,0
5.519,-6.843,0
5.52,-54.084,0
5.521,-72.944,0
5.522,-67.268,0
5.523,-62.141,0
5.524,-57.38,0
5.525,-44.563,0
5.526,-32.844,0
5.527,-22.224,0
5.528,-19.111,0
5.529,-16.181,0
5.53,-8.308,0
5.531,-1.167,0
5.532,1.031,0
5.533,3.045,0
5.534,12.2,0
5.535,10.552,0
5.536,12.017,0
5.537,13.299,0
5.538,9.82,0
5.539,15.496,0
5.54,16.411,0
5.541,19.158,0
5.542,16.778,0
5.543,14.58,0
5.544,14.031,0
5.545,15.862,0
5.546,15.313,0
5.547,10.735,0
5.548,8.904,0
5.549,10.552,0
5.55,9.27,0
5.551,7.989,0
5.552,5.974,0
5.553,8.538,0
5.554,5.242,0
5.555,2.495,0
5.556,5.974,0
5.557,9.087,0
5.558,10.186,0
5.559,7.805,0
5.56,3.594,0
5.561,12.017,0
5.562,30.51,0
5.563,49.187,0
5.564,71.16,0
5.565,44.427,0
5.566,5.059,0
5.567,-31.562,0
5.568,-45.844,0
5.569,-50.056,0
5.57,-53.901,0
5.571,-50.422,0
5.572,-40.901,0
5.573,-37.971,0
5.574,-24.604,0
5.575,-22.224,0
5.576,-11.238,0
5.577,-5.195,0
5.578,-3.364,0
5.579,1.58,0
5.58,5.974,0
5.581,7.256,0
5.582,10.735,0
5.583,9.636,0
5.584,6.707,0
5.585,9.453,0
5.586,7.073,0
5.587,4.876,0
5.588,4.326,0
5.589,3.777,0
5.59,7.622,0
5.591,8.904,0
5.592,9.27,0
5.593,8.172,0
5.594,7.805,0
5.595,4.51,0
5.596,2.495,0
5.597,4.326,0
5.598,2.495,0
5.599,3.228,0
5.6,3.411,0
5.601,2.678,0
5.602,1.214,0
5.603,4.143,0
5.604,2.312,0
5.605,1.214,0
5.606,-0.251,0
5.607,0.481,0
5.608,1.214,0
5.609,-0.251,0
5.61,-1.716,0
5.611,0.664,0
5.612,5.242,0
5.613,15.496,0
5.614,38.018,0
5.615,67.315,0
5.616,55.596,0
5.617,9.087,0
5.618,-22.59,0
5.619,-39.802,0
5.62,-44.929,0
5.621,-49.69,0
5.622,-45.478,0
5.623,-41.633,0
5.624,-31.013,0
5.625,-21.491,0
5.626,-18.562,0
5.627,-10.688,0
5.628,-3.547,0
5.629,-5.744,0
5.63,0.298,0
5.631,2.129,0
5.632,3.777,0
5.633,2.312,0
5.634,6.341,0
5.635,7.439,0
5.636,8.538,0
5.637,11.468,0
5.638,16.045,0
5.639,16.778,0
5.64,20.623,0
5.641,22.454,0
5.642,28.13,0
5.643,33.44,0
5.644,38.018,0
5.645,37.469,0
5.646,32.342,0
5.647,27.764,0
5.648,20.806,0
5.649,14.397,0
5.65,13.665,0
5.651,8.355,0
5.652,-1.899,0
5.653,-18.379,0
5.654,-29.365,0
5.655,-31.379,0
5.656,-40.534,0
5.657,-45.478,0
5.658,-44.013,0
5.659,-39.985,0
5.66,-33.943,0
5.661,-28.083,0
5.662,-24.787,0
5.663,-23.872,0
5.664,-32.295,0
5.665,-19.844,0
5.666,-24.787,0
5.667,-47.309,0
5.668,-76.606,0
5.669,-80.451,0
5.67,-98.213,0
5.671,-140.51,0
5.672,-169.26,0
5.673,-184.82,0
5.674,-170.54,0
5.675,-122.93,0
5.676,-65.62,0
5.677,49.92,0
5.678,99.541,0
5.679,144.59,0
5.68,131.03,0
5.681,143.49,0
5.682,132.32,0
5.683,101.56,0
5.684,92.217,0
5.685,83.794,0
5.686,76.104,0
5.687,69.146,0
5.688,100.82,0
5.689,106.5,0
5.69,122.06,0
5.691,136.34,0
5.692,132.13,0
5.693,120.42,0
5.694,123.89,0
5.695,107.78,0
5.696,128.47,0
5.697,131.03,0
5.698,94.597,0
5.699,47.356,0
5.7,28.496,0
5.701,22.82,0
5.702,17.693,0
5.703,12.932,0
5.704,0.115,0
5.705,-3.73,0
5.706,-14.35,0
5.707,-23.872,0
5.708,-26.802,0
5.709,-34.675,0
5.71,-37.055,0
5.711,-39.253,0
5.712,-48.591,0
5.713,-54.634,0
5.714,-41.816,0
5.715,-26.802,0
5.716,-0.617,0
5.717,17.144,0
5.718,7.622,0
5.719,-36.872,0
5.72,-81.184,0
5.721,-98.396,0
5.722,-103.52,0
5.723,-98.762,0
5.724,-94.551,0
5.725,-82.832,0
5.726,-79.353,0
5.727,-69.831,0
5.728,-61.042,0
5.729,-53.169,0
5.73,-41.084,0
5.731,-38.886,0
5.732,-32.844,0
5.733,-31.013,0
5.734,-22.773,0
5.735,-18.379,0
5.736,-14.35,0
5.737,-10.871,0
5.738,-9.773,0
5.739,-4.829,0
5.74,-0.251,0
5.741,3.777,0
5.742,5.974,0
5.743,6.524,0
5.744,9.636,0
5.745,7.989,0
5.746,10.369,0
5.747,11.651,0
5.748,16.228,0
5.749,13.115,0
5.75,12.566,0
5.751,12.2,0
5.752,12.566,0
5.753,9.82,0
5.754,7.989,0
5.755,6.89,0
5.756,8.355,0
5.757,7.073,0
5.758,7.256,0
5.759,10.735,0
5.76,11.101,0
5.761,12.383,0
5.762,6.89,0
5.763,7.073,0
5.764,6.341,0
5.765,16.594,0
5.766,39.116,0
5.767,61.638,0
5.768,82.329,0
5.769,63.653,0
5.77,27.215,0
5.771,-20.027,0
5.772,-38.886,0
5.773,-44.563,0
5.774,-39.436,0
5.775,-34.675,0
5.776,-30.464,0
5.777,-26.618,0
5.778,-23.139,0
5.779,-20.027,0
5.78,-11.238,0
5.781,-3.364,0
5.782,-0.984,0
5.783,1.214,0
5.784,3.228,0
5.785,8.721,0
5.786,7.073,0
5.787,5.608,0
5.788,6.89,0
5.789,10.369,0
5.79,13.665,0
5.791,14.58,0
5.792,13.665,0
5.793,14.397,0
5.794,13.665,0
5.795,11.834,0
5.796,12.383,0
5.797,11.834,0
5.798,8.538,0
5.799,8.904,0
5.8,10.918,0
5.801,5.974,0
5.802,6.524,0
5.803,2.129,0
5.804,1.58,0
5.805,2.862,0
5.806,1.58,0
5.807,4.326,0
5.808,5.425,0
5.809,5.791,0
5.81,1.214,0
5.811,4.51,0
5.812,-1.167,0
5.813,-0.434,0
5.814,-0.251,0
5.815,-0.801,0
5.816,8.721,0
5.817,29.229,0
5.818,73.723,0
5.819,67.498,0
5.82,15.496,0
5.821,-19.477,0
5.822,-25.703,0
5.823,-42.915,0
5.824,-37.788,0
5.825,-33.027,0
5.826,-28.816,0
5.827,-24.97,0
5.828,-21.491,0
5.829,-18.379,0
5.83,-15.449,0
5.831,-7.575,0
5.832,-9.956,0
5.833,-3.364,0
5.834,-1.35,0
5.835,0.481,0
5.836,-1.167,0
5.837,3.228,0
5.838,4.51,0
5.839,5.608,0
5.84,8.904,0
5.841,9.82,0
5.842,12.566,0
5.843,8.538,0
5.844,6.341,0
5.845,6.89,0
5.846,5.059,0
5.847,6.707,0
5.848,6.341,0
5.849,4.143,0
5.85,3.045,0
5.851,4.876,0
5.852,2.312,0
5.853,1.58,0
5.854,1.763,0
5.855,-1.167,0
5.856,3.777,0
5.857,3.228,0
5.858,2.678,0
5.859,-2.448,0
5.86,0.847,0
5.861,3.96,0
5.862,-2.265,0
5.863,0.115,0
5.864,0.847,0
5.865,4.876,0
5.866,1.58,0
5.867,9.82,0
5.868,26.848,0
5.869,53.582,0
5.87,71.343,0
5.871,35.637,0
5.872,2.312,0
5.873,-27.9,0
5.874,-39.619,0
5.875,-43.098,0
5.876,-39.985,0
5.877,-37.055,0
5.878,-29.182,0
5.879,-31.562,0
5.88,-24.97,0
5.881,-18.928,0
5.882,-13.435,0
5.883,-8.491,0
5.884,-7.026,0
5.885,-5.744,0
5.886,-4.646,0
5.887,-1.35,0
5.888,-2.265,0
5.889,2.312,0
5.89,6.341,0
5.891,8.538,0
5.892,10.369,0
5.893,8.538,0
5.894,9.087,0
5.895,6.707,0
5.896,7.073,0
5.897,5.974,0
5.898,4.876,0
5.899,8.172,0
5.9,7.073,0
5.901,4.51,0
5.902,5.608,0
5.903,4.876,0
5.904,5.608,0
5.905,6.89,0
5.906,8.355,0
5.907,5.059,0
5.908,5.425,0
5.909,5.791,0
5.91,6.89,0
5.911,10.186,0
5.912,3.96,0
5.913,4.876,0
5.914,2.495,0
5.915,1.763,0
5.916,6.341,0
5.917,3.045,0
5.918,12.566,0
5.919,33.074,0
5.92,47.906,0
5.921,50.469,0
5.922,62.554,0
5.923,47.173,0
5.924,16.961,0
5.925,-39.436,0
5.926,-47.126,0
5.927,-54.084,0
5.928,-47.859,0
5.929,-42.182,0
5.93,-37.055,0
5.931,-32.295,0
5.932,-28.083,0
5.933,-16.365,0
5.934,-12.885,0
5.935,-9.773,0
5.936,-6.843,0
5.937,-4.28,0
5.938,2.862,0
5.939,0.664,0
5.94,6.707,0
5.941,19.524,0
5.942,37.835,0
5.943,44.976,0
5.944,20.623,0
5.945,4.51,0
5.946,-4.28,0
5.947,-6.843,0
5.948,-4.463,0
5.949,-2.265,0
5.95,-4.28,0
5.951,-6.111,0
5.952,-1.167,0
5.953,-2.632,0
5.954,-1.35,0
5.955,2.129,0
5.956,3.228,0
5.957,6.157,0
5.958,14.58,0
5.959,11.284,0
5.96,10.369,0
5.961,3.96,0
5.962,4.693,0
5.963,8.538,0
5.964,13.115,0
5.965,12.566,0
5.966,8.721,0
5.967,8.538,0
5.968,1.946,0
5.969,8.355,0
5.97,20.806,0
5.971,40.948,0
5.972,54.314,0
5.973,66.399,0
5.974,33.257,0
5.975,-19.294,0
5.976,-40.168,0
5.977,-46.394,0
5.978,-40.718,0
5.979,-45.844,0
5.98,-41.084,0
5.981,-36.872,0
5.982,-33.027,0
5.983,-22.407,0
5.984,-19.294,0
5.985,-10.505,0
5.986,-7.942,0
5.987,-5.561,0
5.988,-3.364,0
5.989,6.707,0
5.99,4.876,0
5.991,-0.068,0
5.992,10.369,0
5.993,14.397,0
5.994,13.299,0
5.995,18.975,0
5.996,18.059,0
5.997,13.482,0
5.998,9.453,0
5.999,7.256,0
6,7.805,0
6.001,4.693,0
6.002,5.242,0
6.003,3.96,0
6.004,-2.082,0
6.005,5.425,0
6.006,6.341,0
6.007,5.425,0
6.008,6.157,0
6.009,2.312,0
6.01,0.481,0
6.011,2.312,0
6.012,-0.434,0
6.013,1.946,0
6.014,1.58,0
6.015,-2.265,0
6.016,-0.984,0
6.017,-0.617,0
6.018,0.481,0
6.019,0.847,0
6.02,0.481,0
6.021,5.974,0
6.022,17.51,0
6.023,42.412,0
6.024,45.891,0
6.025,42.779,0
6.026,33.99,0
6.027,26.116,0
6.028,33.257,0
6.029,0.115,0
6.03,-52.436,0
6.031,-73.31,0
6.032,-79.536,0
6.033,-73.86,0
6.034,-58.296,0
6.035,-53.535,0
6.036,-49.323,0
6.037,-29.731,0
6.038,-26.252,0
6.039,-23.139,0
6.04,-8.308,0
6.041,-0.434,0
6.042,1.946,0
6.043,4.143,0
6.044,10.186,0
6.045,15.679,0
6.046,14.031,0
6.047,15.496,0
6.048,14.214,0
6.049,15.313,0
6.05,16.411,0
6.051,15.496,0
6.052,16.411,0
6.053,12.383,0
6.054,10.186,0
6.055,9.636,0
6.056,6.524,0
6.057,5.974,0
6.058,7.256,0
6.059,8.538,0
6.06,9.636,0
6.061,6.157,0
6.062,7.439,0
6.063,2.862,0
6.064,5.974,0
6.065,2.129,0
6.066,0.847,0
6.067,2.129,0
6.068,1.031,0
6.069,4.143,0
6.07,1.58,0
6.071,7.073,0
6.072,18.609,0
6.073,43.511,0
6.074,75.738,0
6.075,36.736,0
6.076,0.115,0
6.077,-33.21,0
6.078,-37.422,0
6.079,-41.267,0
6.08,-37.788,0
6.081,-40.901,0
6.082,-32.112,0
6.083,-29.548,0
6.084,-22.407,0
6.085,-20.21,0
6.086,-14.167,0
6.087,-5.012,0
6.088,-3.364,0
6.089,1.031,0
6.09,-0.251,0
6.091,5.791,0
6.092,9.087,0
6.093,10.003,0
6.094,7.256,0
6.095,7.989,0
6.096,7.256,0
6.097,9.087,0
6.098,5.974,0
6.099,6.524,0
6.1,5.242,0
6.101,5.608,0
6.102,6.707,0
6.103,4.143,0
6.104,0.847,0
6.105,1.214,0
6.106,3.777,0
6.107,4.876,0
6.108,7.622,0
6.109,3.411,0
6.11,3.96,0
6.111,5.242,0
6.112,4.876,0
6.113,2.129,0
6.114,1.031,0
6.115,1.397,0
6.116,1.214,0
6.117,0.481,0
6.118,4.51,0
6.119,2.862,0
6.12,-0.251,0
6.121,-1.533,0
6.122,5.425,0
6.123,20.623,0
6.124,49.37,0
6.125,61.089,0
6.126,57.61,0
6.127,21.905,0
6.128,-30.647,0
6.129,-37.605,0
6.13,-43.83,0
6.131,-49.507,0
6.132,-44.38,0
6.133,-39.619,0
6.134,-26.802,0
6.135,-22.956,0
6.136,-19.477,0
6.137,-9.956,0
6.138,-7.026,0
6.139,-4.463,0
6.14,2.678,0
6.141,0.481,0
6.142,2.495,0
6.143,4.326,0
6.144,9.27,0
6.145,10.735,0
6.146,6.707,0
6.147,10.186,0
6.148,6.89,0
6.149,5.974,0
6.15,8.721,0
6.151,6.341,0
6.152,4.143,0
6.153,7.439,0
6.154,7.989,0
6.155,2.862,0
6.156,2.312,0
6.157,6.707,0
6.158,6.157,0
6.159,4.876,0
6.16,5.242,0
6.161,4.143,0
6.162,2.312,0
6.163,4.143,0
6.164,1.397,0
6.165,3.228,0
6.166,5.059,0
6.167,3.045,0
6.168,0.481,0
6.169,2.312,0
6.17,1.58,0
6.171,-3.181,0
6.172,-1.35,0
6.173,2.678,0
6.174,11.101,0
6.175,29.595,0
6.176,69.878,0
6.177,41.131,0
6.178,-6.111,0
6.179,-24.97,0
6.18,-42.182,0
6.181,-37.055,0
6.182,-41.816,0
6.183,-37.605,0
6.184,-33.76,0
6.185,-23.139,0
6.186,-13.618,0
6.187,-4.829,0
6.188,24.651,0
6.189,12.932,0
6.19,-4.829,0
6.191,-7.942,0
6.192,-10.871,0
6.193,-13.435,0
6.194,-6.294,0
6.195,-12.885,0
6.196,-2.815,0
6.197,-8.308,0
6.198,-0.068,0
6.199,7.439,0
6.2,0.664,0
6.201,4.143,0
6.202,0.847,0
6.203,3.777,0
6.204,2.862,0
6.205,2.129,0
6.206,1.397,0
6.207,3.228,0
6.208,5.059,0
6.209,4.51,0
6.21,4.143,0
6.211,2.862,0
6.212,3.96,0
6.213,8.172,0
6.214,6.524,0
6.215,6.89,0
6.216,13.848,0
6.217,10.918,0
6.218,8.172,0
6.219,7.439,0
6.22,6.707,0
6.221,6.157,0
6.222,2.678,0
6.223,4.51,0
6.224,8.355,0
6.225,15.862,0
6.226,32.891,0
6.227,64.568,0
6.228,60.357,0
6.229,24.834,0
6.23,-18.196,0
6.231,-35.407,0
6.232,-40.534,0
6.233,-35.774,0
6.234,-39.985,0
6.235,-36.14,0
6.236,-25.52,0
6.237,-22.407,0
6.238,-19.477,0
6.239,-11.604,0
6.24,-9.223,0
6.241,-2.632,0
6.242,-0.617,0
6.243,1.214,0
6.244,6.157,0
6.245,7.622,0
6.246,6.341,0
6.247,7.439,0
6.248,6.341,0
6.249,7.256,0
6.25,4.51,0
6.251,5.242,0
6.252,4.51,0
6.253,5.059,0
6.254,3.228,0
6.255,4.876,0
6.256,6.157,0
6.257,1.031,0
6.258,4.326,0
6.259,6.157,0
6.26,4.51,0
6.261,3.228,0
6.262,0.115,0
6.263,2.129,0
6.264,3.228,0
6.265,-0.068,0
6.266,0.298,0
6.267,0.664,0
6.268,-0.434,0
6.269,-1.899,0
6.27,0.664,0
6.271,0.298,0
6.272,-0.434,0
6.273,1.214,0
6.274,2.495,0
6.275,6.524,0
6.276,14.947,0
6.277,33.44,0
6.278,68.413,0
6.279,35.088,0
6.28,-12.519,0
6.281,-31.379,0
6.282,-37.055,0
6.283,-42.182,0
6.284,-37.422,0
6.285,-33.21,0
6.286,-37.055,0
6.287,-26.435,0
6.288,-23.323,0
6.289,-14.533,0
6.29,-11.97,0
6.291,-4.829,0
6.292,-2.632,0
6.293,-0.617,0
6.294,1.214,0
6.295,2.862,0
6.296,7.256,0
6.297,5.974,0
6.298,7.073,0
6.299,8.172,0
6.3,7.256,0
6.301,8.172,0
6.302,8.904,0
6.303,8.172,0
6.304,7.622,0
6.305,8.172,0
6.306,6.524,0
6.307,5.242,0
6.308,10.369,0
6.309,7.073,0
6.31,7.622,0
6.311,5.974,0
6.312,6.341,0
6.313,-0.617,0
6.314,-1.533,0
6.315,-0.617,0
6.316,-1.35,0
6.317,-2.082,0
6.318,-0.251,0
6.319,1.58,0
6.32,-0.068,0
6.321,-2.448,0
6.322,0.664,0
6.323,1.763,0
6.324,2.678,0
6.325,3.045,0
6.326,8.538,0
6.327,20.073,0
6.328,44.976,0
6.329,77.202,0
6.33,64.385,0
6.331,28.863,0
6.332,-4.463,0
6.333,-17.28,0
6.334,-21.125,0
6.335,-17.646,0
6.336,-14.533,0
6.337,-11.604,0
6.338,-14.167,0
6.339,-16.548,0
6.34,-14.35,0
6.341,-4.28,0
6.342,-17.097,0
6.343,-22.041,0
6.344,-26.435,0
6.345,-27.717,0
6.346,-41.267,0
6.347,-50.422,0
6.348,-48.774,0
6.349,-38.337,0
6.35,-31.562,0
6.351,-28.083,0
6.352,-24.787,0
6.353,-29.731,0
6.354,-43.647,0
6.355,-61.775,0
6.356,-78.62,0
6.357,-89.607,0
6.358,-119.82,0
6.359,-132.64,0
6.36,-128.79,0
6.361,-125.31,0
6.362,-115.79,0
6.363,-107,0
6.364,-93.635,0
6.365,-66.902,0
6.366,-20.393,0
6.367,75.005,0
6.368,143.3,0
6.369,180.66,0
6.37,169.49,0
6.371,159.23,0
6.372,149.9,0
6.373,124.63,0
6.374,101.56,0
6.375,100.09,0
6.376,93.133,0
6.377,99.358,0
6.378,128.11,0
6.379,164.73,0
6.38,169.49,0
6.381,199.7,0
6.382,164.18,0
6.383,111.63,0
6.384,62.737,0
6.385,43.877,0
6.386,26.665,0
6.387,21.538,0
6.388,16.778,0
6.389,-4.829,0
6.39,-16.548,0
6.391,-13.069,0
6.392,-3.547,0
6.393,5.242,0
6.394,-2.632,0
6.395,-14.717,0
6.396,-25.703,0
6.397,-23.689,0
6.398,-36.506,0
6.399,-38.154,0
6.4,-30.647,0
6.401,-31.928,0
6.402,-43.098,0
6.403,-50.605,0
6.404,-46.577,0
6.405,-47.676,0
6.406,-46.577,0
6.407,-49.507,0
6.408,-46.76,0
6.409,-42.732,0
6.41,-49.69,0
6.411,-54.267,0
6.412,-56.648,0
6.413,-54.45,0
6.414,-52.619,0
6.415,-53.169,0
6.416,-48.042,0
6.417,-47.492,0
6.418,-43.098,0
6.419,-42.549,0
6.42,-37.971,0
6.421,-33.576,0
6.422,-27.351,0
6.423,-26.618,0
6.424,-19.66,0
6.425,-18.745,0
6.426,-14.167,0
6.427,-10.139,0
6.428,-10.871,0
6.429,-9.04,0
6.43,-8.491,0
6.431,-5.744,0
6.432,-0.251,0
6.433,8.172,0
6.434,20.623,0
6.435,15.679,0
6.436,-0.801,0
6.437,5.791,0
6.438,23.919,0
6.439,40.764,0
6.44,42.962,0
6.441,57.061,0
6.442,40.581,0
6.443,7.439,0
6.444,-35.591,0
6.445,-52.802,0
6.446,-47.676,0
6.447,-42.915,0
6.448,-38.703,0
6.449,-34.858,0
6.45,-24.238,0
6.451,-21.125,0
6.452,-12.336,0
6.453,-4.463,0
6.454,-2.082,0
6.455,4.51,0
6.456,10.552,0
6.457,12.383,0
6.458,14.031,0
6.459,15.496,0
6.46,19.524,0
6.461,20.623,0
6.462,17.327,0
6.463,18.242,0
6.464,17.327,0
6.465,14.947,0
6.466,14.214,0
6.467,16.045,0
6.468,17.876,0
6.469,14.031,0
6.47,15.313,0
6.471,11.101,0
6.472,14.947,0
6.473,14.58,0
6.474,12.383,0
6.475,9.636,0
6.476,10.735,0
6.477,10.003,0
6.478,10.369,0
6.479,13.665,0
6.48,20.623,0
6.481,35.821,0
6.482,64.568,0
6.483,76.287,0
6.484,36.919,0
6.485,-10.322,0
6.486,-41.999,0
6.487,-47.676,0
6.488,-52.802,0
6.489,-38.52,0
6.49,-34.309,0
6.491,-30.464,0
6.492,-26.985,0
6.493,-23.872,0
6.494,-15.083,0
6.495,-12.519,0
6.496,-5.378,0
6.497,-7.575,0
6.498,-5.561,0
6.499,-0.068,0
6.5,1.58,0
6.501,3.045,0
6.502,7.073,0
6.503,8.172,0
6.504,9.27,0
6.505,10.186,0
6.506,9.27,0
6.507,10.003,0
6.508,12.2,0
6.509,10.369,0
6.51,9.82,0
6.511,8.172,0
6.512,7.805,0
6.513,10.003,0
6.514,4.51,0
6.515,3.777,0
6.516,4.326,0
6.517,3.777,0
6.518,-0.068,0
6.519,3.228,0
6.52,3.594,0
6.521,4.693,0
6.522,1.214,0
6.523,6.341,0
6.524,1.763,0
6.525,1.214,0
6.526,3.96,0
6.527,1.58,0
6.528,1.214,0
6.529,-0.984,0
6.53,5.242,0
6.531,19.158,0
6.532,49.37,0
6.533,62.188,0
6.534,26.665,0
6.535,-16.365,0
6.536,-33.576,0
6.537,-38.703,0
6.538,-43.464,0
6.539,-30.647,0
6.54,-26.802,0
6.541,-23.323,0
6.542,-20.21,0
6.543,-17.28,0
6.544,-9.406,0
6.545,-11.787,0
6.546,-9.59,0
6.547,-3.547,0
6.548,-1.716,0
6.549,-0.068,0
6.55,-1.533,0
6.551,2.495,0
6.552,1.397,0
6.553,4.693,0
6.554,1.763,0
6.555,6.341,0
6.556,7.073,0
6.557,6.341,0
6.558,8.172,0
6.559,8.721,0
6.56,8.172,0
6.561,6.89,0
6.562,3.777,0
6.563,3.411,0
6.564,5.974,0
6.565,4.876,0
6.566,0.298,0
6.567,2.129,0
6.568,1.58,0
6.569,3.228,0
6.57,0.847,0
6.571,2.129,0
6.572,1.763,0
6.573,1.397,0
6.574,-1.899,0
6.575,1.946,0
6.576,2.312,0
6.577,1.031,0
6.578,3.777,0
6.579,4.876,0
6.58,6.707,0
6.581,12.2,0
6.582,23.736,0
6.583,48.638,0
6.584,52.117,0
6.585,55.23,0
6.586,28.496,0
6.587,-10.871,0
6.588,-37.055,0
6.589,-51.338,0
6.59,-47.126,0
6.591,-50.971,0
6.592,-40.351,0
6.593,-37.239,0
6.594,-28.449,0
6.595,-25.886,0
6.596,-18.745,0
6.597,-16.548,0
6.598,-10.505,0
6.599,-5.012,0
6.6,-3.364,0
6.601,1.031,0
6.602,5.059,0
6.603,3.96,0
6.604,2.862,0
6.605,9.82,0
6.606,12.566,0
6.607,11.834,0
6.608,12.566,0
6.609,14.397,0
6.61,11.284,0
6.611,9.636,0
6.612,10.003,0
6.613,10.369,0
6.614,7.622,0
6.615,6.524,0
6.616,7.622,0
6.617,6.157,0
6.618,5.425,0
6.619,4.143,0
6.62,1.946,0
6.621,6.157,0
6.622,5.608,0
6.623,6.157,0
6.624,0.664,0
6.625,2.862,0
6.626,2.312,0
6.627,1.763,0
6.628,2.312,0
6.629,2.678,0
6.63,1.214,0
6.631,-0.068,0
6.632,6.157,0
6.633,20.073,0
6.634,50.286,0
6.635,46.074,0
6.636,34.356,0
6.637,44.976,0
6.638,54.497,0
6.639,15.862,0
6.64,-31.379,0
6.641,-50.239,0
6.642,-55.915,0
6.643,-61.042,0
6.644,-46.76,0
6.645,-50.971,0
6.646,-39.253,0
6.647,-35.774,0
6.648,-26.252,0
6.649,-17.463,0
6.65,-9.59,0
6.651,-7.209,0
6.652,-5.012,0
6.653,1.031,0
6.654,2.862,0
6.655,4.51,0
6.656,5.974,0
6.657,10.003,0
6.658,13.482,0
6.659,12.383,0
6.66,13.299,0
6.661,16.045,0
6.662,13.665,0
6.663,14.397,0
6.664,9.82,0
6.665,11.651,0
6.666,11.101,0
6.667,10.735,0
6.668,12.932,0
6.669,10.918,0
6.67,5.974,0
6.671,5.425,0
6.672,4.876,0
6.673,7.622,0
6.674,5.242,0
6.675,7.439,0
6.676,5.425,0
6.677,5.059,0
6.678,2.495,0
6.679,7.073,0
6.68,17.327,0
6.681,-2.448,0
6.682,-15.998,0
6.683,-10.505,0
6.684,-8.857,0
6.685,13.665,0
6.686,29.778,0
6.687,50.469,0
6.688,58.343,0
6.689,21.905,0
6.69,-25.337,0
6.691,-44.197,0
6.692,-49.873,0
6.693,-55,0
6.694,-50.239,0
6.695,-37.422,0
6.696,-33.576,0
6.697,-30.097,0
6.698,-20.576,0
6.699,-11.787,0
6.7,-9.223,0
6.701,-6.843,0
6.702,-4.646,0
6.703,-2.632,0
6.704,2.862,0
6.705,7.805,0
6.706,6.341,0
6.707,5.059,0
6.708,11.101,0
6.709,10.003,0
6.71,10.918,0
6.711,8.172,0
6.712,13.848,0
6.713,11.651,0
6.714,11.101,0
6.715,7.989,0
6.716,8.538,0
6.717,8.904,0
6.718,10.186,0
6.719,8.172,0
6.72,8.538,0
6.721,6.707,0
6.722,4.693,0
6.723,4.876,0
6.724,6.157,0
6.725,3.594,0
6.726,3.228,0
6.727,-0.068,0
6.728,-1.35,0
6.729,-0.251,0
6.73,0.847,0
6.731,1.214,0
6.732,-0.984,0
6.733,1.031,0
6.734,4.143,0
6.735,10.369,0
6.736,24.285,0
6.737,54.497,0
6.738,58.709,0
6.739,31.243,0
6.74,-22.407,0
6.741,-30.097,0
6.742,-37.055,0
6.743,-43.281,0
6.744,-48.957,0
6.745,-43.83,0
6.746,-39.07,0
6.747,-26.252,0
6.748,-22.407,0
6.749,-11.787,0
6.75,-14.9,0
6.751,-6.111,0
6.752,-8.674,0
6.753,-1.533,0
6.754,5.059,0
6.755,3.045,0
6.756,8.538,0
6.757,10.186,0
6.758,8.721,0
6.759,7.439,0
6.76,8.538,0
6.761,7.439,0
6.762,6.524,0
6.763,7.439,0
6.764,8.172,0
6.765,4.326,0
6.766,6.157,0
6.767,3.045,0
6.768,6.89,0
6.769,4.51,0
6.77,6.707,0
6.771,5.608,0
6.772,3.777,0
6.773,6.341,0
6.774,6.524,0
6.775,6.341,0
6.776,5.059,0
6.777,1.946,0
6.778,3.96,0
6.779,2.862,0
6.78,1.031,0
6.781,1.214,0
6.782,1.397,0
6.783,-1.716,0
6.784,2.312,0
6.785,10.735,0
6.786,29.229,0
6.787,42.595,0
6.788,49.737,0
6.789,43.145,0
6.79,29.046,0
6.791,41.863,0
6.792,36.919,0
6.793,14.397,0
6.794,-34.309,0
6.795,-69.282,0
6.796,-75.508,0
6.797,-69.831,0
6.798,-64.704,0
6.799,-50.422,0
6.8,-37.605,0
6.801,-33.76,0
6.802,-23.139,0
6.803,-13.618,0
6.804,-4.829,0
6.805,-2.265,0
6.806,4.876,0
6.807,2.678,0
6.808,8.721,0
6.809,10.552,0
6.81,8.904,0
6.811,10.369,0
6.812,11.651,0
6.813,8.172,0
6.814,13.848,0
6.815,12.932,0
6.816,15.679,0
6.817,11.651,0
6.818,12.383,0
6.819,9.087,0
6.82,12.2,0
6.821,9.453,0
6.822,9.82,0
6.823,11.101,0
6.824,12.2,0
6.825,10.369,0
6.826,8.538,0
6.827,6.524,0
6.828,4.693,0
6.829,3.96,0
6.83,7.073,0
6.831,5.059,0
6.832,3.228,0
6.833,1.397,0
6.834,2.678,0
6.835,-0.068,0
6.836,5.608,0
6.837,18.059,0
6.838,45.525,0
6.839,57.244,0
6.84,53.765,0
6.841,31.243,0
6.842,-13.252,0
6.843,-44.929,0
6.844,-50.605,0
6.845,-55.732,0
6.846,-50.971,0
6.847,-46.76,0
6.848,-42.915,0
6.849,-32.295,0
6.85,-22.773,0
6.851,-19.844,0
6.852,-17.28,0
6.853,-10.139,0
6.854,-3.547,0
6.855,2.495,0
6.856,4.326,0
6.857,5.974,0
6.858,4.51,0
6.859,8.538,0
6.86,9.636,0
6.861,6.341,0
6.862,7.256,0
6.863,6.341,0
6.864,8.721,0
6.865,7.989,0
6.866,9.82,0
6.867,2.862,0
6.868,5.608,0
6.869,7.989,0
6.87,10.186,0
6.871,8.355,0
6.872,3.96,0
6.873,2.312,0
6.874,5.608,0
6.875,5.974,0
6.876,7.073,0
6.877,5.974,0
6.878,3.411,0
6.879,1.397,0
6.88,0.664,0
6.881,1.397,0
6.882,2.862,0
6.883,1.397,0
6.884,0.481,0
6.885,-2.448,0
6.886,0.298,0
6.887,5.974,0
6.888,18.426,0
6.889,45.891,0
6.89,65.484,0
6.891,33.257,0
6.892,-14.35,0
6.893,-33.21,0
6.894,-38.886,0
6.895,-44.013,0
6.896,-39.253,0
6.897,-35.041,0
6.898,-31.196,0
6.899,-27.717,0
6.9,-18.196,0
6.901,-15.266,0
6.902,-12.702,0
6.903,-5.561,0
6.904,-3.364,0
6.905,-1.35,0
6.906,0.481,0
6.907,5.425,0
6.908,3.96,0
6.909,5.242,0
6.91,6.341,0
6.911,5.242,0
6.912,8.172,0
6.913,5.425,0
6.914,7.805,0
6.915,5.608,0
6.916,6.157,0
6.917,4.326,0
6.918,7.073,0
6.919,1.58,0
6.92,5.425,0
6.921,2.129,0
6.922,7.805,0
6.923,17.876,0
6.924,38.384,0
6.925,47.173,0
6.926,12.2,0
6.927,-2.082,0
6.928,-6.294,0
6.929,-18.012,0
6.93,-7.392,0
6.931,-10.505,0
6.932,-13.435,0
6.933,-10.871,0
6.934,-13.252,0
6.935,-11.054,0
6.936,-6.111,0
6.937,-4.096,0
6.938,16.045,0
6.939,23.919,0
6.94,60.357,0
6.941,75.921,0
6.942,42.595,0
6.943,-5.012,0
6.944,-23.872,0
6.945,-41.084,0
6.946,-35.957,0
6.947,-40.718,0
6.948,-36.506,0
6.949,-24.787,0
6.95,-21.308,0
6.951,-18.196,0
6.952,-15.266,0
6.953,-12.702,0
6.954,-10.322,0
6.955,-3.73,0
6.956,-1.716,0
6.957,3.777,0
6.958,8.721,0
6.959,10.186,0
6.96,11.468,0
6.961,12.566,0
6.962,9.27,0
6.963,10.186,0
6.964,9.27,0
6.965,10.003,0
6.966,7.805,0
6.967,5.974,0
6.968,5.425,0
6.969,7.073,0
6.97,6.707,0
6.971,8.904,0
6.972,11.651,0
6.973,5.974,0
6.974,8.355,0
6.975,6.157,0
6.976,7.989,0
6.977,7.439,0
6.978,4.693,0
6.979,1.397,0
6.98,2.678,0
6.981,6.524,0
6.982,7.805,0
6.983,4.693,0
6.984,0.847,0
6.985,2.129,0
6.986,-0.984,0
6.987,1.946,0
6.988,3.045,0
6.989,8.721,0
6.99,21.172,0
6.991,48.638,0
6.992,68.23,0
6.993,50.469,0
6.994,8.172,0
6.995,-32.112,0
6.996,-47.676,0
6.997,-52.436,0
6.998,-48.225,0
6.999,-44.38,0
7,-40.901,0
7.001,-31.379,0
7.002,-28.449,0
7.003,-20.576,0
7.004,-18.196,0
7.005,-11.604,0
7.006,-5.561,0
7.007,-0.068,0
7.008,-1.716,0
7.009,5.791,0
7.01,1.763,0
7.011,5.242,0
7.012,6.341,0
7.013,3.411,0
7.014,4.326,0
7.015,8.355,0
7.016,7.622,0
7.017,5.791,0
7.018,6.341,0
7.019,9.087,0
7.02,10.369,0
7.021,9.087,0
7.022,5.242,0
7.023,8.538,0
7.024,10.735,0
7.025,5.242,0
7.026,5.974,0
7.027,1.397,0
7.028,3.228,0
7.029,1.58,0
7.03,2.862,0
7.031,1.58,0
7.032,0.481,0
7.033,-2.082,0
7.034,-0.251,0
7.035,-2.998,0
7.036,0.481,0
7.037,3.594,0
7.038,4.143,0
7.039,3.045,0
7.04,8.721,0
7.041,21.172,0
7.042,48.638,0
7.043,52.483,0
7.044,70.244,0
7.045,40.948,0
7.046,-10.322,0
7.047,-31.196,0
7.048,-50.056,0
7.049,-55.732,0
7.05,-50.605,0
7.051,-45.844,0
7.052,-41.633,0
7.053,-37.788,0
7.054,-27.168,0
7.055,-17.646,0
7.056,-14.717,0
7.057,-6.843,0
7.058,-4.463,0
7.059,2.129,0
7.06,4.143,0
7.061,5.974,0
7.062,4.326,0
7.063,5.791,0
7.064,9.82,0
7.065,8.721,0
7.066,7.622,0
7.067,10.552,0
7.068,9.636,0
7.069,10.369,0
7.07,9.636,0
7.071,12.932,0
7.072,13.482,0
7.073,17.327,0
7.074,22.82,0
7.075,23.552,0
7.076,25.384,0
7.077,28.496,0
7.078,32.342,0
7.079,34.722,0
7.08,34.356,0
7.081,28.13,0
7.082,23.552,0
7.083,17.876,0
7.084,10.918,0
7.085,10.003,0
7.086,2.495,0
7.087,-12.702,0
7.088,-23.689,0
7.089,-33.943,0
7.09,-44.013,0
7.091,-34.858,0
7.092,-16.548,0
7.093,-4.463,0
7.094,24.285,0
7.095,28.13,0
7.096,-18.379,0
7.097,-75.691,0
7.098,-114.14,0
7.099,-135.02,0
7.1,-153.88,0
7.101,-171.09,0
7.102,-165.96,0
7.103,-170.72,0
7.104,-183.54,0
7.105,-171.82,0
7.106,-146.92,0
7.107,-117.62,0
7.108,-105.9,0
7.109,-73.677,0
7.11,-17.28,0
7.111,67.498,0
7.112,146.42,0
7.113,177.18,0
7.114,186.52,0
7.115,161.25,0
7.116,153.56,0
7.117,132.68,0
7.118,138.91,0
7.119,133.23,0
7.12,128.11,0
7.121,142.39,0
7.122,163.99,0
7.123,183.59,0
7.124,187.07,0
7.125,177.54,0
7.126,168.75,0
7.127,139.28,0
7.128,119.68,0
7.129,116.2,0
7.13,86.907,0
7.131,59.441,0
7.132,34.539,0
7.133,18.426,0
7.134,15.496,0
7.135,7.622,0
7.136,0.481,0
7.137,-10.505,0
7.138,-20.576,0
7.139,-26.069,0
7.14,-33.21,0
7.141,-41.45,0
7.142,-37.055,0
7.143,-16.548,0
7.144,-13.618,0
7.145,-11.054,0
7.146,-3.913,0
7.147,-37.055,0
7.148,-80.085,0
7.149,-108.83,0
7.15,-113.96,0
7.151,-118.72,0
7.152,-114.51,0
7.153,-110.66,0
7.154,-107.19,0
7.155,-97.663,0
7.156,-88.874,0
7.157,-81.001,0
7.158,-73.86,0
7.159,-67.268,0
7.16,-57.197,0
7.161,-48.042,0
7.162,-43.098,0
7.163,-35.591,0
7.164,-31.562,0
7.165,-25.52,0
7.166,-19.844,0
7.167,-16.914,0
7.168,-12.336,0
7.169,0.115,0
7.17,27.581,0
7.171,31.426,0
7.172,6.524,0
7.173,-2.998,0
7.174,-5.927,0
7.175,-8.491,0
7.176,-6.111,0
7.177,-3.913,0
7.178,-5.927,0
7.179,-0.434,0
7.18,1.214,0
7.181,2.678,0
7.182,3.96,0
7.183,5.059,0
7.184,6.157,0
7.185,9.087,0
7.186,10.003,0
7.187,7.622,0
7.188,12.932,0
7.189,13.482,0
7.19,14.031,0
7.191,15.13,0
7.192,15.679,0
7.193,23.186,0
7.194,40.215,0
7.195,47.356,0
7.196,67.315,0
7.197,75.188,0
7.198,38.75,0
7.199,-8.491,0
7.2,-27.351,0
7.201,-44.563,0
7.202,-39.436,0
7.203,-34.675,0
7.204,-30.464,0
7.205,-26.618,0
7.206,-15.998,0
7.207,-12.885,0
7.208,-9.956,0
7.209,-2.082,0
7.21,-4.463,0
7.211,2.129,0
7.212,4.143,0
7.213,5.974,0
7.214,4.326,0
7.215,11.834,0
7.216,10.552,0
7.217,14.031,0
7.218,12.932,0
7.219,12.017,0
7.22,14.763,0
7.221,14.031,0
7.222,11.834,0
7.223,11.284,0
7.224,11.834,0
7.225,12.383,0
7.226,12.017,0
7.227,8.904,0
7.228,11.651,0
7.229,8.172,0
7.23,7.805,0
7.231,3.96,0
7.232,4.326,0
7.233,4.693,0
7.234,2.678,0
7.235,4.51,0
7.236,4.143,0
7.237,4.326,0
7.238,6.157,0
7.239,3.228,0
7.24,4.326,0
7.241,4.693,0
7.242,6.341,0
7.243,3.045,0
7.244,10.003,0
7.245,25.2,0
7.246,49.553,0
7.247,52.666,0
7.248,37.835,0
7.249,2.862,0
7.25,-30.464,0
7.251,-34.675,0
7.252,-46.394,0
7.253,-42.915,0
7.254,-33.393,0
7.255,-30.464,0
7.256,-22.59,0
7.257,-20.21,0
7.258,-18.012,0
7.259,-11.97,0
7.26,-10.139,0
7.261,-5.195,0
7.262,-3.73,0
7.263,-2.448,0
7.264,1.031,0
7.265,8.904,0
7.266,1.946,0
7.267,4.693,0
7.268,3.96,0
7.269,4.693,0
7.27,2.862,0
7.271,7.256,0
7.272,8.904,0
7.273,9.27,0
7.274,7.073,0
7.275,7.439,0
7.276,7.805,0
7.277,4.51,0
7.278,4.143,0
7.279,6.707,0
7.28,2.678,0
7.281,3.045,0
7.282,6.157,0
7.283,3.411,0
7.284,5.242,0
7.285,-0.251,0
7.286,5.059,0
7.287,3.228,0
7.288,1.397,0
7.289,-1.35,0
7.29,4.143,0
7.291,1.946,0
7.292,1.397,0
7.293,-1.716,0
7.294,-2.265,0
7.295,1.58,0
7.296,9.087,0
7.297,26.116,0
7.298,48.089,0
7.299,45.159,0
7.3,58.526,0
7.301,26.848,0
7.302,-12.153,0
7.303,-48.774,0
7.304,-53.535,0
7.305,-57.746,0
7.306,-53.901,0
7.307,-43.281,0
7.308,-40.168,0
7.309,-31.379,0
7.31,-28.816,0
7.311,-21.675,0
7.312,-15.083,0
7.313,-9.04,0
7.314,-10.871,0
7.315,-5.927,0
7.316,1.58,0
7.317,2.862,0
7.318,3.96,0
7.319,7.256,0
7.32,10.186,0
7.321,11.101,0
7.322,11.834,0
7.323,15.679,0
7.324,12.383,0
7.325,10.552,0
7.326,13.299,0
7.327,12.932,0
7.328,9.82,0
7.329,10.918,0
7.33,9.087,0
7.331,5.791,0
7.332,1.946,0
7.333,5.242,0
7.334,3.045,0
7.335,3.411,0
7.336,2.312,0
7.337,3.411,0
7.338,6.157,0
7.339,6.524,0
7.34,5.425,0
7.341,6.157,0
7.342,4.876,0
7.343,1.397,0
7.344,-1.716,0
7.345,-1.35,0
7.346,4.876,0
7.347,18.792,0
7.348,49.004,0
7.349,70.611,0
7.35,35.088,0
7.351,-7.942,0
7.352,-25.154,0
7.353,-30.281,0
7.354,-35.041,0
7.355,-30.83,0
7.356,-34.675,0
7.357,-24.055,0
7.358,-20.942,0
7.359,-18.012,0
7.36,-10.139,0
7.361,-7.759,0
7.362,-5.561,0
7.363,-7.575,0
7.364,-2.082,0
7.365,-0.434,0
7.366,3.96,0
7.367,2.678,0
7.368,3.777,0
7.369,4.876,0
7.37,1.946,0
7.371,6.524,0
7.372,4.143,0
7.373,4.876,0
7.374,8.172,0
7.375,11.284,0
7.376,6.157,0
7.377,6.707,0
7.378,7.256,0
7.379,5.608,0
7.38,1.031,0
7.381,4.143,0
7.382,3.594,0
7.383,2.312,0
7.384,0.115,0
7.385,0.481,0
7.386,2.312,0
7.387,3.411,0
7.388,1.946,0
7.389,3.777,0
7.39,5.059,0
7.391,4.876,0
7.392,1.946,0
7.393,-0.617,0
7.394,1.214,0
7.395,0.481,0
7.396,1.946,0
7.397,-2.265,0
7.398,7.256,0
7.399,27.764,0
7.4,48.455,0
7.401,45.891,0
7.402,48.272,0
7.403,50.469,0
7.404,20.257,0
7.405,-27.351,0
7.406,-46.211,0
7.407,-63.423,0
7.408,-58.296,0
7.409,-44.013,0
7.41,-48.225,0
7.411,-36.506,0
7.412,-33.027,0
7.413,-23.506,0
7.414,-14.717,0
7.415,-1.35,0
7.416,35.088,0
7.417,19.524,0
7.418,-4.28,0
7.419,-8.491,0
7.42,-4.646,0
7.421,-1.167,0
7.422,-4.28,0
7.423,4.51,0
7.424,1.946,0
7.425,9.087,0
7.426,6.89,0
7.427,0.847,0
7.428,6.341,0
7.429,7.989,0
7.43,9.453,0
7.431,5.425,0
7.432,8.904,0
7.433,3.228,0
7.434,6.157,0
7.435,7.073,0
7.436,14.58,0
7.437,11.651,0
7.438,5.242,0
7.439,9.27,0
7.44,7.073,0
7.441,11.651,0
7.442,7.256,0
7.443,5.608,0
7.444,5.974,0
7.445,-0.984,0
7.446,1.946,0
7.447,-0.984,0
7.448,9.27,0
7.449,29.778,0
7.45,56.511,0
7.451,67.132,0
7.452,64.019,0
7.453,19.524,0
7.454,-24.787,0
7.455,-41.999,0
7.456,-36.872,0
7.457,-41.633,0
7.458,-37.422,0
7.459,-33.576,0
7.46,-30.097,0
7.461,-26.985,0
7.462,-18.196,0
7.463,-15.632,0
7.464,-13.252,0
7.465,-6.66,0
7.466,-4.646,0
7.467,-6.477,0
7.468,-1.533,0
7.469,2.862,0
7.47,4.143,0
7.471,5.242,0
7.472,4.143,0
7.473,7.073,0
7.474,6.157,0
7.475,5.425,0
7.476,7.622,0
7.477,8.172,0
7.478,7.622,0
7.479,5.974,0
7.48,6.341,0
7.481,7.622,0
7.482,3.045,0
7.483,2.495,0
7.484,3.045,0
7.485,4.326,0
7.486,3.045,0
7.487,5.059,0
7.488,6.89,0
7.489,3.594,0
7.49,4.693,0
7.491,7.256,0
7.492,3.96,0
7.493,4.326,0
7.494,-0.617,0
7.495,-1.167,0
7.496,-0.617,0
7.497,-0.984,0
7.498,-0.434,0
7.499,6.157,0
7.5,20.073,0
7.501,50.286,0
7.502,71.892,0
7.503,36.37,0
7.504,-6.66,0
7.505,-23.872,0
7.506,-39.436,0
7.507,-44.197,0
7.508,-31.379,0
7.509,-35.224,0
7.51,-24.604,0
7.511,-27.717,0
7.512,-18.928,0
7.513,-16.365,0
7.514,-13.984,0
7.515,-7.392,0
7.516,-5.378,0
7.517,-3.547,0
7.518,1.397,0
7.519,2.862,0
7.52,1.58,0
7.521,7.622,0
7.522,4.326,0
7.523,5.242,0
7.524,7.989,0
7.525,8.721,0
7.526,6.524,0
7.527,3.228,0
7.528,1.397,0
7.529,3.045,0
7.53,3.411,0
7.531,2.129,0
7.532,4.143,0
7.533,4.51,0
7.534,2.678,0
7.535,5.425,0
7.536,5.791,0
7.537,6.157,0
7.538,6.341,0
7.539,4.51,0
7.54,2.129,0
7.541,2.862,0
7.542,4.143,0
7.543,0.664,0
7.544,5.791,0
7.545,3.96,0
7.546,4.51,0
7.547,2.862,0
7.548,-0.251,0
7.549,2.129,0
7.55,-0.068,0
7.551,6.157,0
7.552,20.073,0
7.553,50.286,0
7.554,37.469,0
7.555,-5.927,0
7.556,-23.139,0
7.557,-38.703,0
7.558,-33.943,0
7.559,-38.154,0
7.56,-34.309,0
7.561,-30.83,0
7.562,-27.717,0
7.563,-24.787,0
7.564,-16.914,0
7.565,-9.773,0
7.566,-7.575,0
7.567,-1.533,0
7.568,0.298,0
7.569,1.946,0
7.57,3.411,0
7.571,4.693,0
7.572,10.735,0
7.573,7.439,0
7.574,8.355,0
7.575,7.439,0
7.576,6.707,0
7.577,8.904,0
7.578,4.326,0
7.579,3.777,0
7.58,5.425,0
7.581,5.791,0
7.582,6.157,0
7.583,4.143,0
7.584,5.974,0
7.585,2.678,0
7.586,1.58,0
7.587,3.411,0
7.588,8.172,0
7.589,3.777,0
7.59,5.425,0
7.591,6.707,0
7.592,1.58,0
7.593,1.031,0
7.594,1.58,0
7.595,3.228,0
7.596,-0.068,0
7.597,-0.434,0
7.598,-2.448,0
7.599,-3.181,0
7.6,-0.617,0
7.601,4.876,0
7.602,16.411,0
7.603,41.314,0
7.604,59.075,0
7.605,16.778,0
7.606,-11.97,0
7.607,-27.534,0
7.608,-32.295,0
7.609,-36.506,0
7.61,-32.661,0
7.611,-29.182,0
7.612,-26.069,0
7.613,-23.139,0
7.614,-15.266,0
7.615,-17.646,0
7.616,-6.66,0
7.617,-8.674,0
7.618,-3.181,0
7.619,1.763,0
7.62,6.157,0
7.621,7.439,0
7.622,3.96,0
7.623,7.256,0
7.624,6.341,0
7.625,5.425,0
7.626,3.045,0
7.627,5.242,0
7.628,4.693,0
7.629,6.524,0
7.63,5.974,0
7.631,4.693,0
7.632,3.411,0
7.633,5.425,0
7.634,2.862,0
7.635,3.96,0
7.636,2.495,0
7.637,6.707,0
7.638,2.312,0
7.639,1.763,0
7.64,1.397,0
7.641,7.439,0
7.642,3.411,0
7.643,4.143,0
7.644,0.847,0
7.645,1.397,0
7.646,1.946,0
7.647,-2.632,0
7.648,-5.744,0
7.649,2.678,0
7.65,1.946,0
7.651,0.847,0
7.652,13.299,0
7.653,11.651,0
7.654,10.186,0
7.655,3.411,0
7.656,-0.068,0
7.657,-3.364,0
7.658,-4.28,0
7.659,-3.364,0
7.66,-5.744,0
7.661,5.791,0
7.662,30.694,0
7.663,12.932,0
7.664,-3.181,0
7.665,23.552,0
7.666,48.455,0
7.667,51.568,0
7.668,18.975,0
7.669,-28.633,0
7.67,-47.492,0
7.671,-41.816,0
7.672,-46.943,0
7.673,-42.182,0
7.674,-37.971,0
7.675,-34.126,0
7.676,-23.506,0
7.677,-20.393,0
7.678,-11.604,0
7.679,-9.04,0
7.68,-6.66,0
7.681,-4.463,0
7.682,1.58,0
7.683,3.411,0
7.684,5.059,0
7.685,6.524,0
7.686,7.805,0
7.687,8.904,0
7.688,10.003,0
7.689,12.932,0
7.69,12.017,0
7.691,9.636,0
7.692,8.904,0
7.693,5.608,0
7.694,12.566,0
7.695,6.157,0
7.696,8.538,0
7.697,4.693,0
7.698,5.242,0
7.699,7.073,0
7.7,3.228,0
7.701,7.805,0
7.702,5.425,0
7.703,12.383,0
7.704,27.581,0
7.705,60.723,0
7.706,84.527,0
7.707,45.525,0
7.708,-1.716,0
7.709,-20.576,0
7.71,-37.788,0
7.711,-42.915,0
7.712,-38.154,0
7.713,-33.943,0
7.714,-37.788,0
7.715,-27.168,0
7.716,-24.055,0
7.717,-21.125,0
7.718,-13.252,0
7.719,-10.871,0
7.72,-4.28,0
7.721,1.763,0
7.722,-3.73,0
7.723,1.214,0
7.724,5.608,0
7.725,6.89,0
7.726,5.791,0
7.727,9.087,0
7.728,10.003,0
7.729,5.425,0
7.73,7.805,0
7.731,10.003,0
7.732,9.453,0
7.733,3.777,0
7.734,-1.533,0
7.735,-0.984,0
7.736,2.129,0
7.737,3.777,0
7.738,2.495,0
7.739,4.693,0
7.74,5.791,0
7.741,7.622,0
7.742,12.383,0
7.743,12.932,0
7.744,4.51,0
7.745,3.411,0
7.746,0.115,0
7.747,1.031,0
7.748,-1.716,0
7.749,-0.984,0
7.75,-0.251,0
7.751,1.58,0
7.752,4.143,0
7.753,2.312,0
7.754,10.735,0
7.755,29.229,0
7.756,47.906,0
7.757,55.047,0
7.758,66.033,0
7.759,35.821,0
7.76,-3.181,0
7.761,-39.802,0
7.762,-44.563,0
7.763,-48.774,0
7.764,-44.929,0
7.765,-41.45,0
7.766,-38.337,0
7.767,-35.407,0
7.768,-27.534,0
7.769,-25.154,0
7.77,-14.167,0
7.771,-8.125,0
7.772,-6.294,0
7.773,1.946,0
7.774,3.411,0
7.775,7.439,0
7.776,3.96,0
7.777,5.059,0
7.778,10.003,0
7.779,7.256,0
7.78,11.284,0
7.781,12.017,0
7.782,10.186,0
7.783,5.791,0
7.784,9.636,0
7.785,10.918,0
7.786,5.791,0
7.787,2.495,0
7.788,1.946,0
7.789,3.594,0
7.79,5.974,0
7.791,6.341,0
7.792,6.707,0
7.793,1.031,0
7.794,0.298,0
7.795,1.031,0
7.796,1.58,0
7.797,2.129,0
7.798,-2.998,0
7.799,1.58,0
7.8,2.129,0
7.801,3.777,0
7.802,2.495,0
7.803,3.411,0
7.804,5.608,0
7.805,3.594,0
7.806,9.27,0
7.807,21.721,0
7.808,49.187,0
7.809,53.032,0
7.81,56.511,0
7.811,40.398,0
7.812,-4.096,0
7.813,-48.408,0
7.814,-54.084,0
7.815,-59.211,0
7.816,-54.45,0
7.817,-50.239,0
7.818,-46.394,0
7.819,-42.915,0
7.82,-26.802,0
7.821,-23.872,0
7.822,-15.998,0
7.823,-8.857,0
7.824,-2.265,0
7.825,3.777,0
7.826,5.608,0
7.827,7.256,0
7.828,5.791,0
7.829,12.566,0
7.83,9.087,0
7.831,12.383,0
7.832,11.468,0
7.833,10.552,0
7.834,9.82,0
7.835,12.017,0
7.836,11.468,0
7.837,10.918,0
7.838,12.566,0
7.839,12.2,0
7.84,10.918,0
7.841,12.932,0
7.842,7.989,0
7.843,7.439,0
7.844,4.326,0
7.845,1.58,0
7.846,1.214,0
7.847,3.411,0
7.848,3.777,0
7.849,4.143,0
7.85,5.242,0
7.851,3.228,0
7.852,5.791,0
7.853,11.284,0
7.854,18.059,0
7.855,18.792,0
7.856,29.046,0
7.857,51.568,0
7.858,74.09,0
7.859,77.019,0
7.86,74.456,0
7.861,57.61,0
7.862,51.018,0
7.863,40.948,0
7.864,13.482,0
7.865,-22.041,0
7.866,-65.071,0
7.867,-82.282,0
7.868,-97.846,0
7.869,-102.61,0
7.87,-98.396,0
7.871,-94.551,0
7.872,-83.93,0
7.873,-67.817,0
7.874,-47.126,0
7.875,-39.253,0
7.876,-51.338,0
7.877,-57.929,0
7.878,-68,0
7.879,-91.804,0
7.88,-101.33,0
7.881,-110.11,0
7.882,-112.68,0
7.883,-124.76,0
7.884,-144.72,0
7.885,-136.85,0
7.886,-120,0
7.887,-100.04,0
7.888,-92.17,0
7.889,-60.493,0
7.89,-4.096,0
7.891,80.681,0
7.892,159.6,0
7.893,169.85,0
7.894,179.19,0
7.895,153.92,0
7.896,146.23,0
7.897,139.28,0
7.898,120.42,0
7.899,126.09,0
7.9,131.22,0
7.901,145.5,0
7.902,167.11,0
7.903,186.7,0
7.904,183.22,0
7.905,175.53,0
7.906,172.42,0
7.907,169.49,0
7.908,161.61,0
7.909,125.18,0
7.91,88.555,0
7.911,93.316,0
7.912,89.104,0
7.913,45.708,0
7.914,-6.294,0
7.915,-27.168,0
7.916,-46.028,0
7.917,-63.24,0
7.918,-68.366,0
7.919,-63.606,0
7.92,-76.423,0
7.921,-72.578,0
7.922,-61.958,0
7.923,-65.071,0
7.924,-73.86,0
7.925,-76.423,0
7.926,-69.282,0
7.927,-67.085,0
7.928,-65.071,0
7.929,-70.564,0
7.93,-62.324,0
7.931,-57.929,0
7.932,-59.211,0
7.933,-60.31,0
7.934,-59.211,0
7.935,-62.141,0
7.936,-57.563,0
7.937,-55.183,0
7.938,-51.338,0
7.939,-49.507,0
7.94,-43.83,0
7.941,-39.985,0
7.942,-35.407,0
7.943,-32.295,0
7.944,-29.548,0
7.945,-28.266,0
7.946,-24.055,0
7.947,-17.829,0
7.948,-17.097,0
7.949,-13.252,0
7.95,-13.801,0
7.951,-13.252,0
7.952,-7.026,0
7.953,2.129,0
7.954,1.031,0
7.955,2.129,0
7.956,2.678,0
7.957,5.608,0
7.958,10.186,0
7.959,22.637,0
7.96,50.103,0
7.961,69.695,0
7.962,30.327,0
7.963,-6.294,0
7.964,-20.576,0
7.965,-24.787,0
7.966,-28.633,0
7.967,-32.112,0
7.968,-22.59,0
7.969,-13.801,0
7.97,-11.238,0
7.971,-8.857,0
7.972,-6.66,0
7.973,-0.617,0
7.974,8.538,0
7.975,6.89,0
7.976,8.355,0
7.977,7.073,0
7.978,8.172,0
7.979,9.27,0
7.98,12.2,0
7.981,14.947,0
7.982,14.214,0
7.983,16.411,0
7.984,11.834,0
7.985,10.003,0
7.986,13.848,0
7.987,16.228,0
7.988,14.031,0
7.989,11.284,0
7.99,10.918,0
7.991,14.214,0
7.992,9.636,0
7.993,9.087,0
7.994,6.341,0
7.995,6.707,0
7.996,9.82,0
7.997,5.974,0
7.998,4.693,0
7.999,3.411,0
8,3.777,0
8.001,1.946,0
8.002,3.045,0
8.003,5.791,0
8.004,4.693,0
8.005,5.791,0
8.006,4.326,0
8.007,3.411,0
8.008,7.073,0
8.009,14.58,0
8.01,31.609,0
8.011,68.047,0
8.012,73.174,0
8.013,30.144,0
8.014,-10.139,0
8.015,-36.323,0
8.016,-41.084,0
8.017,-36.872,0
8.018,-40.718,0
8.019,-30.097,0
8.02,-26.985,0
8.021,-24.055,0
8.022,-16.181,0
8.023,-13.801,0
8.024,-7.209,0
8.025,-1.167,0
8.026,-2.998,0
8.027,-1.35,0
8.028,0.115,0
8.029,1.397,0
8.03,4.876,0
8.031,5.974,0
8.032,6.89,0
8.033,5.974,0
8.034,10.003,0
8.035,9.27,0
8.036,9.82,0
8.037,6.707,0
8.038,10.552,0
8.039,5.974,0
8.04,9.087,0
8.041,8.538,0
8.042,9.82,0
8.043,6.707,0
8.044,3.96,0
8.045,2.862,0
8.046,4.693,0
8.047,3.96,0
8.048,7.073,0
8.049,0.847,0
8.05,-0.068,0
8.051,-2.448,0
8.052,1.397,0
8.053,1.946,0
8.054,2.495,0
8.055,0.847,0
8.056,4.143,0
8.057,1.031,0
8.058,-3.181,0
8.059,-2.082,0
8.06,3.594,0
8.061,16.045,0
8.062,43.511,0
8.063,70.977,0
8.064,60.357,0
8.065,11.651,0
8.066,-23.323,0
8.067,-42.182,0
8.068,-47.859,0
8.069,-42.732,0
8.07,-37.971,0
8.071,-33.76,0
8.072,-29.914,0
8.073,-26.435,0
8.074,-23.323,0
8.075,-20.393,0
8.076,-12.519,0
8.077,-10.139,0
8.078,-3.547,0
8.079,-5.561,0
8.08,-0.068,0
8.081,1.58,0
8.082,3.045,0
8.083,7.073,0
8.084,3.594,0
8.085,6.89,0
8.086,9.82,0
8.087,7.073,0
8.088,6.341,0
8.089,5.608,0
8.09,8.904,0
8.091,10.735,0
8.092,4.51,0
8.093,6.89,0
8.094,4.693,0
8.095,2.862,0
8.096,4.693,0
8.097,7.439,0
8.098,4.143,0
8.099,2.862,0
8.1,3.228,0
8.101,1.397,0
8.102,4.693,0
8.103,4.326,0
8.104,-1.35,0
8.105,2.678,0
8.106,-1.167,0
8.107,3.411,0
8.108,3.96,0
8.109,-1.716,0
8.11,-2.265,0
8.111,5.242,0
8.112,22.271,0
8.113,44.243,0
8.114,47.173,0
8.115,65.85,0
8.116,29.412,0
8.117,-17.829,0
8.118,-36.689,0
8.119,-42.365,0
8.12,-47.492,0
8.121,-42.732,0
8.122,-38.52,0
8.123,-34.675,0
8.124,-24.055,0
8.125,-20.942,0
8.126,-12.153,0
8.127,-9.59,0
8.128,-7.209,0
8.129,-5.012,0
8.13,1.031,0
8.131,2.862,0
8.132,4.51,0
8.133,3.045,0
8.134,1.763,0
8.135,5.242,0
8.136,8.538,0
8.137,11.468,0
8.138,12.383,0
8.139,6.707,0
8.14,8.904,0
8.141,9.453,0
8.142,10.003,0
8.143,8.355,0
8.144,11.651,0
8.145,7.439,0
8.146,9.087,0
8.147,7.805,0
8.148,8.172,0
8.149,6.157,0
8.15,7.256,0
8.151,6.89,0
8.152,11.468,0
8.153,21.721,0
8.154,35.271,0
8.155,7.805,0
8.156,-3.913,0
8.157,-14.533,0
8.158,-11.421,0
8.159,-8.491,0
8.16,-8.308,0
8.161,-5.744,0
8.162,6.341,0
8.163,4.143,0
8.164,30.327,0
8.165,40.948,0
8.166,37.835,0
8.167,34.905,0
8.168,21.538,0
8.169,19.158,0
8.17,12.566,0
8.171,10.552,0
8.172,23.369,0
8.173,5.059,0
8.174,-31.379,0
8.175,-68,0
8.176,-82.282,0
8.177,-78.071,0
8.178,-58.479,0
8.179,-55,0
8.18,-45.478,0
8.181,-36.689,0
8.182,-28.816,0
8.183,-21.675,0
8.184,-15.083,0
8.185,-5.012,0
8.186,4.143,0
8.187,9.087,0
8.188,13.482,0
8.189,14.763,0
8.19,18.242,0
8.191,21.538,0
8.192,22.454,0
8.193,19.707,0
8.194,20.44,0
8.195,18.242,0
8.196,21.538,0
8.197,17.144,0
8.198,17.693,0
8.199,17.327,0
8.2,16.961,0
8.201,15.862,0
8.202,14.763,0
8.203,14.397,0
