0,5.252,0
0.001,3.787,0
0.002,7.999,0
0.003,17.52,0
0.004,38.028,0
0.005,58.719,0
0.006,77.396,0
0.007,45.719,0
0.008,24.112,0
0.009,-11.41,0
0.01,-25.693,0
0.011,-38.51,0
0.012,-34.665,0
0.013,-38.144,0
0.014,-35.031,0
0.015,-37.961,0
0.016,-35.397,0
0.017,-33.017,0
0.018,-30.82,0
0.019,-24.777,0
0.02,-19.284,0
0.021,-20.932,0
0.022,-16.537,0
0.023,-15.256,0
0.024,-9.213,0
0.025,-10.312,0
0.026,-7.382,0
0.027,-6.467,0
0.028,-0.79,0
0.029,-1.523,0
0.03,0.308,0
0.031,8.548,0
0.032,7.449,0
0.033,8.365,0
0.034,7.449,0
0.035,6.717,0
0.036,7.449,0
0.037,4.154,0
0.038,4.703,0
0.039,6.351,0
0.04,7.633,0
0.041,7.266,0
0.042,3.421,0
0.043,3.055,0
0.044,3.421,0
0.045,7.266,0
0.046,7.633,0
0.047,7.999,0
0.048,9.097,0
0.049,12.576,0
0.05,9.464,0
0.051,5.985,0
0.052,2.139,0
0.053,9.647,0
0.054,24.478,0
0.055,46.634,0
0.056,61.466,0
0.057,64.029,0
0.058,51.944,0
0.059,23.197,0
0.06,-4.269,0
0.061,-22.031,0
0.062,-31.552,0
0.063,-34.482,0
0.064,-37.045,0
0.065,-34.665,0
0.066,-32.468,0
0.067,-34.482,0
0.068,-32.651,0
0.069,-31.003,0
0.07,-23.495,0
0.071,-19.467,0
0.072,-18.368,0
0.073,-15.073,0
0.074,-14.157,0
0.075,-11.41,0
0.076,-7.382,0
0.077,-6.65,0
0.078,-3.354,0
0.079,1.041,0
0.08,7.266,0
0.081,6.534,0
0.082,10.379,0
0.083,8.548,0
0.084,7.999,0
0.085,6.351,0
0.086,7.633,0
0.087,3.421,0
0.088,6.168,0
0.089,4.886,0
0.09,7.999,0
0.091,8.365,0
0.092,7.999,0
0.093,5.435,0
0.094,3.97,0
0.095,5.802,0
0.096,2.872,0
0.097,7.083,0
0.098,9.83,0
0.099,9.464,0
0.1,6.351,0
0.101,3.604,0
0.102,2.323,0
0.103,0.491,0
0.104,5.985,0
0.105,17.52,0
0.106,42.423,0
0.107,67.325,0
0.108,70.438,0
0.109,49.747,0
0.11,47.183,0
0.111,44.803,0
0.112,24.844,0
0.113,0.675,0
0.114,-28.622,0
0.115,-48.215,0
0.116,-51.694,0
0.117,-61.215,0
0.118,-64.145,0
0.119,-56.271,0
0.12,-58.652,0
0.121,-47.665,0
0.122,-41.623,0
0.123,-39.792,0
0.124,-34.848,0
0.125,-27.341,0
0.126,-20.566,0
0.127,-14.523,0
0.128,-8.847,0
0.129,-3.903,0
0.13,2.506,0
0.131,11.661,0
0.132,30.155,0
0.133,38.028,0
0.134,16.055,0
0.135,7.266,0
0.136,4.703,0
0.137,2.323,0
0.138,0.125,0
0.139,2.139,0
0.14,3.97,0
0.141,-0.973,0
0.142,0.491,0
0.143,-3.537,0
0.144,-4.635,0
0.145,1.041,0
0.146,5.985,0
0.147,1.407,0
0.148,3.787,0
0.149,5.985,0
0.15,5.435,0
0.151,3.604,0
0.152,4.154,0
0.153,6.717,0
0.154,3.421,0
0.155,10.379,0
0.156,25.577,0
0.157,54.324,0
0.158,66.043,0
0.159,76.663,0
0.16,47.366,0
0.161,11.844,0
0.162,-11.96,0
0.163,-24.777,0
0.164,-20.932,0
0.165,-31.552,0
0.166,-28.439,0
0.167,-25.51,0
0.168,-28.073,0
0.169,-30.453,0
0.17,-23.862,0
0.171,-21.847,0
0.172,-20.016,0
0.173,-18.368,0
0.174,-16.904,0
0.175,-12.875,0
0.176,-9.396,0
0.177,-12.692,0
0.178,-3.537,0
0.179,2.506,0
0.18,-3.171,0
0.181,-0.241,0
0.182,6.168,0
0.183,5.435,0
0.184,6.168,0
0.185,5.618,0
0.186,7.449,0
0.187,7.999,0
0.188,9.281,0
0.189,7.999,0
0.19,7.633,0
0.191,5.069,0
0.192,1.041,0
0.193,5.618,0
0.194,6.168,0
0.195,7.816,0
0.196,8.182,0
0.197,3.97,0
0.198,6.717,0
0.199,4.337,0
0.2,2.139,0
0.201,4.886,0
0.202,-0.79,0
0.203,3.238,0
0.204,3.787,0
0.205,-3.171,0
0.206,5.252,0
0.207,22.281,0
0.208,44.254,0
0.209,59.085,0
0.21,66.959,0
0.211,54.874,0
0.212,43.887,0
0.213,33.817,0
0.214,35.648,0
0.215,40.592,0
0.216,36.197,0
0.217,15.689,0
0.218,-28.805,0
0.219,-60.483,0
0.22,-66.159,0
0.221,-71.286,0
0.222,-66.525,0
0.223,-62.314,0
0.224,-58.469,0
0.225,-54.99,0
0.226,-51.877,0
0.227,-37.045,0
0.228,-34.482,0
0.229,-27.341,0
0.23,-20.749,0
0.231,-18.735,0
0.232,-16.904,0
0.233,-5.368,0
0.234,-0.973,0
0.235,0.308,0
0.236,6.351,0
0.237,7.449,0
0.238,10.379,0
0.239,9.464,0
0.24,13.492,0
0.241,14.224,0
0.242,10.928,0
0.243,9.097,0
0.244,14.224,0
0.245,13.675,0
0.246,13.126,0
0.247,11.478,0
0.248,12.76,0
0.249,16.971,0
0.25,13.126,0
0.251,12.76,0
0.252,8.548,0
0.253,9.097,0
0.254,9.464,0
0.255,6.717,0
0.256,8.914,0
0.257,15.14,0
0.258,29.056,0
0.259,51.212,0
0.26,60.001,0
0.261,78.677,0
0.262,66.593,0
0.263,37.845,0
0.264,2.323,0
0.265,-11.96,0
0.266,-24.777,0
0.267,-36.496,0
0.268,-39.975,0
0.269,-36.862,0
0.27,-39.792,0
0.271,-37.228,0
0.272,-34.848,0
0.273,-32.651,0
0.274,-26.608,0
0.275,-24.777,0
0.276,-13.241,0
0.277,-17.636,0
0.278,-10.861,0
0.279,-4.819,0
0.28,-3.72,0
0.281,-6.65,0
0.282,-0.241,0
0.283,0.491,0
0.284,5.802,0
0.285,2.506,0
0.286,6.9,0
0.287,0.675,0
0.288,3.055,0
0.289,6.9,0
0.29,7.449,0
0.291,6.9,0
0.292,6.351,0
0.293,5.069,0
0.294,2.872,0
0.295,9.097,0
0.296,8.182,0
0.297,8.914,0
0.298,6.717,0
0.299,8.548,0
0.3,11.661,0
0.301,10.013,0
0.302,4.52,0
0.303,6.717,0
0.304,4.886,0
0.305,3.055,0
0.306,3.055,0
0.307,3.604,0
0.308,11.112,0
0.309,28.14,0
0.31,59.818,0
0.311,72.635,0
0.312,53.043,0
0.313,49.564,0
0.314,59.085,0
0.315,50.296,0
0.316,15.323,0
0.317,-18.002,0
0.318,-39.609,0
0.319,-51.327,0
0.32,-54.806,0
0.321,-57.919,0
0.322,-54.99,0
0.323,-52.426,0
0.324,-50.046,0
0.325,-39.059,0
0.326,-37.045,0
0.327,-35.214,0
0.328,-26.974,0
0.329,-22.58,0
0.33,-13.058,0
0.331,-14.157,0
0.332,-3.903,0
0.333,0.125,0
0.334,3.604,0
0.335,4.703,0
0.336,5.618,0
0.337,1.041,0
0.338,3.421,0
0.339,4.154,0
0.34,3.604,0
0.341,7.999,0
0.342,6.351,0
0.343,5.985,0
0.344,7.266,0
0.345,10.013,0
0.346,9.647,0
0.347,7.083,0
0.348,7.816,0
0.349,12.027,0
0.35,15.14,0
0.351,12.393,0
0.352,10.013,0
0.353,8.731,0
0.354,4.154,0
0.355,3.604,0
0.356,4.154,0
0.357,5.985,0
0.358,6.351,0
0.359,13.309,0
0.36,28.507,0
0.361,48.465,0
0.362,77.945,0
0.363,74.1,0
0.364,41.873,0
0.365,11.661,0
0.366,-7.931,0
0.367,-18.552,0
0.368,-28.073,0
0.369,-31.003,0
0.37,-33.566,0
0.371,-31.186,0
0.372,-28.989,0
0.373,-31.003,0
0.374,-21.847,0
0.375,-23.495,0
0.376,-19.101,0
0.377,-9.579,0
0.378,3.97,0
0.379,13.126,0
0.38,-5.185,0
0.381,-12.326,0
0.382,-10.129,0
0.383,-16.171,0
0.384,-14.34,0
0.385,-12.692,0
0.386,-8.298,0
0.387,-7.016,0
0.388,-3.537,0
0.389,-0.241,0
0.39,0.675,0
0.391,1.59,0
0.392,0.858,0
0.393,0.125,0
0.394,0.675,0
0.395,-1.156,0
0.396,0.491,0
0.397,1.773,0
0.398,3.055,0
0.399,5.069,0
0.4,6.168,0
0.401,5.069,0
0.402,3.604,0
0.403,4.337,0
0.404,5.069,0
0.405,8.182,0
0.406,6.168,0
0.407,5.069,0
0.408,5.252,0
0.409,5.618,0
0.41,10.196,0
0.411,20.45,0
0.412,42.972,0
0.413,39.859,0
0.414,66.593,0
0.415,77.213,0
0.416,54.691,0
0.417,16.055,0
0.418,-10.129,0
0.419,-24.411,0
0.42,-37.228,0
0.421,-41.073,0
0.422,-44.552,0
0.423,-41.44,0
0.424,-38.51,0
0.425,-35.947,0
0.426,-33.566,0
0.427,-26.974,0
0.428,-24.96,0
0.429,-23.129,0
0.43,-18.185,0
0.431,-10.678,0
0.432,-9.396,0
0.433,-8.298,0
0.434,-5.002,0
0.435,-2.072,0
0.436,-2.988,0
0.437,-0.607,0
0.438,6.351,0
0.439,-0.058,0
0.44,5.618,0
0.441,3.421,0
0.442,2.872,0
0.443,8.548,0
0.444,10.745,0
0.445,8.914,0
0.446,7.083,0
0.447,5.435,0
0.448,8.731,0
0.449,12.943,0
0.45,11.295,0
0.451,7.999,0
0.452,7.633,0
0.453,4.886,0
0.454,7.449,0
0.455,4.886,0
0.456,4.154,0
0.457,5.985,0
0.458,8.365,0
0.459,4.52,0
0.46,2.506,0
0.461,6.717,0
0.462,16.239,0
0.463,36.746,0
0.464,69.339,0
0.465,73.551,0
0.466,53.958,0
0.467,14.591,0
0.468,-11.594,0
0.469,-25.876,0
0.47,-30.087,0
0.471,-33.932,0
0.472,-37.411,0
0.473,-34.299,0
0.474,-31.369,0
0.475,-33.932,0
0.476,-31.552,0
0.477,-24.96,0
0.478,-22.946,0
0.479,-21.115,0
0.48,-16.171,0
0.481,-11.777,0
0.482,-13.058,0
0.483,-7.016,0
0.484,-5.917,0
0.485,-2.988,0
0.486,-2.072,0
0.487,-1.34,0
0.488,-0.607,0
0.489,2.689,0
0.49,5.802,0
0.491,1.956,0
0.492,4.337,0
0.493,1.224,0
0.494,3.97,0
0.495,8.182,0
0.496,7.633,0
0.497,10.928,0
0.498,7.816,0
0.499,5.802,0
0.5,4.703,0
0.501,7.266,0
0.502,7.449,0
0.503,6.717,0
0.504,7.999,0
0.505,9.097,0
0.506,5.802,0
0.507,3.604,0
0.508,-2.621,0
0.509,-1.706,0
0.51,-1.34,0
0.511,-0.607,0
0.512,7.816,0
0.513,22.647,0
0.514,44.803,0
0.515,59.635,0
0.516,83.804,0
0.517,61.282,0
0.518,22.647,0
0.519,-3.537,0
0.52,-17.819,0
0.521,-30.636,0
0.522,-42.355,0
0.523,-38.876,0
0.524,-35.763,0
0.525,-32.834,0
0.526,-30.27,0
0.527,-32.651,0
0.528,-26.059,0
0.529,-20.016,0
0.53,-18.185,0
0.531,-19.833,0
0.532,-9.396,0
0.533,-5.368,0
0.534,-1.889,0
0.535,1.407,0
0.536,-1.523,0
0.537,4.886,0
0.538,10.562,0
0.539,6.717,0
0.54,4.886,0
0.541,4.337,0
0.542,0.491,0
0.543,3.787,0
0.544,5.069,0
0.545,-0.424,0
0.546,3.421,0
0.547,2.872,0
0.548,8.548,0
0.549,9.281,0
0.55,11.112,0
0.551,10.562,0
0.552,12.21,0
0.553,8.914,0
0.554,5.802,0
0.555,-0.424,0
0.556,-1.34,0
0.557,-5.368,0
0.558,-3.171,0
0.559,0.125,0
0.56,3.238,0
0.561,3.787,0
0.562,4.337,0
0.563,11.844,0
0.564,28.873,0
0.565,55.606,0
0.566,73.367,0
0.567,50.845,0
0.568,18.253,0
0.569,-3.354,0
0.57,-22.946,0
0.571,-26.425,0
0.572,-35.947,0
0.573,-33.017,0
0.574,-30.453,0
0.575,-23.312,0
0.576,-21.115,0
0.577,-19.101,0
0.578,-17.27,0
0.579,-12.326,0
0.58,-13.791,0
0.581,-12.509,0
0.582,-6.467,0
0.583,-3.171,0
0.584,-4.086,0
0.585,-1.34,0
0.586,-2.072,0
0.587,-4.269,0
0.588,-6.1,0
0.589,-0.424,0
0.59,0.308,0
0.591,-1.523,0
0.592,2.872,0
0.593,1.224,0
0.594,6.717,0
0.595,8.914,0
0.596,9.464,0
0.597,12.576,0
0.598,13.126,0
0.599,8.548,0
0.6,5.435,0
0.601,2.689,0
0.602,-0.607,0
0.603,-0.241,0
0.604,0.858,0
0.605,1.956,0
0.606,0.858,0
0.607,5.435,0
0.608,0.858,0
0.609,-0.973,0
0.61,1.773,0
0.611,3.055,0
0.612,2.323,0
0.613,1.041,0
0.614,2.139,0
0.615,3.97,0
0.616,3.604,0
0.617,5.069,0
0.618,5.802,0
0.619,9.83,0
0.62,2.506,0
0.621,3.421,0
0.622,9.83,0
0.623,22.281,0
0.624,42.423,0
0.625,34.549,0
0.626,27.408,0
0.627,47.366,0
0.628,66.043,0
0.629,88.016,0
0.63,73.184,0
0.631,38.211,0
0.632,4.886,0
0.633,-7.931,0
0.634,-19.65,0
0.635,-30.27,0
0.636,-46.384,0
0.637,-61.215,0
0.638,-63.779,0
0.639,-70.92,0
0.64,-68.722,0
0.641,-70.737,0
0.642,-65.243,0
0.643,-46.933,0
0.644,-30.087,0
0.645,-27.89,0
0.646,-46.017,0
0.647,-62.863,0
0.648,-73.849,0
0.649,-100.03,0
0.65,-103.51,0
0.651,-106.63,0
0.652,-109.56,0
0.653,-133.72,0
0.654,-136.84,0
0.655,-139.77,0
0.656,-126.4,0
0.657,-119.26,0
0.658,-103.88,0
0.659,-73.666,0
0.66,-8.664,0
0.661,94.058,0
0.662,134.89,0
0.663,161.99,0
0.664,149.54,0
0.665,138.37,0
0.666,128.12,0
0.667,156.13,0
0.668,181.4,0
0.669,158.33,0
0.67,137.45,0
0.671,131.23,0
0.672,148.44,0
0.673,143.31,0
0.674,138.55,0
0.675,125.74,0
0.676,106.14,0
0.677,109.62,0
0.678,93.509,0
0.679,78.677,0
0.68,49.198,0
0.681,29.605,0
0.682,26.126,0
0.683,29.239,0
0.684,32.169,0
0.685,18.802,0
0.686,11.661,0
0.687,9.464,0
0.688,-4.635,0
0.689,-17.453,0
0.69,-25.693,0
0.691,-15.256,0
0.692,-27.524,0
0.693,-39.059,0
0.694,-40.524,0
0.695,-39.242,0
0.696,-42.721,0
0.697,-43.82,0
0.698,-50.778,0
0.699,-53.525,0
0.7,-59.201,0
0.701,-64.511,0
0.702,-67.807,0
0.703,-72.201,0
0.704,-70.553,0
0.705,-71.835,0
0.706,-72.201,0
0.707,-67.624,0
0.708,-61.948,0
0.709,-59.75,0
0.71,-56.454,0
0.711,-52.06,0
0.712,-43.637,0
0.713,-40.158,0
0.714,-35.763,0
0.715,-30.087,0
0.716,-14.889,0
0.717,-3.903,0
0.718,26.309,0
0.719,56.522,0
0.72,44.803,0
0.721,12.576,0
0.722,-9.03,0
0.723,-28.622,0
0.724,-32.101,0
0.725,-35.214,0
0.726,-38.144,0
0.727,-35.58,0
0.728,-28.439,0
0.729,-26.242,0
0.73,-24.228,0
0.731,-11.41,0
0.732,-6.467,0
0.733,-7.931,0
0.734,-6.65,0
0.735,-3.171,0
0.736,-4.269,0
0.737,-3.354,0
0.738,-0.607,0
0.739,5.069,0
0.74,8.914,0
0.741,12.21,0
0.742,12.76,0
0.743,14.407,0
0.744,15.689,0
0.745,11.478,0
0.746,14.224,0
0.747,14.591,0
0.748,14.224,0
0.749,14.591,0
0.75,10.379,0
0.751,13.126,0
0.752,14.407,0
0.753,13.126,0
0.754,13.492,0
0.755,13.126,0
0.756,7.633,0
0.757,5.435,0
0.758,8.731,0
0.759,8.182,0
0.76,8.731,0
0.761,11.112,0
0.762,10.745,0
0.763,7.999,0
0.764,5.435,0
0.765,6.717,0
0.766,2.689,0
0.767,10.196,0
0.768,25.028,0
0.769,51.212,0
0.77,61.832,0
0.771,84.354,0
0.772,81.424,0
0.773,46.451,0
0.774,3.421,0
0.775,-25.326,0
0.776,-40.89,0
0.777,-36.13,0
0.778,-40.341,0
0.779,-44.186,0
0.78,-40.707,0
0.781,-31.186,0
0.782,-39.975,0
0.783,-32.101,0
0.784,-29.721,0
0.785,-23.129,0
0.786,-17.087,0
0.787,-11.594,0
0.788,-9.946,0
0.789,-8.481,0
0.79,-7.199,0
0.791,-3.72,0
0.792,-0.424,0
0.793,6.534,0
0.794,1.956,0
0.795,4.337,0
0.796,5.069,0
0.797,5.618,0
0.798,7.449,0
0.799,7.999,0
0.8,6.717,0
0.801,10.928,0
0.802,9.281,0
0.803,2.689,0
0.804,5.435,0
0.805,11.112,0
0.806,8.914,0
0.807,10.745,0
0.808,11.295,0
0.809,7.449,0
0.81,8.731,0
0.811,5.618,0
0.812,2.872,0
0.813,5.435,0
0.814,2.139,0
0.815,3.238,0
0.816,3.055,0
0.817,7.999,0
0.818,18.253,0
0.819,37.845,0
0.82,62.015,0
0.821,71.536,0
0.822,50.845,0
0.823,15.872,0
0.824,-7.931,0
0.825,-20.749,0
0.826,-24.594,0
0.827,-28.073,0
0.828,-31.186,0
0.829,-28.256,0
0.83,-25.693,0
0.831,-28.073,0
0.832,-25.876,0
0.833,-19.833,0
0.834,-18.002,0
0.835,-19.65,0
0.836,-15.256,0
0.837,-11.227,0
0.838,-12.326,0
0.839,-6.65,0
0.84,-5.734,0
0.841,2.689,0
0.842,1.59,0
0.843,-1.34,0
0.844,3.238,0
0.845,0.858,0
0.846,4.703,0
0.847,7.999,0
0.848,2.323,0
0.849,3.055,0
0.85,1.224,0
0.851,3.055,0
0.852,2.506,0
0.853,1.224,0
0.854,6.351,0
0.855,4.52,0
0.856,3.97,0
0.857,3.421,0
0.858,6.717,0
0.859,1.59,0
0.86,1.041,0
0.861,-0.79,0
0.862,1.956,0
0.863,-0.424,0
0.864,2.689,0
0.865,1.59,0
0.866,4.154,0
0.867,4.52,0
0.868,10.013,0
0.869,21.549,0
0.87,39.859,0
0.871,23.013,0
0.872,20.816,0
0.873,22.83,0
0.874,42.972,0
0.875,67.142,0
0.876,44.62,0
0.877,17.886,0
0.878,-14.34,0
0.879,-27.157,0
0.88,-31.003,0
0.881,-34.482,0
0.882,-44.003,0
0.883,-41.073,0
0.884,-38.51,0
0.885,-36.13,0
0.886,-29.538,0
0.887,-31.552,0
0.888,-22.397,0
0.889,-17.453,0
0.89,-13.058,0
0.891,-9.03,0
0.892,-5.551,0
0.893,-8.847,0
0.894,-3.903,0
0.895,-1.156,0
0.896,1.224,0
0.897,8.182,0
0.898,9.097,0
0.899,6.717,0
0.9,5.985,0
0.901,5.435,0
0.902,2.323,0
0.903,5.069,0
0.904,2.689,0
0.905,4.886,0
0.906,6.9,0
0.907,5.802,0
0.908,9.097,0
0.909,8.731,0
0.91,10.562,0
0.911,10.196,0
0.912,8.182,0
0.913,8.914,0
0.914,7.633,0
0.915,5.069,0
0.916,7.633,0
0.917,4.337,0
0.918,5.985,0
0.919,3.787,0
0.92,10.013,0
0.921,23.929,0
0.922,54.141,0
0.923,75.748,0
0.924,48.282,0
0.925,16.055,0
0.926,-5.551,0
0.927,-17.27,0
0.928,-27.89,0
0.929,-31.003,0
0.93,-28.073,0
0.931,-25.51,0
0.932,-27.89,0
0.933,-21.298,0
0.934,-23.312,0
0.935,-21.481,0
0.936,-19.833,0
0.937,-15.439,0
0.938,-16.72,0
0.939,-10.678,0
0.94,-9.579,0
0.941,-6.65,0
0.942,-5.734,0
0.943,-3.354,0
0.944,0.491,0
0.945,-1.34,0
0.946,-1.889,0
0.947,1.956,0
0.948,5.252,0
0.949,5.618,0
0.95,1.041,0
0.951,2.872,0
0.952,2.323,0
0.953,6.9,0
0.954,6.351,0
0.955,9.097,0
0.956,4.52,0
0.957,5.069,0
0.958,3.421,0
0.959,3.787,0
0.96,4.154,0
0.961,3.055,0
0.962,1.224,0
0.963,3.055,0
0.964,1.59,0
0.965,2.872,0
0.966,5.252,0
0.967,1.956,0
0.968,3.238,0
0.969,-0.607,0
0.97,-1.706,0
0.971,3.97,0
0.972,16.422,0
0.973,43.887,0
0.974,71.353,0
0.975,46.451,0
0.976,17.154,0
0.977,-2.438,0
0.978,-13.058,0
0.979,-22.58,0
0.98,-19.65,0
0.981,-22.214,0
0.982,-24.594,0
0.983,-22.397,0
0.984,-24.411,0
0.985,-22.58,0
0.986,-20.932,0
0.987,-16.537,0
0.988,-17.819,0
0.989,-14.34,0
0.99,-8.664,0
0.991,-11.594,0
0.992,-7.016,0
0.993,-6.283,0
0.994,-7.016,0
0.995,0.491,0
0.996,1.407,0
0.997,2.323,0
0.998,4.703,0
0.999,5.435,0
1,3.604,0
1.001,4.154,0
1.002,3.604,0
1.003,9.097,0
1.004,3.787,0
1.005,5.618,0
1.006,6.168,0
1.007,3.421,0
1.008,5.802,0
1.009,2.689,0
1.01,4.703,0
1.011,5.802,0
1.012,4.703,0
1.013,8.731,0
1.014,3.604,0
1.015,6.9,0
1.016,2.506,0
1.017,3.055,0
1.018,7.633,0
1.019,3.238,0
1.02,4.52,0
1.021,2.872,0
1.022,9.464,0
1.023,23.38,0
1.024,53.592,0
1.025,66.409,0
1.026,46.817,0
1.027,14.591,0
1.028,-7.016,0
1.029,-18.735,0
1.03,-22.214,0
1.031,-25.326,0
1.032,-28.256,0
1.033,-30.82,0
1.034,-28.439,0
1.035,-21.847,0
1.036,-19.833,0
1.037,-21.664,0
1.038,-20.016,0
1.039,-15.622,0
1.04,-14.34,0
1.041,-10.861,0
1.042,-7.565,0
1.043,-6.65,0
1.044,-2.072,0
1.045,5.435,0
1.046,2.506,0
1.047,1.59,0
1.048,0.858,0
1.049,4.703,0
1.05,0.125,0
1.051,5.802,0
1.052,5.069,0
1.053,4.52,0
1.054,6.351,0
1.055,0.125,0
1.056,2.506,0
1.057,1.773,0
1.058,-0.058,0
1.059,4.337,0
1.06,8.182,0
1.061,3.604,0
1.062,4.154,0
1.063,2.506,0
1.064,2.872,0
1.065,4.154,0
1.066,3.787,0
1.067,1.224,0
1.068,1.59,0
1.069,0.125,0
1.07,0.858,0
1.071,0.858,0
1.072,4.886,0
1.073,13.309,0
1.074,24.478,0
1.075,44.071,0
1.076,62.747,0
1.077,74.832,0
1.078,54.874,0
1.079,19.901,0
1.08,-3.903,0
1.081,-25.51,0
1.082,-29.355,0
1.083,-39.975,0
1.084,-36.862,0
1.085,-33.932,0
1.086,-36.496,0
1.087,-34.115,0
1.088,-31.918,0
1.089,-25.876,0
1.09,-20.383,0
1.091,-15.439,0
1.092,-11.044,0
1.093,-9.762,0
1.094,-6.283,0
1.095,-5.185,0
1.096,-10.129,0
1.097,-5.551,0
1.098,0.125,0
1.099,8.548,0
1.1,5.252,0
1.101,2.323,0
1.102,6.9,0
1.103,7.633,0
1.104,5.435,0
1.105,4.886,0
1.106,1.773,0
1.107,3.421,0
1.108,5.802,0
1.109,7.083,0
1.11,5.069,0
1.111,5.435,0
1.112,4.337,0
1.113,5.802,0
1.114,10.013,0
1.115,19.534,0
1.116,31.802,0
1.117,16.788,0
1.118,2.689,0
1.119,-2.804,0
1.12,-4.452,0
1.121,-2.988,0
1.122,-5.734,0
1.123,-4.452,0
1.124,11.661,0
1.125,27.042,0
1.126,53.226,0
1.127,70.987,0
1.128,41.69,0
1.129,14.224,0
1.13,-3.537,0
1.131,-19.65,0
1.132,-28.439,0
1.133,-31.003,0
1.134,-28.622,0
1.135,-30.82,0
1.136,-24.777,0
1.137,-22.946,0
1.138,-24.594,0
1.139,-26.059,0
1.14,-19.284,0
1.141,-18.185,0
1.142,-14.889,0
1.143,-9.946,0
1.144,-9.03,0
1.145,-6.65,0
1.146,-2.804,0
1.147,1.773,0
1.148,-2.621,0
1.149,1.224,0
1.15,4.52,0
1.151,4.154,0
1.152,3.787,0
1.153,5.618,0
1.154,8.914,0
1.155,9.281,0
1.156,8.914,0
1.157,6.351,0
1.158,8.365,0
1.159,9.097,0
1.16,5.069,0
1.161,5.618,0
1.162,7.999,0
1.163,6.717,0
1.164,5.618,0
1.165,3.787,0
1.166,4.886,0
1.167,5.069,0
1.168,0.858,0
1.169,-0.973,0
1.17,-1.523,0
1.171,3.97,0
1.172,6.168,0
1.173,3.055,0
1.174,3.604,0
1.175,4.154,0
1.176,12.576,0
1.177,31.07,0
1.178,55.24,0
1.179,58.353,0
1.18,73.184,0
1.181,59.818,0
1.182,23.38,0
1.183,-13.241,0
1.184,-27.524,0
1.185,-40.341,0
1.186,-44.186,0
1.187,-40.707,0
1.188,-43.82,0
1.189,-40.89,0
1.19,-43.454,0
1.191,-36.313,0
1.192,-29.721,0
1.193,-27.707,0
1.194,-22.214,0
1.195,-17.27,0
1.196,-15.805,0
1.197,-9.03,0
1.198,-7.931,0
1.199,-4.635,0
1.2,-3.72,0
1.201,-2.804,0
1.202,-5.185,0
1.203,1.773,0
1.204,2.689,0
1.205,6.717,0
1.206,7.449,0
1.207,7.999,0
1.208,1.041,0
1.209,3.787,0
1.21,1.407,0
1.211,5.252,0
1.212,7.083,0
1.213,7.633,0
1.214,8.182,0
1.215,8.548,0
1.216,9.83,0
1.217,7.083,0
1.218,8.914,0
1.219,7.816,0
1.22,5.802,0
1.221,4.52,0
1.222,3.238,0
1.223,6.717,0
1.224,6.717,0
1.225,3.421,0
1.226,10.379,0
1.227,25.577,0
1.228,58.719,0
1.229,82.523,0
1.23,60.916,0
1.231,25.394,0
1.232,1.59,0
1.233,-20.016,0
1.234,-23.862,0
1.235,-27.341,0
1.236,-30.453,0
1.237,-27.524,0
1.238,-24.96,0
1.239,-32.101,0
1.24,-29.904,0
1.241,-23.862,0
1.242,-18.368,0
1.243,-16.72,0
1.244,-9.213,0
1.245,-5.185,0
1.246,-6.283,0
1.247,-5.185,0
1.248,-4.269,0
1.249,-3.354,0
1.25,-0.973,0
1.251,-3.171,0
1.252,-1.34,0
1.253,-0.79,0
1.254,-1.34,0
1.255,-0.973,0
1.256,1.224,0
1.257,6.717,0
1.258,2.872,0
1.259,2.323,0
1.26,4.154,0
1.261,2.506,0
1.262,4.886,0
1.263,1.773,0
1.264,7.266,0
1.265,7.999,0
1.266,8.548,0
1.267,5.435,0
1.268,7.083,0
1.269,8.365,0
1.27,9.647,0
1.271,5.069,0
1.272,1.956,0
1.273,1.407,0
1.274,4.703,0
1.275,-1.34,0
1.276,5.618,0
1.277,6.534,0
1.278,18.619,0
1.279,40.225,0
1.28,37.296,0
1.281,55.972,0
1.282,68.057,0
1.283,43.704,0
1.284,1.407,0
1.285,-15.805,0
1.286,-31.369,0
1.287,-45.651,0
1.288,-41.44,0
1.289,-37.594,0
1.29,-41.073,0
1.291,-37.961,0
1.292,-35.031,0
1.293,-27.157,0
1.294,-24.777,0
1.295,-22.58,0
1.296,-16.537,0
1.297,-14.706,0
1.298,-13.058,0
1.299,-8.664,0
1.3,-4.635,0
1.301,-1.156,0
1.302,-0.058,0
1.303,2.872,0
1.304,5.618,0
1.305,7.999,0
1.306,5.802,0
1.307,2.506,0
1.308,-1.889,0
1.309,-0.241,0
1.31,3.055,0
1.311,6.168,0
1.312,2.323,0
1.313,7.816,0
1.314,8.548,0
1.315,10.379,0
1.316,9.83,0
1.317,10.379,0
1.318,5.802,0
1.319,5.252,0
1.32,6.9,0
1.321,3.604,0
1.322,2.323,0
1.323,6.168,0
1.324,5.802,0
1.325,6.168,0
1.326,1.59,0
1.327,3.604,0
1.328,9.281,0
1.329,21.732,0
1.33,49.198,0
1.331,68.79,0
1.332,72.269,0
1.333,49.747,0
1.334,11.112,0
1.335,-4.452,0
1.336,-18.735,0
1.337,-22.946,0
1.338,-26.791,0
1.339,-37.411,0
1.34,-40.524,0
1.341,-37.594,0
1.342,-35.031,0
1.343,-27.89,0
1.344,-25.693,0
1.345,-23.678,0
1.346,-21.847,0
1.347,-13.608,0
1.348,-9.213,0
1.349,-7.931,0
1.35,-4.452,0
1.351,-3.354,0
1.352,-4.269,0
1.353,-1.523,0
1.354,-3.903,0
1.355,-0.058,0
1.356,1.773,0
1.357,-0.058,0
1.358,5.069,0
1.359,3.238,0
1.36,12.76,0
1.361,33.267,0
1.362,36.197,0
1.363,17.52,0
1.364,10.379,0
1.365,8.182,0
1.366,-1.889,0
1.367,-3.72,0
1.368,-8.664,0
1.369,-7.199,0
1.37,-5.917,0
1.371,-7.016,0
1.372,-5.917,0
1.373,-2.988,0
1.374,-9.396,0
1.375,-3.72,0
1.376,-1.523,0
1.377,-1.34,0
1.378,1.956,0
1.379,11.478,0
1.38,29.239,0
1.381,55.972,0
1.382,66.593,0
1.383,50.479,0
1.384,11.844,0
1.385,-3.72,0
1.386,-18.002,0
1.387,-22.214,0
1.388,-26.059,0
1.389,-29.538,0
1.39,-26.425,0
1.391,-23.495,0
1.392,-15.622,0
1.393,-22.763,0
1.394,-16.171,0
1.395,-14.157,0
1.396,-12.326,0
1.397,-10.678,0
1.398,-6.283,0
1.399,0.491,0
1.4,-0.607,0
1.401,0.491,0
1.402,1.407,0
1.403,0.491,0
1.404,-1.889,0
1.405,-5.734,0
1.406,-3.903,0
1.407,-2.072,0
1.408,-1.523,0
1.409,1.773,0
1.41,5.985,0
1.411,3.238,0
1.412,4.52,0
1.413,4.886,0
1.414,3.787,0
1.415,7.266,0
1.416,12.393,0
1.417,7.816,0
1.418,7.266,0
1.419,8.914,0
1.42,3.421,0
1.421,2.689,0
1.422,4.52,0
1.423,7.633,0
1.424,13.858,0
1.425,14.591,0
1.426,13.858,0
1.427,20.084,0
1.428,19.901,0
1.429,20.633,0
1.43,32.169,0
1.431,40.408,0
1.432,62.93,0
1.433,92.227,0
1.434,72.635,0
1.435,33.267,0
1.436,7.083,0
1.437,-26.242,0
1.438,-39.059,0
1.439,-58.652,0
1.44,-62.131,0
1.441,-65.243,0
1.442,-68.173,0
1.443,-65.61,0
1.444,-58.469,0
1.445,-47.482,0
1.446,-37.411,0
1.447,-35.58,0
1.448,-43.82,0
1.449,-57.37,0
1.45,-77.511,0
1.451,-85.385,0
1.452,-92.526,0
1.453,-103.51,0
1.454,-113.58,0
1.455,-119.08,0
1.456,-134.09,0
1.457,-132.08,0
1.458,-126.58,0
1.459,-104.98,0
1.46,-78.244,0
1.461,-24.594,0
1.462,75.565,0
1.463,143.86,0
1.464,156.31,0
1.465,145.15,0
1.466,134.89,0
1.467,106.88,0
1.468,81.607,0
1.469,58.536,0
1.47,51.578,0
1.471,45.352,0
1.472,62.564,0
1.473,88.748,0
1.474,103.03,0
1.475,115.85,0
1.476,127.57,0
1.477,124.09,0
1.478,114.57,0
1.479,119.51,0
1.48,122.44,0
1.481,135.81,0
1.482,123.72,0
1.483,130.31,0
1.484,124.27,0
1.485,96.805,0
1.486,53.409,0
1.487,36.197,0
1.488,20.633,0
1.489,6.351,0
1.49,-6.467,0
1.491,-26.059,0
1.492,-29.538,0
1.493,-39.059,0
1.494,-41.989,0
1.495,-49.863,0
1.496,-61.948,0
1.497,-68.539,0
1.498,-66.525,0
1.499,-61.032,0
1.5,-56.088,0
1.501,-60.483,0
1.502,-59.201,0
1.503,-65.243,0
1.504,-64.145,0
1.505,-65.06,0
1.506,-67.807,0
1.507,-67.074,0
1.508,-67.807,0
1.509,-63.229,0
1.51,-61.398,0
1.511,-57.553,0
1.512,-50.046,0
1.513,-44.369,0
1.514,-41.44,0
1.515,-38.693,0
1.516,-34.665,0
1.517,-30.82,0
1.518,-35.397,0
1.519,-28.439,0
1.52,-23.862,0
1.521,-21.481,0
1.522,-16.171,0
1.523,-5.917,0
1.524,-4.452,0
1.525,-5.734,0
1.526,-4.635,0
1.527,-3.537,0
1.528,1.407,0
1.529,0.491,0
1.53,3.055,0
1.531,3.787,0
1.532,15.323,0
1.533,36.929,0
1.534,69.522,0
1.535,82.34,0
1.536,54.874,0
1.537,22.647,0
1.538,1.041,0
1.539,-10.678,0
1.54,-14.157,0
1.541,-23.678,0
1.542,-26.608,0
1.543,-24.045,0
1.544,-26.425,0
1.545,-24.228,0
1.546,-18.185,0
1.547,-9.03,0
1.548,-4.086,0
1.549,-5.551,0
1.55,-1.523,0
1.551,1.956,0
1.552,0.858,0
1.553,1.773,0
1.554,6.351,0
1.555,3.97,0
1.556,7.816,0
1.557,5.985,0
1.558,4.154,0
1.559,5.802,0
1.56,5.435,0
1.561,8.548,0
1.562,11.295,0
1.563,14.774,0
1.564,16.055,0
1.565,17.154,0
1.566,17.52,0
1.567,14.957,0
1.568,10.379,0
1.569,5.802,0
1.57,6.351,0
1.571,10.196,0
1.572,14.774,0
1.573,14.224,0
1.574,11.478,0
1.575,8.182,0
1.576,3.97,0
1.577,9.097,0
1.578,4.52,0
1.579,5.069,0
1.58,3.421,0
1.581,3.055,0
1.582,0.675,0
1.583,7.633,0
1.584,22.83,0
1.585,42.789,0
1.586,72.269,0
1.587,68.424,0
1.588,43.521,0
1.589,1.224,0
1.59,-15.988,0
1.591,-21.115,0
1.592,-35.397,0
1.593,-39.609,0
1.594,-43.454,0
1.595,-39.975,0
1.596,-36.862,0
1.597,-28.073,0
1.598,-20.199,0
1.599,-17.819,0
1.6,-11.227,0
1.601,-13.241,0
1.602,-7.748,0
1.603,-6.1,0
1.604,-4.635,0
1.605,-0.607,0
1.606,10.562,0
1.607,30.155,0
1.608,32.718,0
1.609,15.872,0
1.61,9.281,0
1.611,3.238,0
1.612,-2.255,0
1.613,-3.903,0
1.614,-2.438,0
1.615,-1.156,0
1.616,-2.255,0
1.617,-5.551,0
1.618,-4.635,0
1.619,-7.382,0
1.62,-6.65,0
1.621,-7.382,0
1.622,-5.551,0
1.623,-2.438,0
1.624,-5.185,0
1.625,1.407,0
1.626,5.985,0
1.627,5.252,0
1.628,4.52,0
1.629,1.224,0
1.63,4.337,0
1.631,0.491,0
1.632,2.323,0
1.633,2.689,0
1.634,9.647,0
1.635,24.844,0
1.636,57.987,0
1.637,72.269,0
1.638,76.48,0
1.639,49.014,0
1.64,16.788,0
1.641,-4.819,0
1.642,-24.411,0
1.643,-27.89,0
1.644,-37.411,0
1.645,-34.482,0
1.646,-31.918,0
1.647,-29.538,0
1.648,-27.341,0
1.649,-21.298,0
1.65,-19.467,0
1.651,-21.115,0
1.652,-19.65,0
1.653,-18.368,0
1.654,-14.889,0
1.655,-15.988,0
1.656,-13.058,0
1.657,-8.481,0
1.658,-9.213,0
1.659,-3.903,0
1.66,0.675,0
1.661,1.224,0
1.662,5.069,0
1.663,9.647,0
1.664,12.76,0
1.665,10.013,0
1.666,7.633,0
1.667,7.999,0
1.668,7.633,0
1.669,4.154,0
1.67,5.435,0
1.671,3.421,0
1.672,0.858,0
1.673,5.618,0
1.674,6.168,0
1.675,4.52,0
1.676,7.816,0
1.677,7.449,0
1.678,7.816,0
1.679,8.914,0
1.68,5.618,0
1.681,3.604,0
1.682,0.125,0
1.683,5.985,0
1.684,5.618,0
1.685,11.844,0
1.686,25.76,0
1.687,51.944,0
1.688,69.705,0
1.689,79.227,0
1.69,52.493,0
1.691,20.267,0
1.692,-1.34,0
1.693,-20.932,0
1.694,-31.552,0
1.695,-34.665,0
1.696,-37.594,0
1.697,-35.031,0
1.698,-37.411,0
1.699,-30.82,0
1.7,-32.834,0
1.701,-27.341,0
1.702,-25.693,0
1.703,-24.228,0
1.704,-20.199,0
1.705,-11.777,0
1.706,-8.481,0
1.707,-5.551,0
1.708,-2.804,0
1.709,2.872,0
1.71,6.717,0
1.711,4.886,0
1.712,5.435,0
1.713,4.886,0
1.714,8.182,0
1.715,7.816,0
1.716,7.449,0
1.717,5.618,0
1.718,4.52,0
1.719,6.534,0
1.72,3.97,0
1.721,4.337,0
1.722,8.365,0
1.723,5.618,0
1.724,8.914,0
1.725,7.633,0
1.726,2.139,0
1.727,2.872,0
1.728,3.421,0
1.729,2.872,0
1.73,1.224,0
1.731,3.604,0
1.732,3.97,0
1.733,3.604,0
1.734,8.182,0
1.735,3.97,0
1.736,12.393,0
1.737,28.507,0
1.738,61.649,0
1.739,75.931,0
1.74,45.719,0
1.741,18.253,0
1.742,-6.65,0
1.743,-22.763,0
1.744,-25.693,0
1.745,-28.256,0
1.746,-35.397,0
1.747,-28.805,0
1.748,-26.791,0
1.749,-24.96,0
1.75,-20.016,0
1.751,-21.481,0
1.752,-20.199,0
1.753,-16.72,0
1.754,-13.425,0
1.755,-12.509,0
1.756,-7.931,0
1.757,-3.903,0
1.758,-1.706,0
1.759,0.125,0
1.76,1.956,0
1.761,4.703,0
1.762,3.421,0
1.763,6.534,0
1.764,5.435,0
1.765,1.956,0
1.766,-1.156,0
1.767,-0.058,0
1.768,5.618,0
1.769,1.59,0
1.77,-2.255,0
1.771,-0.424,0
1.772,1.407,0
1.773,4.154,0
1.774,3.787,0
1.775,5.985,0
1.776,10.562,0
1.777,7.449,0
1.778,7.999,0
1.779,8.365,0
1.78,7.083,0
1.781,4.337,0
1.782,4.703,0
1.783,-0.79,0
1.784,-0.058,0
1.785,4.52,0
1.786,3.97,0
1.787,13.492,0
1.788,28.507,0
1.789,38.577,0
1.79,62.381,0
1.791,78.494,0
1.792,57.803,0
1.793,22.83,0
1.794,-0.973,0
1.795,-13.791,0
1.796,-33.383,0
1.797,-29.904,0
1.798,-33.017,0
1.799,-35.947,0
1.8,-38.51,0
1.801,-36.13,0
1.802,-38.327,0
1.803,-28.256,0
1.804,-26.425,0
1.805,-24.777,0
1.806,-23.312,0
1.807,-19.284,0
1.808,-20.383,0
1.809,-14.706,0
1.81,-7.748,0
1.811,-5.002,0
1.812,-0.973,0
1.813,2.872,0
1.814,1.041,0
1.815,2.872,0
1.816,3.421,0
1.817,2.139,0
1.818,7.266,0
1.819,5.435,0
1.82,8.548,0
1.821,11.295,0
1.822,7.999,0
1.823,4.886,0
1.824,7.633,0
1.825,10.196,0
1.826,10.562,0
1.827,5.985,0
1.828,6.534,0
1.829,7.083,0
1.83,8.731,0
1.831,7.449,0
1.832,8.731,0
1.833,9.097,0
1.834,5.618,0
1.835,5.985,0
1.836,5.985,0
1.837,3.97,0
1.838,3.604,0
1.839,9.097,0
1.84,20.633,0
1.841,45.535,0
1.842,56.156,0
1.843,72.269,0
1.844,69.339,0
1.845,29.056,0
1.846,-11.227,0
1.847,-26.791,0
1.848,-41.073,0
1.849,-45.285,0
1.85,-49.13,0
1.851,-38.51,0
1.852,-15.988,0
1.853,-1.156,0
1.854,-14.523,0
1.855,-21.664,0
1.856,-28.256,0
1.857,-26.242,0
1.858,-31.735,0
1.859,-23.495,0
1.86,-19.101,0
1.861,-15.073,0
1.862,-16.171,0
1.863,-12.875,0
1.864,-11.96,0
1.865,-3.537,0
1.866,-4.635,0
1.867,-3.72,0
1.868,-2.804,0
1.869,-5.185,0
1.87,-4.452,0
1.871,-5.002,0
1.872,3.238,0
1.873,-0.058,0
1.874,4.886,0
1.875,9.464,0
1.876,15.14,0
1.877,12.943,0
1.878,14.774,0
1.879,14.224,0
1.88,15.872,0
1.881,11.295,0
1.882,9.464,0
1.883,7.816,0
1.884,7.449,0
1.885,8.731,0
1.886,7.633,0
1.887,8.182,0
1.888,7.083,0
1.889,12.576,0
1.89,24.112,0
1.891,49.014,0
1.892,59.635,0
1.893,75.748,0
1.894,66.959,0
1.895,31.986,0
1.896,-1.34,0
1.897,-22.946,0
1.898,-34.665,0
1.899,-38.144,0
1.9,-47.665,0
1.901,-38.876,0
1.902,-36.313,0
1.903,-33.932,0
1.904,-31.735,0
1.905,-25.693,0
1.906,-20.199,0
1.907,-18.552,0
1.908,-17.087,0
1.909,-15.805,0
1.91,-4.635,0
1.911,-9.03,0
1.912,-5.002,0
1.913,3.421,0
1.914,2.323,0
1.915,5.252,0
1.916,6.168,0
1.917,6.9,0
1.918,7.633,0
1.919,1.407,0
1.92,2.139,0
1.921,1.407,0
1.922,1.956,0
1.923,2.506,0
1.924,3.055,0
1.925,5.435,0
1.926,3.238,0
1.927,7.816,0
1.928,7.266,0
1.929,2.139,0
1.93,5.435,0
1.931,4.886,0
1.932,4.337,0
1.933,6.717,0
1.934,2.506,0
1.935,4.154,0
1.936,3.787,0
1.937,6.9,0
1.938,8.914,0
1.939,10.013,0
1.94,9.647,0
1.941,15.14,0
1.942,26.676,0
1.943,51.578,0
1.944,48.099,0
1.945,18.802,0
1.946,-0.79,0
1.947,-18.552,0
1.948,-21.664,0
1.949,-24.594,0
1.95,-32.468,0
1.951,-34.848,0
1.952,-28.256,0
1.953,-22.214,0
1.954,-24.045,0
1.955,-19.101,0
1.956,-20.566,0
1.957,-13.791,0
1.958,-14.889,0
1.959,-13.791,0
1.96,-12.875,0
1.961,-10.129,0
1.962,-4.452,0
1.963,-3.72,0
1.964,-0.424,0
1.965,3.97,0
1.966,5.618,0
1.967,2.323,0
1.968,8.365,0
1.969,14.041,0
1.97,14.774,0
1.971,20.999,0
1.972,8.548,0
1.973,6.717,0
1.974,8.365,0
1.975,0.858,0
1.976,2.139,0
1.977,-1.34,0
1.978,-4.635,0
1.979,-3.72,0
1.98,-4.635,0
1.981,-2.255,0
1.982,-0.058,0
1.983,0.491,0
1.984,-0.058,0
1.985,3.787,0
1.986,5.069,0
1.987,6.351,0
1.988,7.449,0
1.989,7.449,0
1.99,4.886,0
1.991,5.252,0
1.992,9.83,0
1.993,20.084,0
1.994,42.606,0
1.995,71.903,0
1.996,68.057,0
1.997,28.69,0
1.998,-7.931,0
1.999,-22.214,0
2,-35.031,0
2.001,-38.876,0
2.002,-42.355,0
2.003,-39.242,0
2.004,-42.172,0
2.005,-39.609,0
2.006,-32.468,0
2.007,-25.876,0
2.008,-23.862,0
2.009,-18.368,0
2.01,-16.72,0
2.011,-12.326,0
2.012,-5.551,0
2.013,-6.65,0
2.014,-3.354,0
2.015,-0.424,0
2.016,0.491,0
2.017,2.872,0
2.018,3.604,0
2.019,0.308,0
2.02,5.985,0
2.021,5.252,0
2.022,7.083,0
2.023,3.97,0
2.024,12.393,0
2.025,6.351,0
2.026,7.449,0
2.027,6.534,0
2.028,12.943,0
2.029,7.266,0
2.03,7.999,0
2.031,3.421,0
2.032,2.872,0
2.033,-0.973,0
2.034,2.323,0
2.035,7.449,0
2.036,4.154,0
2.037,4.703,0
2.038,3.055,0
2.039,5.435,0
2.04,5.985,0
2.041,2.872,0
2.042,8.365,0
2.043,19.901,0
2.044,44.803,0
2.045,62.564,0
2.046,78.677,0
2.047,57.987,0
2.048,17.703,0
2.049,-11.044,0
2.05,-26.608,0
2.051,-31.369,0
2.052,-44.186,0
2.053,-40.341,0
2.054,-36.862,0
2.055,-33.749,0
2.056,-30.82,0
2.057,-33.383,0
2.058,-31.003,0
2.059,-28.805,0
2.06,-22.763,0
2.061,-13.608,0
2.062,-11.96,0
2.063,-7.565,0
2.064,-6.283,0
2.065,-5.185,0
2.066,0.491,0
2.067,1.407,0
2.068,2.323,0
2.069,4.703,0
2.07,5.435,0
2.071,4.886,0
2.072,7.999,0
2.073,8.548,0
2.074,7.266,0
2.075,5.069,0
2.076,1.224,0
2.077,0.858,0
2.078,1.224,0
2.079,0.858,0
2.08,2.689,0
2.081,3.787,0
2.082,5.252,0
2.083,3.421,0
2.084,7.449,0
2.085,9.097,0
2.086,13.675,0
2.087,10.562,0
2.088,7.816,0
2.089,7.449,0
2.09,5.252,0
2.091,1.59,0
2.092,-0.424,0
2.093,2.139,0
2.094,3.238,0
2.095,3.055,0
2.096,-0.058,0
2.097,6.168,0
2.098,20.084,0
2.099,34.183,0
2.1,17.703,0
2.101,11.112,0
2.102,33.267,0
2.103,65.86,0
2.104,53.043,0
2.105,33.45,0
2.106,1.224,0
2.107,-20.383,0
2.108,-32.101,0
2.109,-28.622,0
2.11,-38.144,0
2.111,-35.214,0
2.112,-37.778,0
2.113,-35.397,0
2.114,-33.2,0
2.115,-31.186,0
2.116,-25.693,0
2.117,-20.749,0
2.118,-19.284,0
2.119,-12.509,0
2.12,-13.608,0
2.121,-12.509,0
2.122,-7.565,0
2.123,-2.988,0
2.124,-7.016,0
2.125,-1.706,0
2.126,-3.537,0
2.127,-1.706,0
2.128,2.139,0
2.129,-1.156,0
2.13,1.956,0
2.131,6.534,0
2.132,5.985,0
2.133,6.534,0
2.134,8.914,0
2.135,5.802,0
2.136,7.816,0
2.137,2.872,0
2.138,7.449,0
2.139,5.618,0
2.14,7.266,0
2.141,5.985,0
2.142,7.449,0
2.143,7.083,0
2.144,13.309,0
2.145,27.225,0
2.146,53.409,0
2.147,78.311,0
2.148,75.198,0
2.149,42.606,0
2.15,12.393,0
2.151,-7.199,0
2.152,-24.96,0
2.153,-34.482,0
2.154,-31.552,0
2.155,-34.115,0
2.156,-31.735,0
2.157,-33.932,0
2.158,-31.918,0
2.159,-30.087,0
2.16,-28.439,0
2.161,-20.932,0
2.162,-14.157,0
2.163,-13.058,0
2.164,-7.382,0
2.165,-4.452,0
2.166,-5.368,0
2.167,-1.34,0
2.168,-0.607,0
2.169,1.224,0
2.17,4.337,0
2.171,0.491,0
2.172,3.787,0
2.173,6.9,0
2.174,8.914,0
2.175,13.126,0
2.176,9.281,0
2.177,7.999,0
2.178,6.717,0
2.179,3.97,0
2.18,4.337,0
2.181,6.9,0
2.182,2.323,0
2.183,0.491,0
2.184,2.323,0
2.185,8.548,0
2.186,10.928,0
2.187,8.731,0
2.188,9.281,0
2.189,3.604,0
2.19,5.802,0
2.191,3.97,0
2.192,5.802,0
2.193,9.647,0
2.194,12.393,0
2.195,19.901,0
2.196,36.929,0
2.197,68.607,0
2.198,90.213,0
2.199,94.058,0
2.2,69.156,0
2.201,26.859,0
2.202,9.647,0
2.203,-16.537,0
2.204,-21.298,0
2.205,-25.51,0
2.206,-37.228,0
2.207,-47.848,0
2.208,-57.37,0
2.209,-60.3,0
2.21,-68.173,0
2.211,-75.314,0
2.212,-64.328,0
2.213,-50.229,0
2.214,-41.073,0
2.215,-32.834,0
2.216,-28.439,0
2.217,-43.454,0
2.218,-57.553,0
2.219,-70.37,0
2.22,-85.385,0
2.221,-107.54,0
2.222,-122.37,0
2.223,-124.94,0
2.224,-132.08,0
2.225,-134.27,0
2.226,-124.2,0
2.227,-118.71,0
2.228,-97.104,0
2.229,-64.511,0
2.23,0.491,0
2.231,103.21,0
2.232,144.05,0
2.233,156.5,0
2.234,145.33,0
2.235,135.07,0
2.236,107.06,0
2.237,81.79,0
2.238,74.1,0
2.239,67.142,0
2.24,73.367,0
2.241,79.044,0
2.242,105.23,0
2.243,119.51,0
2.244,129.03,0
2.245,124.82,0
2.246,120.97,0
2.247,138.74,0
2.248,168.03,0
2.249,179.75,0
2.25,147.53,0
2.251,99.918,0
2.252,55.606,0
2.253,26.859,0
2.254,11.295,0
2.255,6.534,0
2.256,10.745,0
2.257,6.9,0
2.258,-10.861,0
2.259,-13.974,0
2.26,-22.763,0
2.261,-30.636,0
2.262,-37.778,0
2.263,-35.58,0
2.264,-41.623,0
2.265,-47.116,0
2.266,-45.468,0
2.267,-49.863,0
2.268,-53.891,0
2.269,-52.792,0
2.27,-56.088,0
2.271,-53.158,0
2.272,-55.905,0
2.273,-61.581,0
2.274,-62.314,0
2.275,-62.863,0
2.276,-65.976,0
2.277,-72.201,0
2.278,-69.821,0
2.279,-59.75,0
2.28,-55.722,0
2.281,-49.679,0
2.282,-50.778,0
2.283,-43.82,0
2.284,-39.242,0
2.285,-35.214,0
2.286,-29.904,0
2.287,-20.932,0
2.288,-17.453,0
2.289,-16.354,0
2.29,-15.439,0
2.291,-18.185,0
2.292,-10.678,0
2.293,-7.748,0
2.294,-6.833,0
2.295,-7.199,0
2.296,-1.523,0
2.297,6.9,0
2.298,23.929,0
2.299,50.662,0
2.3,68.424,0
2.301,52.31,0
2.302,13.675,0
2.303,-1.889,0
2.304,-16.171,0
2.305,-20.383,0
2.306,-16.537,0
2.307,-20.016,0
2.308,-23.129,0
2.309,-20.199,0
2.31,-17.636,0
2.311,-15.256,0
2.312,-13.058,0
2.313,-11.044,0
2.314,-9.213,0
2.315,-4.269,0
2.316,-2.804,0
2.317,-1.523,0
2.318,1.956,0
2.319,7.633,0
2.32,8.548,0
2.321,9.464,0
2.322,7.083,0
2.323,10.928,0
2.324,9.097,0
2.325,8.548,0
2.326,10.196,0
2.327,13.492,0
2.328,12.21,0
2.329,11.112,0
2.33,12.943,0
2.331,9.647,0
2.332,10.013,0
2.333,7.449,0
2.334,10.013,0
2.335,9.83,0
2.336,5.618,0
2.337,6.168,0
2.338,4.52,0
2.339,5.802,0
2.34,4.52,0
2.341,5.618,0
2.342,8.182,0
2.343,13.675,0
2.344,25.211,0
2.345,33.45,0
2.346,22.83,0
2.347,12.393,0
2.348,8.365,0
2.349,4.886,0
2.35,15.14,0
2.351,35.648,0
2.352,56.339,0
2.353,64.212,0
2.354,66.593,0
2.355,33.45,0
2.356,-9.579,0
2.357,-26.791,0
2.358,-42.355,0
2.359,-47.116,0
2.36,-51.327,0
2.361,-47.482,0
2.362,-44.003,0
2.363,-34.482,0
2.364,-31.552,0
2.365,-34.115,0
2.366,-31.735,0
2.367,-25.143,0
2.368,-19.101,0
2.369,-9.946,0
2.37,-11.594,0
2.371,-7.199,0
2.372,-3.171,0
2.373,0.308,0
2.374,-0.79,0
2.375,6.168,0
2.376,1.59,0
2.377,3.97,0
2.378,1.773,0
2.379,6.351,0
2.38,8.182,0
2.381,8.731,0
2.382,10.013,0
2.383,9.647,0
2.384,7.633,0
2.385,10.196,0
2.386,12.027,0
2.387,10.013,0
2.388,6.9,0
2.389,4.886,0
2.39,3.055,0
2.391,6.351,0
2.392,8.365,0
2.393,4.886,0
2.394,6.168,0
2.395,5.069,0
2.396,5.435,0
2.397,3.787,0
2.398,4.154,0
2.399,8.731,0
2.4,18.985,0
2.401,41.507,0
2.402,57.62,0
2.403,60.55,0
2.404,36.38,0
2.405,7.083,0
2.406,-12.509,0
2.407,-30.27,0
2.408,-27.157,0
2.409,-35.947,0
2.41,-33.383,0
2.411,-35.763,0
2.412,-29.172,0
2.413,-23.129,0
2.414,-24.96,0
2.415,-23.312,0
2.416,-24.777,0
2.417,-18.002,0
2.418,-14.523,0
2.419,-11.227,0
2.42,-4.269,0
2.421,2.139,0
2.422,-0.241,0
2.423,1.956,0
2.424,-2.621,0
2.425,-0.79,0
2.426,4.337,0
2.427,4.886,0
2.428,3.055,0
2.429,5.802,0
2.43,7.083,0
2.431,5.802,0
2.432,5.435,0
2.433,2.872,0
2.434,0.308,0
2.435,1.773,0
2.436,1.59,0
2.437,5.069,0
2.438,6.351,0
2.439,8.365,0
2.44,2.689,0
2.441,-1.34,0
2.442,2.506,0
2.443,4.337,0
2.444,2.506,0
2.445,1.956,0
2.446,5.252,0
2.447,8.365,0
2.448,5.252,0
2.449,1.407,0
2.45,8.914,0
2.451,19.168,0
2.452,39.676,0
2.453,72.269,0
2.454,59.451,0
2.455,31.986,0
2.456,-0.241,0
2.457,-13.058,0
2.458,-24.777,0
2.459,-28.256,0
2.46,-31.369,0
2.461,-28.439,0
2.462,-25.876,0
2.463,-28.256,0
2.464,-21.664,0
2.465,-23.678,0
2.466,-21.847,0
2.467,-20.199,0
2.468,-12.692,0
2.469,-11.41,0
2.47,-5.368,0
2.471,-6.467,0
2.472,-5.551,0
2.473,-2.804,0
2.474,1.224,0
2.475,5.069,0
2.476,8.365,0
2.477,11.478,0
2.478,10.928,0
2.479,9.647,0
2.48,6.534,0
2.481,3.787,0
2.482,6.351,0
2.483,5.985,0
2.484,6.168,0
2.485,4.337,0
2.486,2.506,0
2.487,3.055,0
2.488,5.435,0
2.489,4.703,0
2.49,4.52,0
2.491,0.491,0
2.492,2.139,0
2.493,4.52,0
2.494,4.886,0
2.495,7.633,0
2.496,5.069,0
2.497,1.773,0
2.498,4.52,0
2.499,6.717,0
2.5,4.886,0
2.501,9.647,0
2.502,10.196,0
2.503,18.619,0
2.504,37.113,0
2.505,55.789,0
2.506,24.112,0
2.507,-6.1,0
2.508,-17.819,0
2.509,-28.439,0
2.51,-37.961,0
2.511,-35.031,0
2.512,-37.594,0
2.513,-35.214,0
2.514,-28.622,0
2.515,-26.608,0
2.516,-21.115,0
2.517,-16.171,0
2.518,-14.706,0
2.519,-13.425,0
2.52,-12.326,0
2.521,-9.03,0
2.522,-6.1,0
2.523,-3.354,0
2.524,-5.734,0
2.525,-5.002,0
2.526,-0.424,0
2.527,1.407,0
2.528,3.055,0
2.529,3.421,0
2.53,1.224,0
2.531,1.59,0
2.532,-0.973,0
2.533,3.055,0
2.534,3.421,0
2.535,6.534,0
2.536,5.435,0
2.537,5.069,0
2.538,8.365,0
2.539,3.787,0
2.54,5.618,0
2.541,2.872,0
2.542,6.168,0
2.543,8.365,0
2.544,4.52,0
2.545,9.097,0
2.546,4.703,0
2.547,4.154,0
2.548,4.52,0
2.549,2.323,0
2.55,2.323,0
2.551,0.308,0
2.552,5.985,0
2.553,18.436,0
2.554,42.24,0
2.555,58.353,0
2.556,73.184,0
2.557,70.621,0
2.558,34.183,0
2.559,-2.438,0
2.56,-16.72,0
2.561,-38.327,0
2.562,-34.482,0
2.563,-45.102,0
2.564,-41.989,0
2.565,-44.919,0
2.566,-31.552,0
2.567,-29.172,0
2.568,-26.974,0
2.569,-20.932,0
2.57,-19.101,0
2.571,-17.453,0
2.572,-13.058,0
2.573,-9.03,0
2.574,-7.931,0
2.575,-6.833,0
2.576,-3.903,0
2.577,-1.156,0
2.578,2.872,0
2.579,3.604,0
2.58,4.154,0
2.581,1.041,0
2.582,3.787,0
2.583,5.069,0
2.584,4.703,0
2.585,7.449,0
2.586,5.618,0
2.587,7.449,0
2.588,9.464,0
2.589,13.675,0
2.59,23.197,0
2.591,29.971,0
2.592,11.478,0
2.593,8.914,0
2.594,-3.171,0
2.595,-5.368,0
2.596,-3.354,0
2.597,-5.185,0
2.598,-3.537,0
2.599,-5.002,0
2.6,-3.72,0
2.601,-5.002,0
2.602,-6.1,0
2.603,8.731,0
2.604,18.802,0
2.605,38.944,0
2.606,68.424,0
2.607,72.269,0
2.608,40.042,0
2.609,1.041,0
2.61,-14.523,0
2.611,-28.805,0
2.612,-33.017,0
2.613,-36.862,0
2.614,-33.383,0
2.615,-30.27,0
2.616,-33.2,0
2.617,-30.636,0
2.618,-23.495,0
2.619,-21.298,0
2.62,-15.256,0
2.621,-13.425,0
2.622,-8.481,0
2.623,-9.946,0
2.624,-11.227,0
2.625,-2.804,0
2.626,0.491,0
2.627,3.421,0
2.628,-1.156,0
2.629,4.52,0
2.63,8.365,0
2.631,5.069,0
2.632,4.52,0
2.633,1.773,0
2.634,-0.607,0
2.635,3.604,0
2.636,1.956,0
2.637,3.238,0
2.638,4.52,0
2.639,3.421,0
2.64,0.858,0
2.641,6.351,0
2.642,7.083,0
2.643,6.534,0
2.644,3.421,0
2.645,6.168,0
2.646,9.464,0
2.647,11.661,0
2.648,10.562,0
2.649,9.464,0
2.65,6.9,0
2.651,6.168,0
2.652,6.717,0
2.653,5.435,0
2.654,6.168,0
2.655,9.647,0
2.656,17.154,0
2.657,34.183,0
2.658,60.916,0
2.659,57.437,0
2.66,28.14,0
2.661,-7.382,0
2.662,-21.664,0
2.663,-34.482,0
2.664,-38.327,0
2.665,-41.806,0
2.666,-38.693,0
2.667,-35.763,0
2.668,-33.2,0
2.669,-30.82,0
2.67,-24.228,0
2.671,-26.242,0
2.672,-17.087,0
2.673,-15.439,0
2.674,-11.044,0
2.675,-9.762,0
2.676,-6.283,0
2.677,-5.185,0
2.678,-6.1,0
2.679,-7.016,0
2.68,-6.283,0
2.681,-8.481,0
2.682,-2.255,0
2.683,1.773,0
2.684,7.083,0
2.685,7.633,0
2.686,12.027,0
2.687,12.576,0
2.688,5.985,0
2.689,8.731,0
2.69,7.999,0
2.691,7.266,0
2.692,3.97,0
2.693,5.802,0
2.694,4.154,0
2.695,3.787,0
2.696,5.069,0
2.697,3.97,0
2.698,1.407,0
2.699,5.435,0
2.7,6.717,0
2.701,6.351,0
2.702,3.604,0
2.703,2.323,0
2.704,-0.241,0
2.705,5.252,0
2.706,16.788,0
2.707,41.69,0
2.708,73.917,0
2.709,52.31,0
2.71,16.788,0
2.711,2.506,0
2.712,-10.312,0
2.713,-29.904,0
2.714,-26.425,0
2.715,-29.538,0
2.716,-26.608,0
2.717,-29.172,0
2.718,-26.791,0
2.719,-24.594,0
2.72,-18.552,0
2.721,-16.72,0
2.722,-15.073,0
2.723,-10.678,0
2.724,-9.396,0
2.725,-5.917,0
2.726,-7.016,0
2.727,-6.1,0
2.728,-3.354,0
2.729,-2.621,0
2.73,1.224,0
2.731,0.675,0
2.732,1.224,0
2.733,-0.424,0
2.734,2.872,0
2.735,4.154,0
2.736,6.168,0
2.737,3.604,0
2.738,4.703,0
2.739,6.168,0
2.74,3.604,0
2.741,4.703,0
2.742,2.689,0
2.743,4.52,0
2.744,5.802,0
2.745,6.9,0
2.746,9.83,0
2.747,8.731,0
2.748,6.168,0
2.749,5.985,0
2.75,1.773,0
2.751,-2.621,0
2.752,0.125,0
2.753,2.506,0
2.754,3.055,0
2.755,6.168,0
2.756,12.393,0
2.757,26.309,0
2.758,52.493,0
2.759,63.114,0
2.76,72.635,0
2.761,45.902,0
2.762,28.14,0
2.763,-7.565,0
2.764,-21.847,0
2.765,-34.665,0
2.766,-38.51,0
2.767,-41.989,0
2.768,-45.102,0
2.769,-42.172,0
2.77,-34.299,0
2.771,-36.679,0
2.772,-30.087,0
2.773,-28.073,0
2.774,-26.242,0
2.775,-21.298,0
2.776,-16.904,0
2.777,-10.129,0
2.778,-9.03,0
2.779,-5.734,0
2.78,-0.79,0
2.781,0.125,0
2.782,4.154,0
2.783,1.956,0
2.784,0.125,0
2.785,4.52,0
2.786,6.168,0
2.787,3.787,0
2.788,4.154,0
2.789,10.379,0
2.79,7.633,0
2.791,6.9,0
2.792,4.703,0
2.793,5.252,0
2.794,8.365,0
2.795,7.816,0
2.796,8.182,0
2.797,3.97,0
2.798,3.421,0
2.799,4.703,0
2.8,5.985,0
2.801,12.21,0
2.802,7.633,0
2.803,8.365,0
2.804,4.52,0
2.805,1.59,0
2.806,1.041,0
2.807,10.562,0
2.808,25.577,0
2.809,51.761,0
2.81,69.522,0
2.811,53.409,0
2.812,32.718,0
2.813,3.238,0
2.814,-8.481,0
2.815,-26.242,0
2.816,-35.763,0
2.817,-38.693,0
2.818,-36.13,0
2.819,-33.749,0
2.82,-31.552,0
2.821,-29.538,0
2.822,-20.383,0
2.823,-18.735,0
2.824,-14.34,0
2.825,-18.368,0
2.826,-14.889,0
2.827,-11.594,0
2.828,-6.65,0
2.829,-2.072,0
2.83,3.604,0
2.831,1.407,0
2.832,1.956,0
2.833,6.351,0
2.834,3.604,0
2.835,11.112,0
2.836,28.14,0
2.837,16.055,0
2.838,9.464,0
2.839,-0.607,0
2.84,-6.1,0
2.841,-11.044,0
2.842,-12.509,0
2.843,-11.227,0
2.844,-7.748,0
2.845,-4.452,0
2.846,-3.537,0
2.847,-6.283,0
2.848,-3.903,0
2.849,-0.058,0
2.85,-1.889,0
2.851,-0.058,0
2.852,-0.607,0
2.853,2.689,0
2.854,0.491,0
2.855,1.59,0
2.856,3.787,0
2.857,9.464,0
2.858,21.915,0
2.859,31.07,0
2.86,55.972,0
2.861,80.875,0
2.862,64.761,0
2.863,26.126,0
2.864,-0.058,0
2.865,-14.34,0
2.866,-27.157,0
2.867,-31.003,0
2.868,-34.482,0
2.869,-37.594,0
2.87,-34.665,0
2.871,-26.791,0
2.872,-19.65,0
2.873,-21.847,0
2.874,-19.833,0
2.875,-10.678,0
2.876,-2.438,0
2.877,-6.833,0
2.878,-13.608,0
2.879,-7.565,0
2.88,-4.269,0
2.881,-3.354,0
2.882,-2.438,0
2.883,-1.706,0
2.884,0.491,0
2.885,-0.058,0
2.886,4.337,0
2.887,2.689,0
2.888,5.985,0
2.889,9.097,0
2.89,11.112,0
2.891,8.548,0
2.892,8.914,0
2.893,4.337,0
2.894,-0.241,0
2.895,-0.79,0
2.896,4.337,0
2.897,6.168,0
2.898,3.055,0
2.899,5.802,0
2.9,6.168,0
2.901,3.97,0
2.902,2.872,0
2.903,7.083,0
2.904,3.238,0
2.905,6.534,0
2.906,7.816,0
2.907,5.252,0
2.908,4.154,0
2.909,9.83,0
2.91,22.281,0
2.911,49.747,0
2.912,77.213,0
2.913,80.692,0
2.914,51.395,0
2.915,15.872,0
2.916,-7.931,0
2.917,-29.538,0
2.918,-41.257,0
2.919,-44.736,0
2.92,-47.848,0
2.921,-39.059,0
2.922,-41.623,0
2.923,-34.482,0
2.924,-27.89,0
2.925,-25.876,0
2.926,-20.383,0
2.927,-22.031,0
2.928,-17.636,0
2.929,-16.354,0
2.93,-17.453,0
2.931,-7.199,0
2.932,-3.171,0
2.933,-6.65,0
2.934,-3.354,0
2.935,-0.424,0
2.936,5.985,0
2.937,5.252,0
2.938,7.449,0
2.939,4.154,0
2.94,4.703,0
2.941,4.154,0
2.942,7.449,0
2.943,12.576,0
2.944,12.027,0
2.945,6.351,0
2.946,4.154,0
2.947,4.703,0
2.948,7.816,0
2.949,11.661,0
2.95,4.154,0
2.951,7.449,0
2.952,4.52,0
2.953,3.604,0
2.954,4.337,0
2.955,2.139,0
2.956,5.435,0
2.957,3.604,0
2.958,2.323,0
2.959,1.773,0
2.96,9.281,0
2.961,26.309,0
2.962,53.043,0
2.963,63.663,0
2.964,54.141,0
2.965,33.45,0
2.966,3.97,0
2.967,-23.495,0
2.968,-26.974,0
2.969,-36.496,0
2.97,-33.566,0
2.971,-31.003,0
2.972,-38.144,0
2.973,-31.552,0
2.974,-29.538,0
2.975,-27.707,0
2.976,-19.467,0
2.977,-15.073,0
2.978,-11.044,0
2.979,-12.143,0
2.98,-8.847,0
2.981,-3.903,0
2.982,-6.65,0
2.983,-4.269,0
2.984,-2.072,0
2.985,-1.523,0
2.986,5.435,0
2.987,4.52,0
2.988,13.675,0
2.989,7.633,0
2.99,4.337,0
2.991,5.252,0
2.992,2.506,0
2.993,1.773,0
2.994,10.196,0
2.995,13.492,0
2.996,16.422,0
2.997,15.506,0
2.998,16.239,0
2.999,21.549,0
3,18.253,0
3.001,20.084,0
3.002,23.929,0
3.003,27.225,0
3.004,25.028,0
3.005,23.013,0
3.006,18.802,0
3.007,17.154,0
3.008,12.576,0
3.009,-4.269,0
3.01,-11.227,0
3.011,-15.805,0
3.012,-5.002,0
3.013,11.478,0
3.014,18.07,0
3.015,40.225,0
3.016,31.436,0
3.017,18.07,0
3.018,-13.608,0
3.019,-52.609,0
3.02,-78.793,0
3.021,-102.6,0
3.022,-132.81,0
3.023,-144.53,0
3.024,-148.01,0
3.025,-151.12,0
3.026,-159.91,0
3.027,-173.28,0
3.028,-166.13,0
3.029,-155.15,0
3.03,-145.08,0
3.031,-128.6,0
3.032,-95.456,0
3.033,-23.862,0
3.034,89.115,0
3.035,134.16,0
3.036,174.99,0
3.037,162.54,0
3.038,128.85,0
3.039,98.087,0
3.04,88.748,0
3.041,80.325,0
3.042,72.635,0
3.043,93.509,0
3.044,112.37,0
3.045,141.12,0
3.046,146.24,0
3.047,141.48,0
3.048,137.27,0
3.049,125.55,0
3.05,114.93,0
3.051,124.45,0
3.052,109.62,0
3.053,90.946,0
3.054,54.508,0
3.055,38.944,0
3.056,34.183,0
3.057,47,0
3.058,35.281,0
3.059,31.802,0
3.06,22.098,0
3.061,12.576,0
3.062,15.506,0
3.063,18.07,0
3.064,34.915,0
3.065,50.296,0
3.066,32.169,0
3.067,0.491,0
3.068,-38.51,0
3.069,-54.074,0
3.07,-58.835,0
3.071,-71.652,0
3.072,-75.497,0
3.073,-86.117,0
3.074,-89.23,0
3.075,-98.019,0
3.076,-95.456,0
3.077,-93.075,0
3.078,-95.273,0
3.079,-85.202,0
3.08,-68.722,0
3.081,-53.342,0
3.082,-39.242,0
3.083,-52.06,0
3.084,-60.3,0
3.085,-55.905,0
3.086,-54.623,0
3.087,-51.144,0
3.088,-47.848,0
3.089,-46.933,0
3.09,-40.524,0
3.091,-36.496,0
3.092,-28.073,0
3.093,-20.199,0
3.094,-13.241,0
3.095,-8.664,0
3.096,-7.931,0
3.097,-2.621,0
3.098,-7.199,0
3.099,-1.523,0
3.1,2.323,0
3.101,6.9,0
3.102,8.731,0
3.103,8.182,0
3.104,0.675,0
3.105,1.773,0
3.106,4.703,0
3.107,11.112,0
3.108,10.379,0
3.109,12.576,0
3.11,7.999,0
3.111,11.112,0
3.112,10.562,0
3.113,18.985,0
3.114,35.098,0
3.115,59.451,0
3.116,68.973,0
3.117,89.664,0
3.118,81.79,0
3.119,45.352,0
3.12,8.731,0
3.121,-15.073,0
3.122,-27.89,0
3.123,-31.735,0
3.124,-35.214,0
3.125,-32.101,0
3.126,-29.172,0
3.127,-31.735,0
3.128,-29.355,0
3.129,-22.763,0
3.13,-20.749,0
3.131,-15.256,0
3.132,-10.312,0
3.133,-14.706,0
3.134,-7.931,0
3.135,-4.452,0
3.136,5.802,0
3.137,4.52,0
3.138,10.562,0
3.139,9.464,0
3.14,10.379,0
3.141,11.295,0
3.142,10.562,0
3.143,14.407,0
3.144,13.858,0
3.145,5.618,0
3.146,6.717,0
3.147,3.787,0
3.148,4.703,0
3.149,8.731,0
3.15,7.999,0
3.151,8.548,0
3.152,9.097,0
3.153,9.647,0
3.154,10.013,0
3.155,14.224,0
3.156,6.9,0
3.157,1.956,0
3.158,6.534,0
3.159,0.858,0
3.16,1.59,0
3.161,4.886,0
3.162,3.055,0
3.163,8.731,0
3.164,18.802,0
3.165,28.323,0
3.166,36.746,0
3.167,53.775,0
3.168,75.748,0
3.169,49.014,0
3.17,24.112,0
3.171,-5.185,0
3.172,-24.777,0
3.173,-35.397,0
3.174,-38.51,0
3.175,-35.58,0
3.176,-38.144,0
3.177,-26.059,0
3.178,-28.256,0
3.179,-30.27,0
3.18,-24.777,0
3.181,-23.129,0
3.182,-18.735,0
3.183,-17.453,0
3.184,-13.974,0
3.185,-15.073,0
3.186,-8.115,0
3.187,-9.03,0
3.188,-6.65,0
3.189,-1.34,0
3.19,-0.79,0
3.191,1.041,0
3.192,2.689,0
3.193,7.266,0
3.194,10.379,0
3.195,5.252,0
3.196,4.703,0
3.197,7.816,0
3.198,12.943,0
3.199,9.647,0
3.2,5.252,0
3.201,1.407,0
3.202,5.985,0
3.203,5.435,0
3.204,3.787,0
3.205,7.083,0
3.206,1.041,0
3.207,1.773,0
3.208,7.083,0
3.209,6.534,0
3.21,5.985,0
3.211,3.238,0
3.212,4.52,0
3.213,5.252,0
3.214,3.055,0
3.215,9.281,0
3.216,23.197,0
3.217,53.409,0
3.218,66.226,0
3.219,46.634,0
3.22,14.407,0
3.221,-7.199,0
3.222,-18.918,0
3.223,-15.439,0
3.224,-24.96,0
3.225,-33.749,0
3.226,-31.186,0
3.227,-24.045,0
3.228,-26.242,0
3.229,-16.171,0
3.23,-14.34,0
3.231,-15.988,0
3.232,-14.523,0
3.233,-10.495,0
3.234,-11.594,0
3.235,-8.298,0
3.236,-9.213,0
3.237,-4.635,0
3.238,-2.255,0
3.239,-4.452,0
3.24,-2.621,0
3.241,-0.79,0
3.242,-3.537,0
3.243,1.956,0
3.244,4.154,0
3.245,3.604,0
3.246,6.717,0
3.247,1.59,0
3.248,2.139,0
3.249,-2.255,0
3.25,1.59,0
3.251,1.956,0
3.252,4.154,0
3.253,6.9,0
3.254,8.731,0
3.255,9.097,0
3.256,5.802,0
3.257,12.76,0
3.258,5.802,0
3.259,-0.607,0
3.26,0.125,0
3.261,2.323,0
3.262,2.872,0
3.263,4.703,0
3.264,6.717,0
3.265,3.97,0
3.266,11.478,0
3.267,23.929,0
3.268,48.831,0
3.269,81.058,0
3.27,59.451,0
3.271,31.986,0
3.272,-0.241,0
3.273,-13.058,0
3.274,-24.777,0
3.275,-21.298,0
3.276,-30.82,0
3.277,-33.749,0
3.278,-31.186,0
3.279,-24.045,0
3.28,-21.847,0
3.281,-19.833,0
3.282,-18.002,0
3.283,-22.946,0
3.284,-18.552,0
3.285,-11.777,0
3.286,-10.678,0
3.287,-7.382,0
3.288,1.773,0
3.289,-1.706,0
3.29,-0.607,0
3.291,-1.523,0
3.292,4.886,0
3.293,7.266,0
3.294,7.999,0
3.295,7.449,0
3.296,7.999,0
3.297,2.872,0
3.298,6.168,0
3.299,6.717,0
3.3,3.97,0
3.301,0.675,0
3.302,0.308,0
3.303,2.323,0
3.304,1.224,0
3.305,0.858,0
3.306,2.872,0
3.307,3.604,0
3.308,2.872,0
3.309,0.675,0
3.31,1.407,0
3.311,0.675,0
3.312,3.238,0
3.313,1.407,0
3.314,-0.058,0
3.315,-2.072,0
3.316,-2.804,0
3.317,-2.621,0
3.318,-5.734,0
3.319,-4.635,0
3.32,-1.156,0
3.321,1.041,0
3.322,-0.058,0
3.323,4.154,0
3.324,0.308,0
3.325,-2.988,0
3.326,3.97,0
3.327,19.168,0
3.328,30.155,0
3.329,12.027,0
3.33,14.407,0
3.331,43.155,0
3.332,54.874,0
3.333,65.494,0
3.334,36.197,0
3.335,0.675,0
3.336,-13.608,0
3.337,-26.425,0
3.338,-38.144,0
3.339,-41.623,0
3.34,-38.51,0
3.341,-35.58,0
3.342,-33.017,0
3.343,-30.636,0
3.344,-32.834,0
3.345,-30.82,0
3.346,-18.002,0
3.347,-16.354,0
3.348,-14.889,0
3.349,-13.608,0
3.35,-7.565,0
3.351,-8.664,0
3.352,-3.72,0
3.353,-0.973,0
3.354,4.703,0
3.355,2.506,0
3.356,5.802,0
3.357,6.351,0
3.358,4.703,0
3.359,7.999,0
3.36,7.633,0
3.361,10.379,0
3.362,7.816,0
3.363,8.182,0
3.364,6.717,0
3.365,4.886,0
3.366,6.717,0
3.367,5.985,0
3.368,9.464,0
3.369,16.971,0
3.37,34,0
3.371,70.438,0
3.372,54.874,0
3.373,21.549,0
3.374,-0.058,0
3.375,-11.777,0
3.376,-22.397,0
3.377,-25.51,0
3.378,-34.299,0
3.379,-26.425,0
3.38,-28.805,0
3.381,-22.214,0
3.382,-20.199,0
3.383,-18.368,0
3.384,-13.425,0
3.385,-9.03,0
3.386,-10.312,0
3.387,-6.833,0
3.388,-5.734,0
3.389,-4.819,0
3.39,-3.903,0
3.391,0.125,0
3.392,0.858,0
3.393,1.407,0
3.394,1.956,0
3.395,1.407,0
3.396,5.985,0
3.397,2.872,0
3.398,3.421,0
3.399,-2.072,0
3.4,-1.34,0
3.401,1.956,0
3.402,1.407,0
3.403,-0.241,0
3.404,6.351,0
3.405,7.266,0
3.406,7.999,0
3.407,-2.072,0
3.408,-0.79,0
3.409,-1.889,0
3.41,1.407,0
3.411,2.323,0
3.412,5.069,0
3.413,1.041,0
3.414,0.308,0
3.415,2.139,0
3.416,0.308,0
3.417,3.055,0
3.418,3.604,0
3.419,11.112,0
3.42,21.365,0
3.421,41.873,0
3.422,44.803,0
3.423,52.677,0
3.424,40.592,0
3.425,60.55,0
3.426,63.114,0
3.427,36.38,0
3.428,-2.988,0
3.429,-29.172,0
3.43,-52.975,0
3.431,-48.764,0
3.432,-52.609,0
3.433,-56.088,0
3.434,-52.975,0
3.435,-50.046,0
3.436,-42.172,0
3.437,-35.031,0
3.438,-28.439,0
3.439,-22.397,0
3.44,-20.566,0
3.441,-12.326,0
3.442,-13.791,0
3.443,-12.509,0
3.444,-9.03,0
3.445,-1.156,0
3.446,-2.072,0
3.447,2.506,0
3.448,0.125,0
3.449,3.97,0
3.45,4.52,0
3.451,6.351,0
3.452,9.097,0
3.453,7.816,0
3.454,5.618,0
3.455,8.365,0
3.456,12.576,0
3.457,12.027,0
3.458,14.407,0
3.459,8.365,0
3.46,9.097,0
3.461,6.9,0
3.462,10.196,0
3.463,7.083,0
3.464,8.731,0
3.465,9.097,0
3.466,4.886,0
3.467,-0.241,0
3.468,0.125,0
3.469,1.956,0
3.47,11.478,0
3.471,20.999,0
3.472,39.493,0
3.473,58.17,0
3.474,60.55,0
3.475,71.536,0
3.476,65.494,0
3.477,63.663,0
3.478,38.76,0
3.479,-7.748,0
3.48,-26.608,0
3.481,-43.82,0
3.482,-48.947,0
3.483,-53.708,0
3.484,-49.496,0
3.485,-45.651,0
3.486,-42.172,0
3.487,-39.059,0
3.488,-36.13,0
3.489,-33.566,0
3.49,-26.425,0
3.491,-19.833,0
3.492,-17.819,0
3.493,-15.988,0
3.494,-11.044,0
3.495,-6.65,0
3.496,-2.621,0
3.497,-1.523,0
3.498,-0.424,0
3.499,2.506,0
3.5,7.083,0
3.501,9.464,0
3.502,7.266,0
3.503,7.816,0
3.504,5.985,0
3.505,5.435,0
3.506,10.928,0
3.507,8.731,0
3.508,12.027,0
3.509,10.196,0
3.51,11.844,0
3.511,9.464,0
3.512,6.351,0
3.513,4.337,0
3.514,9.281,0
3.515,11.112,0
3.516,14.224,0
3.517,11.478,0
3.518,8.182,0
3.519,5.985,0
3.52,6.351,0
3.521,12.576,0
3.522,26.492,0
3.523,56.705,0
3.524,78.311,0
3.525,74.466,0
3.526,42.24,0
3.527,3.238,0
3.528,-12.326,0
3.529,-26.608,0
3.53,-30.82,0
3.531,-34.665,0
3.532,-38.144,0
3.533,-35.031,0
3.534,-32.101,0
3.535,-29.538,0
3.536,-27.157,0
3.537,-29.355,0
3.538,-31.369,0
3.539,-18.552,0
3.54,-16.904,0
3.541,-12.509,0
3.542,-11.227,0
3.543,-5.185,0
3.544,0.491,0
3.545,-0.424,0
3.546,0.491,0
3.547,4.52,0
3.548,6.717,0
3.549,6.168,0
3.55,5.618,0
3.551,6.168,0
3.552,2.872,0
3.553,-0.241,0
3.554,3.604,0
3.555,3.238,0
3.556,1.956,0
3.557,3.97,0
3.558,8.914,0
3.559,4.337,0
3.56,6.168,0
3.561,5.618,0
3.562,5.985,0
3.563,3.787,0
3.564,1.041,0
3.565,2.139,0
3.566,7.633,0
3.567,3.787,0
3.568,-2.438,0
3.569,1.59,0
3.57,3.787,0
3.571,3.055,0
3.572,13.309,0
3.573,23.746,0
3.574,33.267,0
3.575,14.774,0
3.576,17.337,0
3.577,39.31,0
3.578,48.099,0
3.579,45.535,0
3.58,23.563,0
3.581,-3.171,0
3.582,-28.073,0
3.583,-37.594,0
3.584,-40.524,0
3.585,-37.961,0
3.586,-45.102,0
3.587,-42.905,0
3.588,-36.862,0
3.589,-31.369,0
3.59,-29.721,0
3.591,-25.326,0
3.592,-21.298,0
3.593,-17.819,0
3.594,-12.143,0
3.595,-11.227,0
3.596,-6.65,0
3.597,-0.973,0
3.598,-1.706,0
3.599,0.125,0
3.6,-1.706,0
3.601,5.618,0
3.602,6.534,0
3.603,9.281,0
3.604,8.548,0
3.605,4.703,0
3.606,5.252,0
3.607,3.421,0
3.608,6.168,0
3.609,4.886,0
3.61,5.252,0
3.611,7.266,0
3.612,6.168,0
3.613,6.534,0
3.614,5.802,0
3.615,3.97,0
3.616,6.9,0
3.617,5.069,0
3.618,6.168,0
3.619,5.435,0
3.62,2.872,0
3.621,4.52,0
3.622,7.083,0
3.623,6.9,0
3.624,11.112,0
3.625,20.633,0
3.626,41.141,0
3.627,67.874,0
3.628,78.494,0
3.629,55.972,0
3.63,11.478,0
3.631,-7.382,0
3.632,-36.13,0
3.633,-41.257,0
3.634,-46.017,0
3.635,-41.806,0
3.636,-45.651,0
3.637,-42.172,0
3.638,-39.059,0
3.639,-30.27,0
3.64,-27.707,0
3.641,-20.566,0
3.642,-18.368,0
3.643,-20.383,0
3.644,-18.552,0
3.645,-13.608,0
3.646,-12.143,0
3.647,-2.621,0
3.648,-3.72,0
3.649,1.956,0
3.65,4.886,0
3.651,3.97,0
3.652,4.703,0
3.653,8.548,0
3.654,9.097,0
3.655,8.548,0
3.656,6.9,0
3.657,8.182,0
3.658,7.816,0
3.659,8.182,0
3.66,4.703,0
3.661,2.506,0
3.662,-0.241,0
3.663,1.59,0
3.664,0.491,0
3.665,0.308,0
3.666,4.52,0
3.667,3.97,0
3.668,1.224,0
3.669,3.604,0
3.67,4.886,0
3.671,7.633,0
3.672,8.914,0
3.673,7.816,0
3.674,13.309,0
3.675,24.844,0
3.676,49.747,0
3.677,81.973,0
3.678,60.367,0
3.679,24.844,0
3.68,1.041,0
3.681,-20.566,0
3.682,-32.284,0
3.683,-42.905,0
3.684,-39.792,0
3.685,-36.862,0
3.686,-34.299,0
3.687,-27.157,0
3.688,-24.96,0
3.689,-18.918,0
3.69,-13.425,0
3.691,-8.481,0
3.692,-7.016,0
3.693,-2.988,0
3.694,-4.086,0
3.695,-0.79,0
3.696,2.139,0
3.697,3.055,0
3.698,2.323,0
3.699,6.168,0
3.7,5.618,0
3.701,3.787,0
3.702,8.914,0
3.703,10.745,0
3.704,7.633,0
3.705,7.083,0
3.706,9.464,0
3.707,4.337,0
3.708,4.886,0
3.709,1.773,0
3.71,5.618,0
3.711,4.337,0
3.712,2.139,0
3.713,4.886,0
3.714,2.323,0
3.715,7.816,0
3.716,7.083,0
3.717,0.858,0
3.718,-4.819,0
3.719,-4.086,0
3.72,-2.255,0
3.721,-1.706,0
3.722,3.421,0
3.723,1.59,0
3.724,-0.241,0
3.725,6.717,0
3.726,20.633,0
3.727,46.817,0
3.728,57.437,0
3.729,66.959,0
3.73,46.268,0
3.731,27.591,0
3.732,-4.086,0
3.733,-25.693,0
3.734,-37.411,0
3.735,-40.89,0
3.736,-37.778,0
3.737,-40.707,0
3.738,-38.144,0
3.739,-35.763,0
3.74,-33.566,0
3.741,-27.524,0
3.742,-25.693,0
3.743,-17.453,0
3.744,-18.918,0
3.745,-14.889,0
3.746,-8.847,0
3.747,-5.551,0
3.748,-4.635,0
3.749,-0.058,0
3.75,-0.79,0
3.751,3.055,0
3.752,4.886,0
3.753,1.773,0
3.754,-0.973,0
3.755,3.604,0
3.756,5.435,0
3.757,7.083,0
3.758,5.802,0
3.759,8.914,0
3.76,9.281,0
3.761,8.182,0
3.762,3.421,0
3.763,6.534,0
3.764,4.886,0
3.765,8.182,0
3.766,7.816,0
3.767,8.182,0
3.768,8.548,0
3.769,4.52,0
3.77,-0.058,0
3.771,1.773,0
3.772,6.9,0
3.773,3.604,0
3.774,5.985,0
3.775,6.534,0
3.776,14.957,0
3.777,26.126,0
3.778,48.648,0
3.779,64.761,0
3.78,61.832,0
3.781,32.352,0
3.782,4.886,0
3.783,-12.875,0
3.784,-28.989,0
3.785,-31.918,0
3.786,-34.482,0
3.787,-36.862,0
3.788,-34.665,0
3.789,-28.622,0
3.79,-26.791,0
3.791,-21.847,0
3.792,-20.383,0
3.793,-19.101,0
3.794,-15.622,0
3.795,-16.72,0
3.796,-7.565,0
3.797,0.858,0
3.798,11.112,0
3.799,15.14,0
3.8,14.041,0
3.801,17.337,0
3.802,20.267,0
3.803,26.676,0
3.804,29.056,0
3.805,28.323,0
3.806,25.028,0
3.807,26.859,0
3.808,20.633,0
3.809,18.253,0
3.81,8.182,0
3.811,-4.086,0
3.812,-15.622,0
3.813,-23.129,0
3.814,-29.904,0
3.815,-35.947,0
3.816,-37.045,0
3.817,-25.876,0
3.818,-3.354,0
3.819,19.168,0
3.82,-1.523,0
3.821,-31.003,0
3.822,-58.469,0
3.823,-76.23,0
3.824,-98.752,0
3.825,-113.4,0
3.826,-122.19,0
3.827,-114.32,0
3.828,-121.46,0
3.829,-101.5,0
3.83,-77.328,0
3.831,-61.215,0
3.832,-70.004,0
3.833,-83.371,0
3.834,-46.933,0
3.835,31.802,0
3.836,88.199,0
3.837,118.96,0
3.838,109.62,0
3.839,84.354,0
3.84,76.663,0
3.841,55.789,0
3.842,49.564,0
3.843,43.887,0
3.844,49.014,0
3.845,72.818,0
3.846,94.425,0
3.847,121.89,0
3.848,125.37,0
3.849,128.48,0
3.85,125.55,0
3.851,112.19,0
3.852,114.57,0
3.853,116.76,0
3.854,102.66,0
3.855,82.523,0
3.856,58.353,0
3.857,48.831,0
3.858,45.902,0
3.859,48.465,0
3.86,46.085,0
3.861,35.098,0
3.862,20.999,0
3.863,11.844,0
3.864,0.308,0
3.865,-10.129,0
3.866,-11.41,0
3.867,-17.453,0
3.868,-25.326,0
3.869,-36.496,0
3.87,-37.961,0
3.871,-36.679,0
3.872,-33.2,0
3.873,-41.073,0
3.874,-44.003,0
3.875,-54.257,0
3.876,-53.342,0
3.877,-60.116,0
3.878,-48.947,0
3.879,-53.342,0
3.88,-32.834,0
3.881,5.802,0
3.882,-9.762,0
3.883,-43.088,0
3.884,-64.694,0
3.885,-76.413,0
3.886,-79.892,0
3.887,-76.779,0
3.888,-73.849,0
3.889,-71.286,0
3.89,-64.145,0
3.891,-57.553,0
3.892,-55.539,0
3.893,-42.721,0
3.894,-37.778,0
3.895,-30.27,0
3.896,-31.552,0
3.897,-23.129,0
3.898,-19.833,0
3.899,-8.664,0
3.9,-7.199,0
3.901,-3.171,0
3.902,0.308,0
3.903,1.407,0
3.904,0.491,0
3.905,8.914,0
3.906,5.618,0
3.907,8.548,0
3.908,7.633,0
3.909,10.013,0
3.91,10.745,0
3.911,12.576,0
3.912,12.027,0
3.913,13.675,0
3.914,13.309,0
3.915,13.675,0
3.916,10.928,0
3.917,16.605,0
3.918,14.224,0
3.919,10.379,0
3.92,14.957,0
3.921,14.407,0
3.922,12.76,0
3.923,15.14,0
3.924,10.013,0
3.925,9.464,0
3.926,10.013,0
3.927,8.914,0
3.928,12.76,0
3.929,20.267,0
3.93,32.718,0
3.931,57.62,0
3.932,68.24,0
3.933,84.354,0
3.934,81.424,0
3.935,46.451,0
3.936,13.126,0
3.937,-17.087,0
3.938,-28.805,0
3.939,-39.426,0
3.94,-42.538,0
3.941,-39.609,0
3.942,-42.172,0
3.943,-35.031,0
3.944,-32.834,0
3.945,-26.791,0
3.946,-24.96,0
3.947,-23.312,0
3.948,-15.805,0
3.949,-11.777,0
3.95,-10.678,0
3.951,-5.002,0
3.952,-0.058,0
3.953,-2.804,0
3.954,-0.424,0
3.955,3.421,0
3.956,5.252,0
3.957,4.703,0
3.958,4.154,0
3.959,7.449,0
3.96,9.647,0
3.961,10.013,0
3.962,10.379,0
3.963,8.548,0
3.964,6.534,0
3.965,9.097,0
3.966,9.464,0
3.967,10.928,0
3.968,6.717,0
3.969,6.168,0
3.97,7.816,0
3.971,8.182,0
3.972,7.816,0
3.973,5.069,0
3.974,5.435,0
3.975,5.069,0
3.976,4.337,0
3.977,6.168,0
3.978,3.787,0
3.979,6.168,0
3.98,10.196,0
3.981,18.619,0
3.982,37.113,0
3.983,61.282,0
3.984,77.396,0
3.985,56.705,0
3.986,21.732,0
3.987,-11.594,0
3.988,-24.411,0
3.989,-28.256,0
3.99,-38.876,0
3.991,-41.989,0
3.992,-39.059,0
3.993,-31.186,0
3.994,-33.566,0
3.995,-31.369,0
3.996,-25.326,0
3.997,-23.495,0
3.998,-18.552,0
3.999,-14.157,0
4,-12.875,0
4.001,-11.777,0
4.002,-8.481,0
4.003,-5.551,0
4.004,-2.804,0
4.005,-3.537,0
4.006,-1.34,0
4.007,1.956,0
4.008,1.407,0
4.009,6.534,0
4.01,3.238,0
4.011,7.633,0
4.012,7.083,0
4.013,7.449,0
4.014,5.252,0
4.015,4.154,0
4.016,5.252,0
4.017,6.351,0
4.018,5.618,0
4.019,5.435,0
4.02,4.703,0
4.021,4.52,0
4.022,5.069,0
4.023,6.9,0
4.024,3.421,0
4.025,2.139,0
4.026,2.506,0
4.027,1.407,0
4.028,2.506,0
4.029,0.125,0
4.03,1.956,0
4.031,-0.058,0
4.032,4.154,0
4.033,13.675,0
4.034,34.183,0
4.035,54.874,0
4.036,68.24,0
4.037,65.86,0
4.038,63.663,0
4.039,33.45,0
4.04,-14.157,0
4.041,-33.017,0
4.042,-38.693,0
4.043,-54.257,0
4.044,-49.496,0
4.045,-53.708,0
4.046,-41.989,0
4.047,-45.468,0
4.048,-42.355,0
4.049,-33.566,0
4.05,-31.003,0
4.051,-28.622,0
4.052,-17.636,0
4.053,-19.65,0
4.054,-14.157,0
4.055,-9.213,0
4.056,-7.748,0
4.057,-6.467,0
4.058,-0.424,0
4.059,2.872,0
4.06,5.802,0
4.061,8.548,0
4.062,9.281,0
4.063,20.816,0
4.064,32.352,0
4.065,45.902,0
4.066,25.76,0
4.067,17.886,0
4.068,10.745,0
4.069,8.548,0
4.07,6.534,0
4.071,4.703,0
4.072,-0.241,0
4.073,-1.706,0
4.074,-0.424,0
4.075,-3.903,0
4.076,-2.804,0
4.077,-1.889,0
4.078,0.858,0
4.079,-4.819,0
4.08,-0.607,0
4.081,0.125,0
4.082,10.379,0
4.083,26.859,0
4.084,55.606,0
4.085,83.072,0
4.086,72.452,0
4.087,43.155,0
4.088,15.689,0
4.089,-9.213,0
4.09,-18.735,0
4.091,-21.664,0
4.092,-24.228,0
4.093,-31.369,0
4.094,-37.961,0
4.095,-35.947,0
4.096,-30.453,0
4.097,-25.51,0
4.098,-21.115,0
4.099,-17.087,0
4.1,-18.185,0
4.101,-14.889,0
4.102,-7.931,0
4.103,-5.185,0
4.104,-4.452,0
4.105,-5.185,0
4.106,-3.354,0
4.107,-1.523,0
4.108,2.323,0
4.109,2.689,0
4.11,1.407,0
4.111,2.506,0
4.112,1.407,0
4.113,3.97,0
4.114,3.787,0
4.115,7.999,0
4.116,1.041,0
4.117,3.787,0
4.118,3.055,0
4.119,5.252,0
4.12,5.802,0
4.121,7.633,0
4.122,10.379,0
4.123,9.097,0
4.124,4.886,0
4.125,8.731,0
4.126,1.224,0
4.127,2.323,0
4.128,3.238,0
4.129,2.323,0
4.13,-3.354,0
4.131,-3.537,0
4.132,-5.734,0
4.133,4.52,0
4.134,14.957,0
4.135,35.465,0
4.136,74.1,0
4.137,58.536,0
4.138,25.211,0
4.139,-5.002,0
4.14,-16.72,0
4.141,-27.341,0
4.142,-30.453,0
4.143,-33.383,0
4.144,-30.82,0
4.145,-28.439,0
4.146,-21.847,0
4.147,-19.833,0
4.148,-21.664,0
4.149,-23.312,0
4.15,-18.918,0
4.151,-14.889,0
4.152,-8.847,0
4.153,-12.143,0
4.154,-2.988,0
4.155,0.491,0
4.156,-0.607,0
4.157,0.308,0
4.158,4.886,0
4.159,2.506,0
4.16,1.773,0
4.161,1.224,0
4.162,3.055,0
4.163,5.802,0
4.164,3.421,0
4.165,5.618,0
4.166,2.872,0
4.167,5.435,0
4.168,2.872,0
4.169,3.604,0
4.17,2.323,0
4.171,4.703,0
4.172,3.97,0
4.173,3.238,0
4.174,3.055,0
4.175,1.59,0
4.176,2.139,0
4.177,2.323,0
4.178,3.238,0
4.179,5.252,0
4.18,6.351,0
4.181,2.323,0
4.182,1.59,0
4.183,-1.156,0
4.184,6.351,0
4.185,23.38,0
4.186,40.225,0
4.187,55.606,0
4.188,69.705,0
4.189,67.874,0
4.19,42.972,0
4.191,-3.537,0
4.192,-22.397,0
4.193,-28.073,0
4.194,-33.2,0
4.195,-37.961,0
4.196,-42.172,0
4.197,-38.327,0
4.198,-41.806,0
4.199,-38.693,0
4.2,-35.763,0
4.201,-22.397,0
4.202,-20.016,0
4.203,-13.425,0
4.204,-11.41,0
4.205,-13.241,0
4.206,-11.594,0
4.207,-7.199,0
4.208,-3.171,0
4.209,0.308,0
4.21,3.604,0
4.211,2.689,0
4.212,3.604,0
4.213,5.985,0
4.214,2.139,0
4.215,5.435,0
4.216,5.985,0
4.217,6.534,0
4.218,4.154,0
4.219,4.52,0
4.22,5.618,0
4.221,6.717,0
4.222,3.421,0
4.223,5.435,0
4.224,5.069,0
4.225,3.238,0
4.226,1.773,0
4.227,5.985,0
4.228,7.816,0
4.229,12.943,0
4.23,12.393,0
4.231,9.281,0
4.232,5.435,0
4.233,0.858,0
4.234,-2.438,0
4.235,4.52,0
4.236,19.718,0
4.237,39.676,0
4.238,58.353,0
4.239,80.325,0
4.24,53.592,0
4.241,21.365,0
4.242,-8.847,0
4.243,-20.566,0
4.244,-31.186,0
4.245,-34.299,0
4.246,-37.228,0
4.247,-34.665,0
4.248,-37.045,0
4.249,-34.848,0
4.25,-28.805,0
4.251,-26.974,0
4.252,-22.031,0
4.253,-17.636,0
4.254,-16.354,0
4.255,-12.875,0
4.256,-11.777,0
4.257,-10.861,0
4.258,-2.438,0
4.259,-1.34,0
4.26,-0.424,0
4.261,2.323,0
4.262,1.59,0
4.263,2.323,0
4.264,1.773,0
4.265,6.168,0
4.266,5.618,0
4.267,7.999,0
4.268,5.802,0
4.269,5.435,0
4.27,5.802,0
4.271,6.168,0
4.272,4.703,0
4.273,3.97,0
4.274,1.041,0
4.275,3.604,0
4.276,5.435,0
4.277,6.168,0
4.278,5.985,0
4.279,7.266,0
4.28,5.802,0
4.281,2.506,0
4.282,2.139,0
4.283,4.886,0
4.284,1.59,0
4.285,5.802,0
4.286,14.224,0
4.287,25.394,0
4.288,41.873,0
4.289,44.071,0
4.29,66.226,0
4.291,75.015,0
4.292,50.845,0
4.293,8.548,0
4.294,-20.199,0
4.295,-35.763,0
4.296,-40.524,0
4.297,-44.736,0
4.298,-40.89,0
4.299,-44.369,0
4.3,-41.257,0
4.301,-38.327,0
4.302,-30.453,0
4.303,-23.312,0
4.304,-21.115,0
4.305,-19.101,0
4.306,-17.27,0
4.307,-12.326,0
4.308,-7.931,0
4.309,1.59,0
4.31,20.084,0
4.311,27.957,0
4.312,11.112,0
4.313,4.52,0
4.314,-1.523,0
4.315,0.308,0
4.316,-1.34,0
4.317,-2.804,0
4.318,-1.523,0
4.319,-2.621,0
4.32,-8.298,0
4.321,-5.368,0
4.322,-2.621,0
4.323,-0.241,0
4.324,-0.973,0
4.325,-0.424,0
4.326,-0.973,0
4.327,4.154,0
4.328,3.604,0
4.329,4.154,0
4.33,4.703,0
4.331,3.421,0
4.332,1.224,0
4.333,5.069,0
4.334,7.449,0
4.335,7.449,0
4.336,7.816,0
4.337,14.041,0
4.338,26.126,0
4.339,51.029,0
4.34,68.79,0
4.341,46.268,0
4.342,13.675,0
4.343,0.858,0
4.344,-10.861,0
4.345,-21.481,0
4.346,-24.594,0
4.347,-21.664,0
4.348,-24.228,0
4.349,-21.847,0
4.35,-28.439,0
4.351,-22.397,0
4.352,-20.566,0
4.353,-18.918,0
4.354,-11.41,0
4.355,-10.129,0
4.356,-6.65,0
4.357,-5.551,0
4.358,-4.635,0
4.359,-7.382,0
4.36,-5.002,0
4.361,-4.269,0
4.362,-0.973,0
4.363,2.139,0
4.364,0.491,0
4.365,1.773,0
4.366,3.97,0
4.367,4.337,0
4.368,4.703,0
4.369,7.266,0
4.37,9.281,0
4.371,7.449,0
4.372,8.182,0
4.373,8.731,0
4.374,5.435,0
4.375,5.802,0
4.376,6.168,0
4.377,0.491,0
4.378,4.52,0
4.379,0.675,0
4.38,3.97,0
4.381,2.139,0
4.382,0.491,0
4.383,-4.086,0
4.384,-5.917,0
4.385,-4.269,0
4.386,0.858,0
4.387,2.139,0
4.388,9.097,0
4.389,24.295,0
4.39,53.043,0
4.391,72.635,0
4.392,54.874,0
4.393,25.577,0
4.394,-1.889,0
4.395,-19.65,0
4.396,-29.172,0
4.397,-26.242,0
4.398,-28.805,0
4.399,-31.186,0
4.4,-33.383,0
4.401,-31.369,0
4.402,-25.876,0
4.403,-27.524,0
4.404,-23.129,0
4.405,-21.847,0
4.406,-15.805,0
4.407,-12.509,0
4.408,-9.579,0
4.409,-6.833,0
4.41,-6.1,0
4.411,-3.903,0
4.412,0.675,0
4.413,-1.156,0
4.414,2.689,0
4.415,1.407,0
4.416,1.773,0
4.417,2.872,0
4.418,4.703,0
4.419,6.534,0
4.42,6.717,0
4.421,4.886,0
4.422,6.168,0
4.423,8.731,0
4.424,7.633,0
4.425,10.379,0
4.426,7.816,0
4.427,3.055,0
4.428,-2.621,0
4.429,-3.354,0
4.43,1.224,0
4.431,4.337,0
4.432,-0.79,0
4.433,-0.241,0
4.434,-0.79,0
4.435,5.435,0
4.436,6.168,0
4.437,8.914,0
4.438,6.717,0
4.439,16.971,0
4.44,27.408,0
4.441,47.916,0
4.442,56.705,0
4.443,54.141,0
4.444,47,0
4.445,22.647,0
4.446,-6.65,0
4.447,-18.368,0
4.448,-28.989,0
4.449,-38.51,0
4.45,-35.58,0
4.451,-38.144,0
4.452,-35.763,0
4.453,-29.172,0
4.454,-27.157,0
4.455,-28.989,0
4.456,-20.749,0
4.457,-16.354,0
4.458,-9.579,0
4.459,-6.1,0
4.46,-5.002,0
4.461,-4.086,0
4.462,0.491,0
4.463,-1.889,0
4.464,0.308,0
4.465,-0.241,0
4.466,-0.79,0
4.467,-0.241,0
4.468,2.139,0
4.469,3.421,0
4.47,4.52,0
4.471,5.618,0
4.472,3.055,0
4.473,3.238,0
4.474,1.407,0
4.475,3.787,0
4.476,8.365,0
4.477,6.534,0
4.478,4.703,0
4.479,4.154,0
4.48,2.872,0
4.481,2.506,0
4.482,0.491,0
4.483,1.59,0
4.484,-1.706,0
4.485,-0.607,0
4.486,4.337,0
4.487,7.633,0
4.488,5.985,0
4.489,1.59,0
4.49,4.337,0
4.491,11.844,0
4.492,28.873,0
4.493,55.606,0
4.494,73.367,0
4.495,70.255,0
4.496,37.662,0
4.497,7.449,0
4.498,-20.016,0
4.499,-30.636,0
4.5,-40.158,0
4.501,-37.228,0
4.502,-39.792,0
4.503,-37.411,0
4.504,-35.214,0
4.505,-29.172,0
4.506,-27.341,0
4.507,-22.397,0
4.508,-23.862,0
4.509,-17.087,0
4.51,-15.988,0
4.511,-10.312,0
4.512,-7.382,0
4.513,-4.635,0
4.514,-0.607,0
4.515,1.59,0
4.516,6.168,0
4.517,4.337,0
4.518,1.59,0
4.519,4.886,0
4.52,6.168,0
4.521,5.069,0
4.522,5.435,0
4.523,6.534,0
4.524,4.52,0
4.525,5.252,0
4.526,5.985,0
4.527,4.52,0
4.528,7.816,0
4.529,10.013,0
4.53,6.168,0
4.531,2.872,0
4.532,5.069,0
4.533,2.323,0
4.534,4.886,0
4.535,5.985,0
4.536,9.281,0
4.537,11.478,0
4.538,8.731,0
4.539,11.112,0
4.54,8.548,0
4.541,14.041,0
4.542,25.577,0
4.543,40.592,0
4.544,70.804,0
4.545,92.41,0
4.546,72.818,0
4.547,26.309,0
4.548,7.449,0
4.549,-9.762,0
4.55,-14.889,0
4.551,-10.129,0
4.552,-14.34,0
4.553,-18.185,0
4.554,-14.706,0
4.555,-11.594,0
4.556,15.14,0
4.557,4.52,0
4.558,-5.002,0
4.559,-25.693,0
4.56,-39.059,0
4.561,-51.144,0
4.562,-48.947,0
4.563,-59.018,0
4.564,-60.849,0
4.565,-55.905,0
4.566,-45.468,0
4.567,-35.947,0
4.568,-32.468,0
4.569,-29.172,0
4.57,-40.341,0
4.571,-53.891,0
4.572,-70.37,0
4.573,-85.751,0
4.574,-103.88,0
4.575,-115.96,0
4.576,-126.95,0
4.577,-132.99,0
4.578,-134.82,0
4.579,-129.88,0
4.58,-125.48,0
4.581,-104.98,0
4.582,-72.385,0
4.583,-7.382,0
4.584,95.34,0
4.585,136.17,0
4.586,173.53,0
4.587,162.36,0
4.588,131.59,0
4.589,122.26,0
4.59,90.946,0
4.591,99.368,0
4.592,91.678,0
4.593,98.636,0
4.594,155.95,0
4.595,194.4,0
4.596,173.53,0
4.597,141.85,0
4.598,136.17,0
4.599,109.99,0
4.6,95.706,0
4.601,82.889,0
4.602,79.044,0
4.603,68.424,0
4.604,52.31,0
4.605,31.619,0
4.606,18.253,0
4.607,20.633,0
4.608,18.436,0
4.609,24.478,0
4.61,18.985,0
4.611,10.745,0
4.612,-2.804,0
4.613,-8.298,0
4.614,-16.537,0
4.615,-24.045,0
4.616,-22.763,0
4.617,-33.932,0
4.618,-41.44,0
4.619,-42.721,0
4.62,-41.623,0
4.621,-42.721,0
4.622,-41.806,0
4.623,-50.229,0
4.624,-49.13,0
4.625,-54.074,0
4.626,-58.652,0
4.627,-61.032,0
4.628,-64.877,0
4.629,-65.427,0
4.63,-67.258,0
4.631,-64.511,0
4.632,-64.145,0
4.633,-61.032,0
4.634,-57.187,0
4.635,-51.694,0
4.636,-41.623,0
4.637,-37.594,0
4.638,-31.552,0
4.639,-30.453,0
4.64,-31.369,0
4.641,-24.777,0
4.642,-20.199,0
4.643,-7.748,0
4.644,8.731,0
4.645,41.873,0
4.646,56.156,0
4.647,34.549,0
4.648,7.083,0
4.649,-10.678,0
4.65,-20.199,0
4.651,-28.989,0
4.652,-31.552,0
4.653,-29.172,0
4.654,-26.974,0
4.655,-24.96,0
4.656,-15.805,0
4.657,-14.157,0
4.658,-15.622,0
4.659,-11.594,0
4.66,-8.115,0
4.661,-4.819,0
4.662,-3.903,0
4.663,0.675,0
4.664,3.055,0
4.665,5.252,0
4.666,8.548,0
4.667,6.717,0
4.668,12.943,0
4.669,12.21,0
4.67,11.478,0
4.671,12.027,0
4.672,13.858,0
4.673,10.013,0
4.674,13.309,0
4.675,13.675,0
4.676,10.928,0
4.677,9.83,0
4.678,8.731,0
4.679,12.76,0
4.68,11.112,0
4.681,7.816,0
4.682,8.182,0
4.683,10.196,0
4.684,10.562,0
4.685,10.928,0
4.686,10.196,0
4.687,10.379,0
4.688,11.112,0
4.689,7.999,0
4.69,10.013,0
4.691,8.914,0
4.692,8.182,0
4.693,9.281,0
4.694,13.858,0
4.695,24.112,0
4.696,46.634,0
4.697,75.931,0
4.698,48.465,0
4.699,30.704,0
4.7,1.407,0
4.701,-10.312,0
4.702,-20.932,0
4.703,-30.453,0
4.704,-33.383,0
4.705,-30.82,0
4.706,-33.2,0
4.707,-31.003,0
4.708,-28.989,0
4.709,-23.495,0
4.71,-21.847,0
4.711,-14.34,0
4.712,-7.565,0
4.713,-8.664,0
4.714,-5.368,0
4.715,-6.283,0
4.716,-5.368,0
4.717,-2.988,0
4.718,-0.79,0
4.719,-1.34,0
4.72,3.055,0
4.721,0.308,0
4.722,2.689,0
4.723,3.055,0
4.724,5.069,0
4.725,9.281,0
4.726,9.83,0
4.727,11.112,0
4.728,5.985,0
4.729,1.407,0
4.73,1.956,0
4.731,0.308,0
4.732,2.689,0
4.733,4.886,0
4.734,9.464,0
4.735,7.633,0
4.736,9.281,0
4.737,5.985,0
4.738,4.703,0
4.739,3.604,0
4.74,3.97,0
4.741,5.802,0
4.742,5.069,0
4.743,4.52,0
4.744,0.308,0
4.745,8.548,0
4.746,20.999,0
4.747,42.606,0
4.748,51.395,0
4.749,70.072,0
4.75,67.691,0
4.751,34.549,0
4.752,1.224,0
4.753,-20.383,0
4.754,-24.228,0
4.755,-34.848,0
4.756,-44.369,0
4.757,-41.44,0
4.758,-38.876,0
4.759,-36.496,0
4.76,-29.904,0
4.761,-27.89,0
4.762,-26.059,0
4.763,-21.115,0
4.764,-22.58,0
4.765,-15.805,0
4.766,-12.326,0
4.767,-9.03,0
4.768,-6.1,0
4.769,-1.523,0
4.77,-3.903,0
4.771,-4.635,0
4.772,-2.804,0
4.773,-3.354,0
4.774,-0.607,0
4.775,-3.903,0
4.776,3.055,0
4.777,7.999,0
4.778,5.252,0
4.779,5.985,0
4.78,11.295,0
4.781,7.999,0
4.782,8.548,0
4.783,5.802,0
4.784,4.52,0
4.785,4.154,0
4.786,3.055,0
4.787,0.491,0
4.788,2.323,0
4.789,6.9,0
4.79,10.196,0
4.791,7.083,0
4.792,5.435,0
4.793,6.717,0
4.794,3.787,0
4.795,5.069,0
4.796,0.491,0
4.797,-2.621,0
4.798,-3.171,0
4.799,3.421,0
4.8,7.999,0
4.801,15.506,0
4.802,30.704,0
4.803,24.112,0
4.804,1.956,0
4.805,22.647,0
4.806,36.014,0
4.807,57.987,0
4.808,72.818,0
4.809,48.648,0
4.81,6.351,0
4.811,-22.397,0
4.812,-37.961,0
4.813,-42.721,0
4.814,-46.933,0
4.815,-43.088,0
4.816,-46.567,0
4.817,-37.045,0
4.818,-34.115,0
4.819,-31.552,0
4.82,-29.172,0
4.821,-26.974,0
4.822,-20.932,0
4.823,-19.101,0
4.824,-10.861,0
4.825,-6.467,0
4.826,-2.438,0
4.827,1.041,0
4.828,2.139,0
4.829,5.069,0
4.83,9.647,0
4.831,7.266,0
4.832,9.464,0
4.833,10.013,0
4.834,9.464,0
4.835,7.816,0
4.836,7.449,0
4.837,7.816,0
4.838,8.914,0
4.839,9.281,0
4.84,8.182,0
4.841,6.717,0
4.842,7.449,0
4.843,7.633,0
4.844,4.154,0
4.845,4.52,0
4.846,4.886,0
4.847,11.844,0
4.848,27.042,0
4.849,60.184,0
4.85,74.466,0
4.851,52.86,0
4.852,17.337,0
4.853,-6.467,0
4.854,-19.284,0
4.855,-23.129,0
4.856,-26.608,0
4.857,-23.495,0
4.858,-26.425,0
4.859,-23.862,0
4.86,-21.481,0
4.861,-19.284,0
4.862,-17.27,0
4.863,-15.439,0
4.864,-13.791,0
4.865,-15.256,0
4.866,-16.537,0
4.867,-10.495,0
4.868,-4.819,0
4.869,-3.903,0
4.87,-2.988,0
4.871,-0.607,0
4.872,-4.452,0
4.873,-2.621,0
4.874,1.773,0
4.875,3.421,0
4.876,4.703,0
4.877,5.985,0
4.878,6.351,0
4.879,5.252,0
4.88,5.618,0
4.881,2.872,0
4.882,5.435,0
4.883,0.675,0
4.884,2.506,0
4.885,1.956,0
4.886,0.675,0
4.887,2.872,0
4.888,3.238,0
4.889,5.069,0
4.89,3.238,0
4.891,5.252,0
4.892,1.041,0
4.893,-0.79,0
4.894,0.858,0
4.895,1.224,0
4.896,4.52,0
4.897,5.802,0
4.898,12.027,0
4.899,25.943,0
4.9,56.156,0
4.901,68.973,0
4.902,49.381,0
4.903,17.154,0
4.904,-4.452,0
4.905,-16.171,0
4.906,-26.791,0
4.907,-29.904,0
4.908,-32.834,0
4.909,-30.27,0
4.91,-27.89,0
4.911,-21.298,0
4.912,-23.312,0
4.913,-17.819,0
4.914,-22.763,0
4.915,-18.368,0
4.916,-14.34,0
4.917,-10.861,0
4.918,-11.96,0
4.919,-2.804,0
4.92,5.618,0
4.921,6.717,0
4.922,5.802,0
4.923,-0.607,0
4.924,-2.988,0
4.925,-2.255,0
4.926,2.323,0
4.927,5.435,0
4.928,1.59,0
4.929,3.97,0
4.93,2.689,0
4.931,3.787,0
4.932,5.618,0
4.933,5.985,0
4.934,3.97,0
4.935,3.238,0
4.936,2.506,0
4.937,3.97,0
4.938,2.506,0
4.939,3.055,0
4.94,1.407,0
4.941,3.787,0
4.942,4.52,0
4.943,0.858,0
4.944,2.139,0
4.945,5.252,0
4.946,1.407,0
4.947,-1.34,0
4.948,1.041,0
4.949,7.083,0
4.95,19.534,0
4.951,47,0
4.952,74.466,0
4.953,56.705,0
4.954,20.999,0
4.955,-2.804,0
4.956,-15.622,0
4.957,-19.467,0
4.958,-30.087,0
4.959,-26.974,0
4.96,-35.763,0
4.961,-33.2,0
4.962,-30.82,0
4.963,-24.228,0
4.964,-22.214,0
4.965,-16.72,0
4.966,-15.073,0
4.967,-13.608,0
4.968,-9.579,0
4.969,-6.1,0
4.97,-7.199,0
4.971,-2.255,0
4.972,2.323,0
4.973,1.59,0
4.974,-2.255,0
4.975,5.252,0
4.976,6.168,0
4.977,3.421,0
4.978,4.154,0
4.979,6.351,0
4.98,1.773,0
4.981,3.604,0
4.982,1.956,0
4.983,0.675,0
4.984,1.956,0
4.985,5.802,0
4.986,4.52,0
4.987,7.633,0
4.988,4.886,0
4.989,1.407,0
4.99,2.689,0
4.991,5.435,0
4.992,2.872,0
4.993,4.703,0
4.994,6.168,0
4.995,3.604,0
4.996,4.703,0
4.997,0.675,0
4.998,4.52,0
4.999,3.97,0
5,10.562,0
5.001,24.478,0
5.002,50.662,0
5.003,68.424,0
5.004,77.945,0
5.005,45.352,0
5.006,6.351,0
5.007,-9.213,0
5.008,-23.495,0
5.009,-36.313,0
5.01,-32.468,0
5.011,-35.947,0
5.012,-32.834,0
5.013,-29.904,0
5.014,-32.468,0
5.015,-25.326,0
5.016,-27.524,0
5.017,-21.481,0
5.018,-23.312,0
5.019,-15.073,0
5.02,-10.678,0
5.021,-9.396,0
5.022,-5.917,0
5.023,-2.621,0
5.024,0.308,0
5.025,1.224,0
5.026,1.956,0
5.027,2.689,0
5.028,4.52,0
5.029,5.069,0
5.03,6.717,0
5.031,6.351,0
5.032,3.238,0
5.033,4.337,0
5.034,3.238,0
5.035,3.604,0
5.036,2.872,0
5.037,3.055,0
5.038,7.083,0
5.039,8.731,0
5.04,9.097,0
5.041,4.886,0
5.042,4.337,0
5.043,3.97,0
5.044,0.858,0
5.045,-0.241,0
5.046,5.435,0
5.047,17.886,0
5.048,38.028,0
5.049,19.168,0
5.05,0.491,0
5.051,-1.889,0
5.052,-4.086,0
5.053,1.956,0
5.054,18.436,0
5.055,33.817,0
5.056,51.944,0
5.057,68.79,0
5.058,44.437,0
5.059,8.731,0
5.06,-15.073,0
5.061,-27.89,0
5.062,-39.609,0
5.063,-36.13,0
5.064,-45.651,0
5.065,-42.721,0
5.066,-45.285,0
5.067,-38.144,0
5.068,-31.552,0
5.069,-21.481,0
5.07,-19.65,0
5.071,-18.002,0
5.072,-13.608,0
5.073,-12.326,0
5.074,-8.847,0
5.075,-3.171,0
5.076,-4.086,0
5.077,2.323,0
5.078,1.59,0
5.079,3.787,0
5.08,4.337,0
5.081,4.886,0
5.082,6.534,0
5.083,6.9,0
5.084,6.534,0
5.085,9.281,0
5.086,12.76,0
5.087,12.393,0
5.088,7.816,0
5.089,7.266,0
5.09,2.139,0
5.091,5.435,0
5.092,4.886,0
5.093,3.238,0
5.094,7.816,0
5.095,13.492,0
5.096,8.182,0
5.097,4.886,0
5.098,4.337,0
5.099,4.886,0
5.1,6.717,0
5.101,4.337,0
5.102,11.295,0
5.103,26.492,0
5.104,55.24,0
5.105,74.832,0
5.106,49.93,0
5.107,27.408,0
5.108,0.675,0
5.109,-17.087,0
5.11,-26.608,0
5.111,-29.538,0
5.112,-32.101,0
5.113,-34.482,0
5.114,-36.679,0
5.115,-34.665,0
5.116,-29.172,0
5.117,-27.524,0
5.118,-26.059,0
5.119,-22.031,0
5.12,-13.608,0
5.121,-10.312,0
5.122,-7.382,0
5.123,-6.467,0
5.124,-10.495,0
5.125,-3.537,0
5.126,1.041,0
5.127,-1.34,0
5.128,-0.607,0
5.129,-8.115,0
5.13,-5.185,0
5.131,5.069,0
5.132,1.041,0
5.133,4.52,0
5.134,7.816,0
5.135,6.9,0
5.136,5.985,0
5.137,5.252,0
5.138,5.985,0
5.139,9.281,0
5.14,6.168,0
5.141,10.013,0
5.142,8.731,0
5.143,10.013,0
5.144,3.787,0
5.145,-0.79,0
5.146,-1.523,0
5.147,2.323,0
5.148,0.491,0
5.149,-1.34,0
5.15,2.506,0
5.151,2.323,0
5.152,2.689,0
5.153,9.647,0
5.154,24.844,0
5.155,49.198,0
5.156,65.311,0
5.157,56.522,0
5.158,32.352,0
5.159,3.055,0
5.16,-16.537,0
5.161,-27.157,0
5.162,-30.27,0
5.163,-33.2,0
5.164,-30.636,0
5.165,-28.256,0
5.166,-30.453,0
5.167,-32.468,0
5.168,-23.312,0
5.169,-18.368,0
5.17,-13.974,0
5.171,-12.692,0
5.172,-13.791,0
5.173,-10.495,0
5.174,-9.579,0
5.175,0.675,0
5.176,1.956,0
5.177,3.055,0
5.178,-0.241,0
5.179,0.675,0
5.18,3.421,0
5.181,2.689,0
5.182,3.421,0
5.183,-1.156,0
5.184,-0.607,0
5.185,4.52,0
5.186,5.069,0
5.187,10.745,0
5.188,6.9,0
5.189,11.478,0
5.19,10.928,0
5.191,7.083,0
5.192,5.802,0
5.193,4.52,0
5.194,1.773,0
5.195,2.872,0
5.196,2.506,0
5.197,3.238,0
5.198,3.055,0
5.199,2.323,0
5.2,-1.156,0
5.201,-5.734,0
5.202,-5.002,0
5.203,-3.171,0
5.204,5.252,0
5.205,21.365,0
5.206,50.113,0
5.207,77.579,0
5.208,59.818,0
5.209,30.521,0
5.21,3.055,0
5.211,-7.565,0
5.212,-17.087,0
5.213,-31.918,0
5.214,-34.482,0
5.215,-36.862,0
5.216,-30.27,0
5.217,-28.256,0
5.218,-26.425,0
5.219,-24.777,0
5.22,-23.312,0
5.221,-16.537,0
5.222,-15.439,0
5.223,-16.537,0
5.224,-13.608,0
5.225,-7.199,0
5.226,-6.467,0
5.227,-2.621,0
5.228,0.675,0
5.229,1.224,0
5.23,2.872,0
5.231,3.238,0
5.232,1.041,0
5.233,5.618,0
5.234,6.168,0
5.235,6.717,0
5.236,6.351,0
5.237,5.069,0
5.238,7.816,0
5.239,8.182,0
5.24,5.618,0
5.241,3.604,0
5.242,2.872,0
5.243,6.9,0
5.244,7.449,0
5.245,8.731,0
5.246,9.097,0
5.247,11.844,0
5.248,10.745,0
5.249,8.914,0
5.25,12.21,0
5.251,10.013,0
5.252,5.435,0
5.253,3.055,0
5.254,1.224,0
5.255,9.647,0
5.256,23.197,0
5.257,47,0
5.258,69.522,0
5.259,78.311,0
5.26,48.831,0
5.261,13.309,0
5.262,-20.016,0
5.263,-32.834,0
5.264,-36.679,0
5.265,-40.158,0
5.266,-37.045,0
5.267,-34.115,0
5.268,-36.679,0
5.269,-34.299,0
5.27,-27.707,0
5.271,-25.693,0
5.272,-23.862,0
5.273,-22.214,0
5.274,-17.819,0
5.275,-11.044,0
5.276,-7.565,0
5.277,-1.889,0
5.278,-8.847,0
5.279,-4.269,0
5.28,-3.537,0
5.281,0.308,0
5.282,-0.241,0
5.283,4.154,0
5.284,0.308,0
5.285,0.675,0
5.286,3.787,0
5.287,6.534,0
5.288,6.168,0
5.289,9.464,0
5.29,9.097,0
5.291,4.154,0
5.292,14.407,0
5.293,36.929,0
5.294,40.042,0
5.295,19.351,0
5.296,5.985,0
5.297,3.604,0
5.298,-2.988,0
5.299,-0.973,0
5.3,-6.467,0
5.301,-8.115,0
5.302,-12.509,0
5.303,-13.791,0
5.304,-5.734,0
5.305,-4.635,0
5.306,12.393,0
5.307,24.478,0
5.308,53.226,0
5.309,64.945,0
5.31,47.183,0
5.311,17.886,0
5.312,-1.706,0
5.313,-19.467,0
5.314,-22.58,0
5.315,-31.369,0
5.316,-33.932,0
5.317,-26.791,0
5.318,-28.989,0
5.319,-22.946,0
5.32,-17.453,0
5.321,-15.805,0
5.322,-17.27,0
5.323,-13.241,0
5.324,-14.34,0
5.325,-8.664,0
5.326,-5.734,0
5.327,-4.819,0
5.328,-4.086,0
5.329,-0.241,0
5.33,-3.537,0
5.331,5.985,0
5.332,7.266,0
5.333,8.365,0
5.334,9.464,0
5.335,6.534,0
5.336,11.112,0
5.337,13.492,0
5.338,12.76,0
5.339,20.267,0
5.34,25.211,0
5.341,27.957,0
5.342,31.986,0
5.343,29.788,0
5.344,25.211,0
5.345,24.661,0
5.346,25.211,0
5.347,19.718,0
5.348,20.45,0
5.349,14.224,0
5.35,1.773,0
5.351,-14.706,0
5.352,-25.693,0
5.353,-35.763,0
5.354,-41.257,0
5.355,-43.088,0
5.356,-28.073,0
5.357,2.139,0
5.358,14.957,0
5.359,11.112,0
5.36,0.491,0
5.361,3.604,0
5.362,-40.89,0
5.363,-85.202,0
5.364,-125.48,0
5.365,-141.05,0
5.366,-184.08,0
5.367,-201.29,0
5.368,-206.42,0
5.369,-192.13,0
5.37,-179.32,0
5.371,-159.73,0
5.372,-113.22,0
5.373,-43.271,0
5.374,40.775,0
5.375,97.171,0
5.376,127.93,0
5.377,137.27,0
5.378,128.85,0
5.379,105.78,0
5.38,98.819,0
5.381,92.594,0
5.382,98.27,0
5.383,113.83,0
5.384,137.64,0
5.385,159.24,0
5.386,178.84,0
5.387,175.36,0
5.388,172.24,0
5.389,151.55,0
5.39,138.19,0
5.391,135.81,0
5.392,111.45,0
5.393,88.931,0
5.394,62.198,0
5.395,51.578,0
5.396,48.465,0
5.397,45.535,0
5.398,37.662,0
5.399,30.521,0
5.4,15.14,0
5.401,5.069,0
5.402,-0.424,0
5.403,-18.735,0
5.404,-16.354,0
5.405,-22.946,0
5.406,-35.031,0
5.407,-45.102,0
5.408,-39.609,0
5.409,-24.594,0
5.41,1.59,0
5.411,-1.889,0
5.412,-5.002,0
5.413,-31.735,0
5.414,-63.962,0
5.415,-85.568,0
5.416,-105.16,0
5.417,-115.78,0
5.418,-112.67,0
5.419,-109.74,0
5.42,-107.17,0
5.421,-95.09,0
5.422,-84.103,0
5.423,-82.089,0
5.424,-76.596,0
5.425,-68.356,0
5.426,-60.849,0
5.427,-51.327,0
5.428,-45.285,0
5.429,-37.411,0
5.43,-36.496,0
5.431,-28.073,0
5.432,-20.199,0
5.433,-17.27,0
5.434,-14.523,0
5.435,-8.847,0
5.436,-1.889,0
5.437,-0.973,0
5.438,-0.241,0
5.439,3.604,0
5.44,0.308,0
5.441,5.985,0
5.442,8.182,0
5.443,3.604,0
5.444,7.999,0
5.445,13.126,0
5.446,12.576,0
5.447,16.971,0
5.448,10.745,0
5.449,10.013,0
5.45,7.816,0
5.451,7.266,0
5.452,10.379,0
5.453,13.126,0
5.454,11.844,0
5.455,10.562,0
5.456,9.464,0
5.457,14.774,0
5.458,17.337,0
5.459,17.703,0
5.46,22.281,0
5.461,32.535,0
5.462,55.057,0
5.463,84.354,0
5.464,80.509,0
5.465,41.141,0
5.466,14.957,0
5.467,-8.847,0
5.468,-21.664,0
5.469,-33.383,0
5.47,-29.904,0
5.471,-26.791,0
5.472,-35.58,0
5.473,-33.017,0
5.474,-25.876,0
5.475,-23.678,0
5.476,-17.636,0
5.477,-15.805,0
5.478,-14.157,0
5.479,-9.762,0
5.48,-2.988,0
5.481,-1.889,0
5.482,3.787,0
5.483,4.703,0
5.484,5.618,0
5.485,1.59,0
5.486,3.787,0
5.487,1.956,0
5.488,5.069,0
5.489,3.421,0
5.49,3.787,0
5.491,5.985,0
5.492,7.083,0
5.493,8.182,0
5.494,8.548,0
5.495,13.126,0
5.496,9.83,0
5.497,11.661,0
5.498,7.816,0
5.499,8.182,0
5.5,5.985,0
5.501,7.083,0
5.502,2.872,0
5.503,9.097,0
5.504,5.069,0
5.505,5.802,0
5.506,5.252,0
5.507,5.802,0
5.508,3.055,0
5.509,6.9,0
5.51,14.407,0
5.511,24.661,0
5.512,42.423,0
5.513,49.564,0
5.514,51.761,0
5.515,49.747,0
5.516,47.916,0
5.517,46.268,0
5.518,41.873,0
5.519,51.395,0
5.52,32.901,0
5.521,-7.382,0
5.522,-36.13,0
5.523,-62.314,0
5.524,-67.074,0
5.525,-62.863,0
5.526,-66.708,0
5.527,-63.229,0
5.528,-53.708,0
5.529,-44.919,0
5.53,-42.355,0
5.531,-35.214,0
5.532,-28.622,0
5.533,-18.552,0
5.534,-13.058,0
5.535,-14.706,0
5.536,-13.241,0
5.537,-6.467,0
5.538,9.647,0
5.539,34,0
5.54,30.887,0
5.541,16.055,0
5.542,2.689,0
5.543,5.069,0
5.544,2.872,0
5.545,4.886,0
5.546,3.055,0
5.547,4.703,0
5.548,-5.734,0
5.549,-7.016,0
5.55,-0.973,0
5.551,4.703,0
5.552,3.787,0
5.553,10.196,0
5.554,9.464,0
5.555,10.196,0
5.556,10.745,0
5.557,12.576,0
5.558,12.027,0
5.559,5.252,0
5.56,4.886,0
5.561,11.844,0
5.562,27.042,0
5.563,55.789,0
5.564,59.635,0
5.565,77.396,0
5.566,54.874,0
5.567,22.281,0
5.568,0.675,0
5.569,-18.918,0
5.57,-29.538,0
5.571,-39.059,0
5.572,-36.13,0
5.573,-33.566,0
5.574,-31.186,0
5.575,-33.383,0
5.576,-31.369,0
5.577,-25.876,0
5.578,-20.932,0
5.579,-16.537,0
5.58,-15.256,0
5.581,-11.777,0
5.582,-12.875,0
5.583,-11.96,0
5.584,-5.551,0
5.585,0.125,0
5.586,-2.072,0
5.587,-0.241,0
5.588,0.308,0
5.589,4.154,0
5.59,3.787,0
5.591,5.069,0
5.592,7.816,0
5.593,7.449,0
5.594,4.154,0
5.595,5.252,0
5.596,5.618,0
5.597,9.647,0
5.598,9.281,0
5.599,11.478,0
5.6,8.731,0
5.601,6.168,0
5.602,5.069,0
5.603,3.604,0
5.604,4.337,0
5.605,4.52,0
5.606,7.999,0
5.607,6.717,0
5.608,4.52,0
5.609,3.421,0
5.61,6.717,0
5.611,7.083,0
5.612,12.576,0
5.613,24.112,0
5.614,49.014,0
5.615,81.241,0
5.616,59.635,0
5.617,16.239,0
5.618,-0.973,0
5.619,-16.537,0
5.62,-21.298,0
5.621,-34.115,0
5.622,-30.27,0
5.623,-26.791,0
5.624,-29.904,0
5.625,-26.974,0
5.626,-24.411,0
5.627,-22.031,0
5.628,-15.439,0
5.629,-13.425,0
5.63,-11.594,0
5.631,-6.65,0
5.632,-5.185,0
5.633,-6.467,0
5.634,-5.368,0
5.635,-4.269,0
5.636,-3.354,0
5.637,-0.607,0
5.638,1.773,0
5.639,-0.424,0
5.64,4.154,0
5.641,3.604,0
5.642,1.956,0
5.643,2.323,0
5.644,2.689,0
5.645,2.323,0
5.646,-0.241,0
5.647,-0.607,0
5.648,2.139,0
5.649,3.238,0
5.65,2.139,0
5.651,5.435,0
5.652,1.224,0
5.653,-5.002,0
5.654,-4.269,0
5.655,2.689,0
5.656,1.773,0
5.657,4.154,0
5.658,1.956,0
5.659,2.506,0
5.66,1.956,0
5.661,6.717,0
5.662,7.266,0
5.663,14.774,0
5.664,20.45,0
5.665,35.648,0
5.666,46.634,0
5.667,68.79,0
5.668,77.579,0
5.669,53.409,0
5.67,11.112,0
5.671,-17.636,0
5.672,-33.2,0
5.673,-47.482,0
5.674,-43.271,0
5.675,-47.116,0
5.676,-43.637,0
5.677,-40.524,0
5.678,-37.594,0
5.679,-29.721,0
5.68,-27.341,0
5.681,-25.143,0
5.682,-23.129,0
5.683,-13.974,0
5.684,-18.918,0
5.685,-14.523,0
5.686,-7.748,0
5.687,-1.706,0
5.688,-0.607,0
5.689,0.308,0
5.69,3.055,0
5.691,7.083,0
5.692,12.393,0
5.693,4.886,0
5.694,7.816,0
5.695,3.238,0
5.696,3.97,0
5.697,10.928,0
5.698,11.844,0
5.699,12.576,0
5.7,5.618,0
5.701,8.365,0
5.702,4.337,0
5.703,5.069,0
5.704,11.295,0
5.705,13.675,0
5.706,9.83,0
5.707,6.534,0
5.708,7.083,0
5.709,4.337,0
5.71,1.956,0
5.711,3.238,0
5.712,6.717,0
5.713,7.816,0
5.714,13.492,0
5.715,24.295,0
5.716,46.817,0
5.717,76.114,0
5.718,56.522,0
5.719,17.154,0
5.72,1.59,0
5.721,-22.214,0
5.722,-26.425,0
5.723,-38.144,0
5.724,-41.623,0
5.725,-32.101,0
5.726,-29.172,0
5.727,-26.608,0
5.728,-24.228,0
5.729,-22.031,0
5.73,-20.016,0
5.731,-14.523,0
5.732,-9.579,0
5.733,-8.115,0
5.734,-9.396,0
5.735,-8.298,0
5.736,-7.199,0
5.737,-2.255,0
5.738,-1.34,0
5.739,-0.607,0
5.74,1.59,0
5.741,3.421,0
5.742,5.252,0
5.743,6.9,0
5.744,7.266,0
5.745,5.985,0
5.746,7.083,0
5.747,6.717,0
5.748,7.816,0
5.749,3.787,0
5.75,3.238,0
5.751,4.52,0
5.752,7.633,0
5.753,4.886,0
5.754,4.52,0
5.755,-0.241,0
5.756,-0.79,0
5.757,-1.34,0
5.758,1.041,0
5.759,-0.241,0
5.76,1.773,0
5.761,7.449,0
5.762,6.717,0
5.763,9.647,0
5.764,4.337,0
5.765,14.591,0
5.766,18.985,0
5.767,39.493,0
5.768,78.128,0
5.769,62.564,0
5.77,29.239,0
5.771,-0.973,0
5.772,-20.566,0
5.773,-24.045,0
5.774,-33.566,0
5.775,-30.636,0
5.776,-28.073,0
5.777,-35.214,0
5.778,-33.017,0
5.779,-26.974,0
5.78,-25.143,0
5.781,-16.904,0
5.782,-15.439,0
5.783,-14.157,0
5.784,1.956,0
5.785,17.337,0
5.786,15.323,0
5.787,-1.156,0
5.788,-3.354,0
5.789,-5.368,0
5.79,-3.537,0
5.791,-8.481,0
5.792,-12.875,0
5.793,-6.1,0
5.794,-9.579,0
5.795,-10.678,0
5.796,-9.762,0
5.797,-1.34,0
5.798,1.956,0
5.799,-0.973,0
5.8,-0.058,0
5.801,0.675,0
5.802,2.872,0
5.803,-1.706,0
5.804,3.97,0
5.805,1.773,0
5.806,7.999,0
5.807,5.618,0
5.808,1.773,0
5.809,5.069,0
5.81,5.618,0
5.811,3.97,0
5.812,1.59,0
5.813,2.872,0
5.814,4.52,0
5.815,9.097,0
5.816,5.985,0
5.817,14.407,0
5.818,32.901,0
5.819,57.071,0
5.82,66.593,0
5.821,63.663,0
5.822,77.03,0
5.823,50.296,0
5.824,10.928,0
5.825,-15.256,0
5.826,-39.059,0
5.827,-51.877,0
5.828,-48.031,0
5.829,-51.51,0
5.83,-54.623,0
5.831,-51.694,0
5.832,-43.82,0
5.833,-41.44,0
5.834,-34.848,0
5.835,-28.805,0
5.836,-26.974,0
5.837,-18.735,0
5.838,-17.27,0
5.839,-10.495,0
5.84,-4.452,0
5.841,1.224,0
5.842,2.139,0
5.843,-2.438,0
5.844,-0.058,0
5.845,10.013,0
5.846,8.731,0
5.847,9.83,0
5.848,8.731,0
5.849,9.647,0
5.85,10.562,0
5.851,9.83,0
5.852,5.985,0
5.853,10.562,0
5.854,10.013,0
5.855,8.365,0
5.856,10.745,0
5.857,10.379,0
5.858,10.745,0
5.859,5.802,0
5.86,7.633,0
5.861,5.802,0
5.862,5.252,0
5.863,0.675,0
5.864,5.069,0
5.865,5.985,0
5.866,3.238,0
5.867,10.745,0
5.868,27.774,0
5.869,54.508,0
5.87,65.128,0
5.871,74.649,0
5.872,77.579,0
5.873,48.099,0
5.874,4.703,0
5.875,-12.509,0
5.876,-28.073,0
5.877,-32.834,0
5.878,-45.651,0
5.879,-49.496,0
5.88,-46.017,0
5.881,-42.905,0
5.882,-39.975,0
5.883,-37.411,0
5.884,-35.031,0
5.885,-32.834,0
5.886,-22.763,0
5.887,-13.608,0
5.888,-8.664,0
5.889,-4.269,0
5.89,-2.988,0
5.891,-6.467,0
5.892,-3.171,0
5.893,-0.241,0
5.894,2.506,0
5.895,1.773,0
5.896,1.041,0
5.897,8.548,0
5.898,3.604,0
5.899,6.351,0
5.9,3.97,0
5.901,6.168,0
5.902,10.745,0
5.903,6.351,0
5.904,10.196,0
5.905,10.562,0
5.906,9.281,0
5.907,11.295,0
5.908,12.393,0
5.909,8.365,0
5.91,2.872,0
5.911,6.717,0
5.912,4.886,0
5.913,6.717,0
5.914,2.872,0
5.915,6.168,0
5.916,3.055,0
5.917,0.858,0
5.918,7.083,0
5.919,20.999,0
5.92,51.212,0
5.921,81.424,0
5.922,53.958,0
5.923,14.591,0
5.924,-0.973,0
5.925,-15.256,0
5.926,-19.467,0
5.927,-31.186,0
5.928,-34.665,0
5.929,-31.552,0
5.93,-28.622,0
5.931,-20.749,0
5.932,-27.89,0
5.933,-21.298,0
5.934,-19.284,0
5.935,-13.791,0
5.936,-12.143,0
5.937,-10.678,0
5.938,-9.396,0
5.939,-5.917,0
5.94,-2.621,0
5.941,0.308,0
5.942,-0.607,0
5.943,1.773,0
5.944,-0.424,0
5.945,0.125,0
5.946,1.956,0
5.947,5.802,0
5.948,11.295,0
5.949,16.605,0
5.95,26.859,0
5.951,49.381,0
5.952,65.494,0
5.953,62.564,0
5.954,54.691,0
5.955,27.957,0
5.956,-4.269,0
5.957,-25.876,0
5.958,-29.721,0
5.959,-40.341,0
5.96,-43.454,0
5.961,-46.384,0
5.962,-43.82,0
5.963,-31.735,0
5.964,-33.932,0
5.965,-31.918,0
5.966,-26.425,0
5.967,-19.65,0
5.968,-18.002,0
5.969,-4.452,0
5.97,15.689,0
5.971,50.662,0
5.972,55.423,0
5.973,51.212,0
5.974,31.619,0
5.975,6.717,0
5.976,-15.805,0
5.977,-24.594,0
5.978,-27.157,0
5.979,-29.538,0
5.98,-27.341,0
5.981,-29.355,0
5.982,-27.524,0
5.983,-22.58,0
5.984,-21.115,0
5.985,-17.087,0
5.986,-8.664,0
5.987,-5.368,0
5.988,-2.438,0
5.989,2.139,0
5.99,2.872,0
5.991,3.604,0
5.992,4.154,0
5.993,4.703,0
5.994,6.351,0
5.995,9.647,0
5.996,10.013,0
5.997,8.914,0
5.998,7.083,0
5.999,6.717,0
6,9.464,0
6.001,8.365,0
6.002,7.266,0
6.003,9.281,0
6.004,6.717,0
6.005,7.816,0
6.006,9.83,0
6.007,6.168,0
6.008,8.548,0
6.009,8.914,0
6.01,6.168,0
6.011,4.337,0
6.012,6.168,0
6.013,4.154,0
6.014,5.985,0
6.015,3.604,0
6.016,0.858,0
6.017,-0.241,0
6.018,-2.072,0
6.019,-0.241,0
6.02,4.337,0
6.021,14.591,0
6.022,37.113,0
6.023,59.635,0
6.024,80.325,0
6.025,72.452,0
6.026,36.014,0
6.027,-0.607,0
6.028,-24.411,0
6.029,-37.228,0
6.03,-25.51,0
6.031,-14.889,0
6.032,-24.411,0
6.033,-33.2,0
6.034,-41.073,0
6.035,-43.454,0
6.036,-41.257,0
6.037,-39.242,0
6.038,-37.411,0
6.039,-35.763,0
6.04,-31.369,0
6.041,-27.341,0
6.042,-21.298,0
6.043,-13.425,0
6.044,-6.467,0
6.045,-5.551,0
6.046,-1.523,0
6.047,0.675,0
6.048,3.97,0
6.049,-1.706,0
6.05,6.717,0
6.051,5.618,0
6.052,8.548,0
6.053,5.802,0
6.054,11.478,0
6.055,7.633,0
6.056,9.464,0
6.057,6.351,0
6.058,7.999,0
6.059,10.379,0
6.06,8.182,0
6.061,6.168,0
6.062,6.534,0
6.063,9.097,0
6.064,5.069,0
6.065,5.618,0
6.066,6.9,0
6.067,8.182,0
6.068,8.548,0
6.069,10.379,0
6.07,4.703,0
6.071,17.154,0
6.072,29.971,0
6.073,54.874,0
6.074,72.635,0
6.075,50.113,0
6.076,29.422,0
6.077,5.252,0
6.078,-10.861,0
6.079,-25.693,0
6.08,-33.566,0
6.081,-35.947,0
6.082,-33.749,0
6.083,-31.735,0
6.084,-29.904,0
6.085,-31.552,0
6.086,-27.157,0
6.087,-28.439,0
6.088,-22.397,0
6.089,-19.101,0
6.09,-14.157,0
6.091,-11.41,0
6.092,-9.03,0
6.093,-3.72,0
6.094,-0.424,0
6.095,-0.973,0
6.096,1.773,0
6.097,4.154,0
6.098,4.52,0
6.099,4.886,0
6.1,8.365,0
6.101,5.252,0
6.102,6.351,0
6.103,4.52,0
6.104,6.351,0
6.105,3.604,0
6.106,3.97,0
6.107,1.407,0
6.108,3.421,0
6.109,5.985,0
6.11,11.478,0
6.111,7.633,0
6.112,5.802,0
6.113,5.252,0
6.114,5.802,0
6.115,3.421,0
6.116,3.787,0
6.117,2.689,0
6.118,2.323,0
6.119,2.689,0
6.12,0.125,0
6.121,4.703,0
6.122,14.957,0
6.123,28.507,0
6.124,48.648,0
6.125,62.015,0
6.126,78.861,0
6.127,54.508,0
6.128,25.211,0
6.129,-2.255,0
6.13,-20.016,0
6.131,-29.538,0
6.132,-38.327,0
6.133,-40.89,0
6.134,-43.271,0
6.135,-36.679,0
6.136,-34.665,0
6.137,-29.172,0
6.138,-27.524,0
6.139,-23.129,0
6.14,-24.411,0
6.141,-20.932,0
6.142,-15.256,0
6.143,-8.298,0
6.144,-11.044,0
6.145,-5.368,0
6.146,-3.171,0
6.147,-2.621,0
6.148,-0.79,0
6.149,0.858,0
6.15,0.491,0
6.151,3.604,0
6.152,7.449,0
6.153,10.745,0
6.154,17.703,0
6.155,22.647,0
6.156,27.225,0
6.157,27.957,0
6.158,25.76,0
6.159,29.056,0
6.16,32.169,0
6.161,29.422,0
6.162,22.83,0
6.163,21.915,0
6.164,22.647,0
6.165,21.915,0
6.166,11.661,0
6.167,-4.819,0
6.168,-11.41,0
6.169,-21.481,0
6.17,-34.299,0
6.171,-41.623,0
6.172,-33.383,0
6.173,-19.833,0
6.174,0.308,0
6.175,35.281,0
6.176,49.564,0
6.177,10.562,0
6.178,-36.679,0
6.179,-93.991,0
6.18,-117.06,0
6.181,-137.94,0
6.182,-156.8,0
6.183,-162.47,0
6.184,-178.04,0
6.185,-182.8,0
6.186,-169.98,0
6.187,-158.26,0
6.188,-133.36,0
6.189,-104.06,0
6.19,-44.919,0
6.191,48.282,0
6.192,110.54,0
6.193,144.23,0
6.194,154.48,0
6.195,126.47,0
6.196,101.2,0
6.197,93.509,0
6.198,100.47,0
6.199,94.241,0
6.2,99.918,0
6.201,115.48,0
6.202,139.28,0
6.203,152.1,0
6.204,155.95,0
6.205,152.47,0
6.206,142.95,0
6.207,128.12,0
6.208,130.68,0
6.209,118.59,0
6.21,94.241,0
6.211,71.719,0
6.212,56.888,0
6.213,43.521,0
6.214,41.141,0
6.215,43.338,0
6.216,37.296,0
6.217,24.478,0
6.218,12.943,0
6.219,-3.537,0
6.22,-18.918,0
6.221,-20.932,0
6.222,-20.383,0
6.223,-33.2,0
6.224,-38.144,0
6.225,-27.707,0
6.226,-18.185,0
6.227,0.308,0
6.228,29.788,0
6.229,2.323,0
6.23,-37.045,0
6.231,-63.229,0
6.232,-87.033,0
6.233,-108.64,0
6.234,-112.48,0
6.235,-115.96,0
6.236,-112.85,0
6.237,-109.92,0
6.238,-102.05,0
6.239,-94.906,0
6.24,-88.315,0
6.241,-78.244,0
6.242,-69.089,0
6.243,-67.441,0
6.244,-57.004,0
6.245,-47.482,0
6.246,-39.059,0
6.247,-31.186,0
6.248,-28.256,0
6.249,-21.847,0
6.25,-16.171,0
6.251,-9.213,0
6.252,-4.635,0
6.253,-7.016,0
6.254,1.407,0
6.255,4.703,0
6.256,7.633,0
6.257,4.886,0
6.258,4.154,0
6.259,4.886,0
6.26,3.055,0
6.261,6.168,0
6.262,11.295,0
6.263,13.126,0
6.264,13.675,0
6.265,9.83,0
6.266,9.464,0
6.267,9.83,0
6.268,15.323,0
6.269,11.478,0
6.27,16.055,0
6.271,17.886,0
6.272,12.76,0
6.273,13.309,0
6.274,10.013,0
6.275,19.534,0
6.276,34.549,0
6.277,36.563,0
6.278,20.084,0
6.279,17.886,0
6.28,36.014,0
6.281,52.86,0
6.282,68.24,0
6.283,46.085,0
6.284,31.253,0
6.285,1.773,0
6.286,-17.819,0
6.287,-28.439,0
6.288,-31.552,0
6.289,-28.622,0
6.29,-31.186,0
6.291,-33.566,0
6.292,-31.369,0
6.293,-29.355,0
6.294,-23.862,0
6.295,-22.214,0
6.296,-17.819,0
6.297,-16.537,0
6.298,-10.495,0
6.299,-9.396,0
6.3,-10.312,0
6.301,-1.889,0
6.302,-0.79,0
6.303,2.139,0
6.304,4.886,0
6.305,7.266,0
6.306,7.999,0
6.307,6.168,0
6.308,7.999,0
6.309,10.745,0
6.31,7.449,0
6.311,7.816,0
6.312,6.717,0
6.313,5.618,0
6.314,8.182,0
6.315,12.76,0
6.316,12.21,0
6.317,9.097,0
6.318,6.351,0
6.319,7.633,0
6.32,8.914,0
6.321,7.816,0
6.322,6.717,0
6.323,4.154,0
6.324,6.717,0
6.325,5.252,0
6.326,9.464,0
6.327,18.985,0
6.328,39.493,0
6.329,72.086,0
6.33,76.297,0
6.331,48.831,0
6.332,9.464,0
6.333,-16.72,0
6.334,-31.003,0
6.335,-35.214,0
6.336,-39.059,0
6.337,-35.58,0
6.338,-32.468,0
6.339,-23.678,0
6.34,-26.242,0
6.341,-23.862,0
6.342,-21.664,0
6.343,-15.622,0
6.344,-13.791,0
6.345,-12.143,0
6.346,-13.608,0
6.347,-6.833,0
6.348,-7.931,0
6.349,-4.635,0
6.35,-5.551,0
6.351,-2.804,0
6.352,-0.424,0
6.353,1.773,0
6.354,1.224,0
6.355,5.618,0
6.356,1.773,0
6.357,0.491,0
6.358,2.689,0
6.359,5.435,0
6.36,2.872,0
6.361,6.9,0
6.362,7.266,0
6.363,6.9,0
6.364,4.886,0
6.365,4.52,0
6.366,0.491,0
6.367,1.773,0
6.368,4.886,0
6.369,4.52,0
6.37,7.083,0
6.371,2.323,0
6.372,5.435,0
6.373,3.787,0
6.374,0.491,0
6.375,0.858,0
6.376,3.97,0
6.377,10.196,0
6.378,18.619,0
6.379,35.648,0
6.38,72.086,0
6.381,56.522,0
6.382,23.197,0
6.383,-7.016,0
6.384,-18.735,0
6.385,-29.355,0
6.386,-26.242,0
6.387,-29.172,0
6.388,-31.735,0
6.389,-29.355,0
6.39,-27.157,0
6.391,-25.143,0
6.392,-26.974,0
6.393,-18.735,0
6.394,-17.27,0
6.395,-10.495,0
6.396,-9.396,0
6.397,-8.298,0
6.398,-9.213,0
6.399,-2.804,0
6.4,1.224,0
6.401,1.956,0
6.402,5.252,0
6.403,3.421,0
6.404,3.97,0
6.405,2.689,0
6.406,1.407,0
6.407,1.041,0
6.408,0.675,0
6.409,1.041,0
6.41,4.337,0
6.411,3.97,0
6.412,2.872,0
6.413,5.435,0
6.414,7.999,0
6.415,8.182,0
6.416,8.365,0
6.417,4.337,0
6.418,-1.889,0
6.419,-2.621,0
6.42,5.802,0
6.421,9.097,0
6.422,6.168,0
6.423,3.421,0
6.424,2.689,0
6.425,0.491,0
6.426,0.858,0
6.427,1.407,0
6.428,10.928,0
6.429,28.69,0
6.43,60.367,0
6.431,73.184,0
6.432,45.719,0
6.433,13.492,0
6.434,-8.115,0
6.435,-19.833,0
6.436,-23.312,0
6.437,-26.425,0
6.438,-23.495,0
6.439,-26.059,0
6.44,-28.439,0
6.441,-21.847,0
6.442,-19.833,0
6.443,-18.002,0
6.444,-13.058,0
6.445,-11.594,0
6.446,-10.312,0
6.447,-9.213,0
6.448,-8.115,0
6.449,-5.185,0
6.45,-6.1,0
6.451,-2.072,0
6.452,1.773,0
6.453,-0.058,0
6.454,0.491,0
6.455,-3.354,0
6.456,-0.973,0
6.457,1.224,0
6.458,3.97,0
6.459,5.069,0
6.46,2.506,0
6.461,3.238,0
6.462,3.97,0
6.463,1.59,0
6.464,2.323,0
6.465,4.154,0
6.466,2.323,0
6.467,5.435,0
6.468,4.337,0
6.469,3.238,0
6.47,5.069,0
6.471,4.337,0
6.472,6.168,0
6.473,2.139,0
6.474,-4.086,0
6.475,-3.354,0
6.476,3.604,0
6.477,3.787,0
6.478,4.703,0
6.479,15.506,0
6.48,31.986,0
6.481,56.339,0
6.482,65.86,0
6.483,51.029,0
6.484,16.055,0
6.485,-7.748,0
6.486,-20.566,0
6.487,-24.411,0
6.488,-27.89,0
6.489,-31.003,0
6.49,-33.932,0
6.491,-31.369,0
6.492,-24.228,0
6.493,-22.031,0
6.494,-20.016,0
6.495,-18.185,0
6.496,-13.241,0
6.497,-8.847,0
6.498,-7.565,0
6.499,-6.467,0
6.5,-7.565,0
6.501,-0.607,0
6.502,-3.354,0
6.503,0.675,0
6.504,-1.523,0
6.505,3.055,0
6.506,6.168,0
6.507,10.013,0
6.508,7.633,0
6.509,7.266,0
6.51,1.041,0
6.511,3.787,0
6.512,6.168,0
6.513,3.97,0
6.514,3.421,0
6.515,5.252,0
6.516,5.802,0
6.517,7.083,0
6.518,3.97,0
6.519,2.872,0
6.52,-0.607,0
6.521,6.351,0
6.522,21.549,0
6.523,28.14,0
6.524,10.013,0
6.525,2.872,0
6.526,-3.72,0
6.527,-1.706,0
6.528,-4.269,0
6.529,-13.425,0
6.53,4.886,0
6.531,16.971,0
6.532,36.929,0
6.533,61.099,0
6.534,57.987,0
6.535,31.253,0
6.536,-0.973,0
6.537,-13.791,0
6.538,-25.51,0
6.539,-28.989,0
6.54,-32.101,0
6.541,-35.031,0
6.542,-32.468,0
6.543,-30.087,0
6.544,-27.89,0
6.545,-25.876,0
6.546,-20.383,0
6.547,-18.735,0
6.548,-17.27,0
6.549,-15.988,0
6.55,-12.509,0
6.551,-6.833,0
6.552,-5.917,0
6.553,-1.34,0
6.554,-0.607,0
6.555,1.59,0
6.556,3.421,0
6.557,5.252,0
6.558,5.802,0
6.559,8.182,0
6.56,9.464,0
6.561,6.717,0
6.562,7.816,0
6.563,8.182,0
6.564,8.914,0
6.565,9.097,0
6.566,7.266,0
6.567,7.449,0
6.568,7.999,0
6.569,5.802,0
6.57,7.633,0
6.571,11.112,0
6.572,13.309,0
6.573,12.21,0
6.574,8.731,0
6.575,4.52,0
6.576,2.872,0
6.577,3.238,0
6.578,3.604,0
6.579,3.055,0
6.58,1.956,0
6.581,7.633,0
6.582,20.084,0
6.583,47.55,0
6.584,59.268,0
6.585,69.888,0
6.586,47.366,0
6.587,14.774,0
6.588,-15.439,0
6.589,-27.157,0
6.59,-30.636,0
6.591,-40.158,0
6.592,-37.228,0
6.593,-39.792,0
6.594,-37.411,0
6.595,-30.82,0
6.596,-24.777,0
6.597,-22.946,0
6.598,-18.002,0
6.599,-10.495,0
6.6,-9.213,0
6.601,-8.115,0
6.602,-9.213,0
6.603,-8.298,0
6.604,-5.551,0
6.605,0.125,0
6.606,0.858,0
6.607,2.689,0
6.608,-2.988,0
6.609,0.858,0
6.61,4.154,0
6.611,7.266,0
6.612,5.618,0
6.613,4.337,0
6.614,0.125,0
6.615,0.675,0
6.616,3.97,0
6.617,4.337,0
6.618,2.323,0
6.619,4.154,0
6.62,4.52,0
6.621,5.985,0
6.622,7.816,0
6.623,9.647,0
6.624,6.168,0
6.625,2.872,0
6.626,7.083,0
6.627,5.435,0
6.628,4.154,0
6.629,5.435,0
6.63,3.055,0
6.631,1.956,0
6.632,7.633,0
6.633,20.084,0
6.634,47.55,0
6.635,75.015,0
6.636,78.494,0
6.637,49.198,0
6.638,13.675,0
6.639,-10.129,0
6.64,-22.946,0
6.641,-26.791,0
6.642,-30.27,0
6.643,-39.792,0
6.644,-36.862,0
6.645,-34.299,0
6.646,-31.918,0
6.647,-25.326,0
6.648,-23.312,0
6.649,-21.481,0
6.65,-19.833,0
6.651,-15.439,0
6.652,-16.72,0
6.653,-8.298,0
6.654,-7.199,0
6.655,-2.255,0
6.656,4.154,0
6.657,3.421,0
6.658,-0.424,0
6.659,4.154,0
6.66,3.604,0
6.661,6.351,0
6.662,5.069,0
6.663,5.435,0
6.664,5.069,0
6.665,6.168,0
6.666,4.337,0
6.667,3.604,0
6.668,5.435,0
6.669,6.717,0
6.67,8.182,0
6.671,5.802,0
6.672,3.055,0
6.673,5.618,0
6.674,1.59,0
6.675,2.872,0
6.676,5.985,0
6.677,6.351,0
6.678,4.52,0
6.679,1.224,0
6.68,5.802,0
6.681,8.914,0
6.682,3.238,0
6.683,11.661,0
6.684,28.69,0
6.685,55.423,0
6.686,58.902,0
6.687,81.424,0
6.688,72.635,0
6.689,37.662,0
6.69,-5.368,0
6.691,-22.58,0
6.692,-27.707,0
6.693,-41.989,0
6.694,-46.2,0
6.695,-42.355,0
6.696,-38.876,0
6.697,-35.763,0
6.698,-38.693,0
6.699,-36.13,0
6.7,-33.749,0
6.701,-27.157,0
6.702,-21.115,0
6.703,-11.96,0
6.704,-7.016,0
6.705,-2.621,0
6.706,-1.34,0
6.707,-2.438,0
6.708,0.858,0
6.709,3.787,0
6.71,2.872,0
6.711,5.252,0
6.712,5.985,0
6.713,5.435,0
6.714,1.041,0
6.715,2.689,0
6.716,5.985,0
6.717,2.872,0
6.718,7.449,0
6.719,7.999,0
6.72,6.351,0
6.721,9.647,0
6.722,2.689,0
6.723,5.618,0
6.724,6.534,0
6.725,8.914,0
6.726,6.717,0
6.727,7.266,0
6.728,7.816,0
6.729,6.168,0
6.73,3.787,0
6.731,5.069,0
6.732,6.717,0
6.733,2.139,0
6.734,11.661,0
6.735,23.929,0
6.736,48.831,0
6.737,81.058,0
6.738,68.24,0
6.739,40.775,0
6.74,8.548,0
6.741,-13.058,0
6.742,-24.777,0
6.743,-28.256,0
6.744,-31.369,0
6.745,-34.299,0
6.746,-31.735,0
6.747,-34.115,0
6.748,-31.918,0
6.749,-29.904,0
6.75,-28.073,0
6.751,-19.833,0
6.752,-15.439,0
6.753,-8.664,0
6.754,-7.565,0
6.755,-6.467,0
6.756,-5.551,0
6.757,-0.973,0
6.758,-1.706,0
6.759,-0.973,0
6.76,0.858,0
6.761,2.689,0
6.762,4.337,0
6.763,3.055,0
6.764,4.337,0
6.765,4.703,0
6.766,2.872,0
6.767,8.365,0
6.768,19.901,0
6.769,34.915,0
6.77,20.816,0
6.771,4.337,0
6.772,-2.255,0
6.773,-8.298,0
6.774,-6.467,0
6.775,-11.41,0
6.776,-12.875,0
6.777,-6.1,0
6.778,-5.002,0
6.779,-1.706,0
6.78,-2.621,0
6.781,0.125,0
6.782,-2.255,0
6.783,-1.34,0
6.784,-3.537,0
6.785,6.717,0
6.786,29.239,0
6.787,45.352,0
6.788,60.184,0
6.789,68.057,0
6.79,55.972,0
6.791,27.225,0
6.792,-8.298,0
6.793,-22.58,0
6.794,-35.397,0
6.795,-47.116,0
6.796,-50.595,0
6.797,-41.073,0
6.798,-38.144,0
6.799,-40.707,0
6.8,-33.566,0
6.801,-26.974,0
6.802,-20.932,0
6.803,-19.101,0
6.804,-10.861,0
6.805,-6.467,0
6.806,-7.748,0
6.807,-8.847,0
6.808,-5.551,0
6.809,1.407,0
6.81,5.985,0
6.811,6.717,0
6.812,8.914,0
6.813,7.083,0
6.814,6.534,0
6.815,4.886,0
6.816,5.252,0
6.817,7.449,0
6.818,7.816,0
6.819,12.76,0
6.82,9.464,0
6.821,12.576,0
6.822,15.323,0
6.823,14.957,0
6.824,14.591,0
6.825,16.605,0
6.826,10.928,0
6.827,5.252,0
6.828,4.52,0
6.829,5.069,0
6.83,3.238,0
6.831,5.985,0
6.832,1.407,0
6.833,3.238,0
6.834,3.055,0
6.835,0.308,0
6.836,7.816,0
6.837,24.844,0
6.838,56.522,0
6.839,69.339,0
6.84,57.62,0
6.841,18.253,0
6.842,-7.931,0
6.843,-22.214,0
6.844,-26.425,0
6.845,-38.144,0
6.846,-34.665,0
6.847,-37.778,0
6.848,-28.989,0
6.849,-26.425,0
6.85,-24.045,0
6.851,-21.847,0
6.852,-15.805,0
6.853,-13.974,0
6.854,-15.622,0
6.855,-11.227,0
6.856,-7.199,0
6.857,-6.1,0
6.858,-2.804,0
6.859,-1.889,0
6.86,-0.973,0
6.861,4.703,0
6.862,3.97,0
6.863,5.802,0
6.864,6.351,0
6.865,-0.973,0
6.866,1.956,0
6.867,2.872,0
6.868,5.252,0
6.869,7.449,0
6.87,6.9,0
6.871,6.351,0
6.872,4.703,0
6.873,3.421,0
6.874,3.787,0
6.875,4.154,0
6.876,2.323,0
6.877,3.421,0
6.878,2.689,0
6.879,5.252,0
6.88,1.956,0
6.881,6.534,0
6.882,2.139,0
6.883,0.491,0
6.884,2.872,0
6.885,3.055,0
6.886,3.421,0
6.887,9.647,0
6.888,19.901,0
6.889,40.408,0
6.89,43.338,0
6.891,62.015,0
6.892,74.1,0
6.893,49.747,0
6.894,14.041,0
6.895,-19.284,0
6.896,-32.101,0
6.897,-43.82,0
6.898,-40.341,0
6.899,-43.454,0
6.9,-46.384,0
6.901,-38.51,0
6.902,-36.13,0
6.903,-33.932,0
6.904,-27.89,0
6.905,-22.397,0
6.906,-20.749,0
6.907,-16.354,0
6.908,-9.579,0
6.909,-3.537,0
6.91,2.139,0
6.911,7.083,0
6.912,13.492,0
6.913,14.224,0
6.914,21.182,0
6.915,23.929,0
6.916,26.309,0
6.917,31.619,0
6.918,32.169,0
6.919,30.338,0
6.92,24.112,0
6.921,24.844,0
6.922,22.647,0
6.923,23.197,0
6.924,13.675,0
6.925,-4.086,0
6.926,-16.171,0
6.927,-18.368,0
6.928,-28.439,0
6.929,-37.594,0
6.93,-42.538,0
6.931,-35.031,0
6.932,-22.763,0
6.933,-14.523,0
6.934,-15.988,0
6.935,-28.256,0
6.936,-50.412,0
6.937,-65.427,0
6.938,-71.469,0
6.939,-65.976,0
6.94,-64.328,0
6.941,-65.793,0
6.942,-50.778,0
6.943,-80.99,0
6.944,-111.2,0
6.945,-138.67,0
6.946,-142.15,0
6.947,-132.63,0
6.948,-88.132,0
6.949,7.266,0
6.95,75.565,0
6.951,112.92,0
6.952,124.09,0
6.953,93.326,0
6.954,83.988,0
6.955,58.719,0
6.956,51.029,0
6.957,44.071,0
6.958,50.296,0
6.959,67.508,0
6.96,93.692,0
6.961,117.5,0
6.962,130.31,0
6.963,134.16,0
6.964,123.54,0
6.965,120.43,0
6.966,111.64,0
6.967,119.51,0
6.968,117.13,0
6.969,92.777,0
6.97,63.48,0
6.971,51.761,0
6.972,48.282,0
6.973,45.169,0
6.974,42.24,0
6.975,39.676,0
6.976,32.535,0
6.977,17.154,0
6.978,7.083,0
6.979,-2.072,0
6.98,-17.087,0
6.981,-15.073,0
6.982,-20.566,0
6.983,-32.101,0
6.984,-33.566,0
6.985,-34.848,0
6.986,-40.89,0
6.987,-36.496,0
6.988,-46.75,0
6.989,-45.468,0
6.99,-26.974,0
6.991,-2.804,0
6.992,6.717,0
6.993,-13.974,0
6.994,-54.257,0
6.995,-71.469,0
6.996,-87.033,0
6.997,-91.794,0
6.998,-96.005,0
6.999,-92.16,0
7,-88.681,0
7.001,-79.159,0
7.002,-76.23,0
7.003,-68.356,0
7.004,-61.215,0
7.005,-54.623,0
7.006,-40.524,0
7.007,-31.369,0
7.008,-26.425,0
7.009,-18.918,0
7.01,-14.889,0
7.011,-11.41,0
7.012,-5.734,0
7.013,9.464,0
7.014,29.422,0
7.015,16.055,0
7.016,8.914,0
7.017,2.323,0
7.018,-3.72,0
7.019,-9.213,0
7.02,-7.565,0
7.021,-6.1,0
7.022,-4.819,0
7.023,1.224,0
7.024,2.323,0
7.025,5.252,0
7.026,7.999,0
7.027,7.266,0
7.028,1.956,0
7.029,1.407,0
7.03,1.956,0
7.031,7.083,0
7.032,10.379,0
7.033,12.21,0
7.034,13.858,0
7.035,14.224,0
7.036,16.422,0
7.037,14.407,0
7.038,12.576,0
7.039,10.013,0
7.04,15.506,0
7.041,27.042,0
7.042,51.944,0
7.043,69.705,0
7.044,72.818,0
7.045,64.029,0
7.046,34.549,0
7.047,-0.973,0
7.048,-15.256,0
7.049,-28.073,0
7.05,-31.918,0
7.051,-35.397,0
7.052,-38.51,0
7.053,-29.721,0
7.054,-27.157,0
7.055,-24.777,0
7.056,-22.58,0
7.057,-20.566,0
7.058,-18.735,0
7.059,-13.791,0
7.06,-12.326,0
7.061,-8.298,0
7.062,-7.199,0
7.063,-1.523,0
7.064,5.435,0
7.065,0.858,0
7.066,4.886,0
7.067,5.618,0
7.068,8.914,0
7.069,8.365,0
7.07,7.816,0
7.071,11.112,0
7.072,11.478,0
7.073,9.464,0
7.074,8.365,0
7.075,9.464,0
7.076,7.999,0
7.077,5.435,0
7.078,4.337,0
7.079,6.351,0
7.08,2.139,0
7.081,3.97,0
7.082,3.421,0
7.083,4.703,0
7.084,-2.255,0
7.085,0.675,0
7.086,3.421,0
7.087,4.154,0
7.088,4.886,0
7.089,8.182,0
7.09,3.604,0
7.091,13.126,0
7.092,28.14,0
7.093,58.353,0
7.094,71.17,0
7.095,82.889,0
7.096,57.987,0
7.097,15.689,0
7.098,-13.058,0
7.099,-28.622,0
7.1,-33.383,0
7.101,-37.594,0
7.102,-33.749,0
7.103,-37.228,0
7.104,-34.115,0
7.105,-31.186,0
7.106,-23.312,0
7.107,-20.932,0
7.108,-18.735,0
7.109,-16.72,0
7.11,-14.889,0
7.111,-13.241,0
7.112,-8.847,0
7.113,-7.565,0
7.114,-1.523,0
7.115,-2.621,0
7.116,-5.551,0
7.117,0.858,0
7.118,1.59,0
7.119,3.787,0
7.12,3.238,0
7.121,6.351,0
7.122,3.604,0
7.123,4.886,0
7.124,6.168,0
7.125,5.069,0
7.126,3.238,0
7.127,2.139,0
7.128,3.604,0
7.129,6.168,0
7.13,7.999,0
7.131,7.266,0
7.132,3.055,0
7.133,4.886,0
7.134,1.041,0
7.135,4.337,0
7.136,0.125,0
7.137,2.872,0
7.138,0.491,0
7.139,4.703,0
7.14,3.787,0
7.141,2.139,0
7.142,9.647,0
7.143,17.52,0
7.144,32.718,0
7.145,65.86,0
7.146,61.099,0
7.147,22.098,0
7.148,-4.086,0
7.149,-18.368,0
7.15,-22.58,0
7.151,-26.425,0
7.152,-29.904,0
7.153,-26.791,0
7.154,-29.721,0
7.155,-27.157,0
7.156,-24.777,0
7.157,-22.58,0
7.158,-16.537,0
7.159,-14.706,0
7.16,-9.762,0
7.161,-8.298,0
7.162,-4.269,0
7.163,-5.368,0
7.164,-8.664,0
7.165,-5.734,0
7.166,-1.156,0
7.167,1.224,0
7.168,-2.621,0
7.169,4.886,0
7.17,5.802,0
7.171,4.886,0
7.172,5.618,0
7.173,3.421,0
7.174,1.59,0
7.175,-0.241,0
7.176,5.985,0
7.177,6.717,0
7.178,5.985,0
7.179,6.534,0
7.18,2.139,0
7.181,4.886,0
7.182,3.604,0
7.183,0.491,0
7.184,0.858,0
7.185,4.337,0
7.186,5.618,0
7.187,4.52,0
7.188,5.618,0
7.189,7.449,0
7.19,5.435,0
7.191,6.717,0
7.192,3.055,0
7.193,10.562,0
7.194,27.591,0
7.195,59.268,0
7.196,72.086,0
7.197,52.493,0
7.198,13.126,0
7.199,-13.058,0
7.2,-17.819,0
7.201,-22.031,0
7.202,-18.185,0
7.203,-28.805,0
7.204,-25.693,0
7.205,-28.622,0
7.206,-26.059,0
7.207,-23.678,0
7.208,-21.481,0
7.209,-19.467,0
7.21,-13.974,0
7.211,-12.326,0
7.212,-7.931,0
7.213,-3.903,0
7.214,-5.002,0
7.215,-8.298,0
7.216,-3.354,0
7.217,-2.438,0
7.218,3.238,0
7.219,2.506,0
7.22,1.956,0
7.221,1.407,0
7.222,3.055,0
7.223,2.689,0
7.224,1.407,0
7.225,1.773,0
7.226,3.604,0
7.227,3.97,0
7.228,3.238,0
7.229,0.125,0
7.23,2.872,0
7.231,3.97,0
7.232,2.872,0
7.233,0.858,0
7.234,1.59,0
7.235,2.323,0
7.236,2.872,0
7.237,2.323,0
7.238,3.238,0
7.239,3.787,0
7.24,1.773,0
7.241,3.604,0
7.242,3.055,0
7.243,2.323,0
7.244,6.534,0
7.245,16.055,0
7.246,36.563,0
7.247,75.198,0
7.248,59.635,0
7.249,16.605,0
7.25,-0.607,0
7.251,-16.171,0
7.252,-30.453,0
7.253,-34.665,0
7.254,-30.82,0
7.255,-27.341,0
7.256,-24.228,0
7.257,-27.157,0
7.258,-13.791,0
7.259,-1.706,0
7.26,13.675,0
7.261,3.604,0
7.262,-9.213,0
7.263,-14.157,0
7.264,-15.622,0
7.265,-14.34,0
7.266,-15.439,0
7.267,-14.34,0
7.268,-11.41,0
7.269,-8.664,0
7.27,-7.931,0
7.271,-4.086,0
7.272,-0.79,0
7.273,-3.903,0
7.274,-3.354,0
7.275,-5.734,0
7.276,0.308,0
7.277,2.689,0
7.278,1.956,0
7.279,1.407,0
7.28,7.083,0
7.281,7.816,0
7.282,-1.156,0
7.283,2.323,0
7.284,1.224,0
7.285,2.139,0
7.286,8.548,0
7.287,9.281,0
7.288,5.435,0
7.289,3.604,0
7.29,5.435,0
7.291,8.182,0
7.292,5.802,0
7.293,0.858,0
7.294,3.97,0
7.295,10.196,0
7.296,24.112,0
7.297,42.24,0
7.298,54.324,0
7.299,69.705,0
7.3,51.578,0
7.301,29.605,0
7.302,-2.988,0
7.303,-15.805,0
7.304,-27.524,0
7.305,-31.003,0
7.306,-34.115,0
7.307,-42.905,0
7.308,-40.341,0
7.309,-33.2,0
7.31,-31.003,0
7.311,-28.989,0
7.312,-23.495,0
7.313,-21.847,0
7.314,-11.41,0
7.315,-15.439,0
7.316,-14.34,0
7.317,-8.664,0
7.318,-5.734,0
7.319,-1.156,0
7.32,2.872,0
7.321,3.604,0
7.322,4.154,0
7.323,4.703,0
7.324,3.055,0
7.325,3.421,0
7.326,5.618,0
7.327,6.717,0
7.328,7.083,0
7.329,1.59,0
7.33,5.435,0
7.331,8.731,0
7.332,5.618,0
7.333,3.97,0
7.334,2.689,0
7.335,4.886,0
7.336,5.985,0
7.337,8.548,0
7.338,6.717,0
7.339,3.97,0
7.34,2.872,0
7.341,1.041,0
7.342,1.773,0
7.343,5.435,0
7.344,0.858,0
7.345,2.139,0
7.346,9.097,0
7.347,24.295,0
7.348,57.437,0
7.349,71.719,0
7.35,50.113,0
7.351,14.591,0
7.352,0.308,0
7.353,-12.509,0
7.354,-24.228,0
7.355,-27.707,0
7.356,-24.594,0
7.357,-27.524,0
7.358,-24.96,0
7.359,-17.819,0
7.36,-24.411,0
7.361,-22.397,0
7.362,-20.566,0
7.363,-12.326,0
7.364,-10.861,0
7.365,-6.833,0
7.366,-7.931,0
7.367,-4.635,0
7.368,-1.706,0
7.369,-0.79,0
7.37,1.59,0
7.371,3.787,0
7.372,5.618,0
7.373,1.224,0
7.374,2.872,0
7.375,-3.72,0
7.376,-0.973,0
7.377,-1.706,0
7.378,0.491,0
7.379,-1.34,0
7.38,4.337,0
7.381,6.534,0
7.382,3.238,0
7.383,-1.156,0
7.384,5.069,0
7.385,7.449,0
7.386,6.717,0
7.387,0.491,0
7.388,2.872,0
7.389,6.717,0
7.39,7.266,0
7.391,2.872,0
7.392,3.421,0
7.393,5.802,0
7.394,4.52,0
7.395,3.055,0
7.396,1.956,0
7.397,7.633,0
7.398,20.084,0
7.399,47.55,0
7.4,67.142,0
7.401,70.621,0
7.402,41.324,0
7.403,13.858,0
7.404,-11.044,0
7.405,-20.566,0
7.406,-29.355,0
7.407,-31.918,0
7.408,-34.299,0
7.409,-32.101,0
7.41,-34.115,0
7.411,-24.96,0
7.412,-23.312,0
7.413,-21.847,0
7.414,-23.129,0
7.415,-14.706,0
7.416,-13.608,0
7.417,-14.523,0
7.418,-9.946,0
7.419,-7.565,0
7.42,-2.255,0
7.421,-0.424,0
7.422,1.407,0
7.423,-4.819,0
7.424,-0.79,0
7.425,4.52,0
7.426,7.816,0
7.427,8.365,0
7.428,8.914,0
7.429,8.548,0
7.43,3.421,0
7.431,3.97,0
7.432,5.802,0
7.433,1.956,0
7.434,3.238,0
7.435,3.604,0
7.436,3.97,0
7.437,6.534,0
7.438,6.168,0
7.439,6.9,0
7.44,7.633,0
7.441,8.914,0
7.442,5.435,0
7.443,5.069,0
7.444,1.956,0
7.445,-0.79,0
7.446,-0.607,0
7.447,3.604,0
7.448,12.027,0
7.449,28.14,0
7.45,48.099,0
7.451,72.269,0
7.452,69.156,0
7.453,48.465,0
7.454,8.182,0
7.455,-9.03,0
7.456,-24.594,0
7.457,-29.355,0
7.458,-33.566,0
7.459,-37.411,0
7.46,-33.932,0
7.461,-30.82,0
7.462,-33.749,0
7.463,-25.876,0
7.464,-23.495,0
7.465,-21.298,0
7.466,-19.284,0
7.467,-17.453,0
7.468,-9.213,0
7.469,-7.748,0
7.47,-6.467,0
7.471,-0.424,0
7.472,-1.523,0
7.473,1.407,0
7.474,4.154,0
7.475,0.125,0
7.476,2.323,0
7.477,2.872,0
7.478,4.703,0
7.479,1.956,0
7.48,2.323,0
7.481,3.604,0
7.482,4.703,0
7.483,10.379,0
7.484,9.647,0
7.485,7.449,0
7.486,7.999,0
7.487,-0.241,0
7.488,0.858,0
7.489,3.787,0
7.49,2.872,0
7.491,2.139,0
7.492,5.985,0
7.493,6.534,0
7.494,5.985,0
7.495,6.534,0
7.496,6.9,0
7.497,-0.607,0
7.498,2.506,0
7.499,1.407,0
7.5,0.308,0
7.501,2.872,0
7.502,2.139,0
7.503,0.858,0
7.504,4.337,0
7.505,11.295,0
7.506,24.478,0
7.507,11.661,0
7.508,13.309,0
7.509,26.859,0
7.51,54.324,0
7.511,58.17,0
7.512,68.79,0
7.513,33.084,0
7.514,-0.241,0
7.515,-30.453,0
7.516,-34.299,0
7.517,-37.778,0
7.518,-40.89,0
7.519,-49.679,0
7.52,-47.116,0
7.521,-39.975,0
7.522,-37.778,0
7.523,-31.735,0
7.524,-26.242,0
7.525,-21.298,0
7.526,-16.904,0
7.527,-12.875,0
7.528,-6.833,0
7.529,-7.931,0
7.53,-5.002,0
7.531,-5.917,0
7.532,-8.298,0
7.533,-2.988,0
7.534,0.308,0
7.535,4.703,0
7.536,4.154,0
7.537,6.534,0
7.538,7.816,0
7.539,6.717,0
7.54,5.618,0
7.541,5.985,0
7.542,5.252,0
7.543,8.914,0
7.544,9.281,0
7.545,7.999,0
7.546,8.365,0
7.547,5.802,0
7.548,4.52,0
7.549,2.689,0
7.55,7.266,0
7.551,17.52,0
7.552,40.042,0
7.553,62.564,0
7.554,83.255,0
7.555,64.578,0
7.556,37.845,0
7.557,5.618,0
7.558,-15.988,0
7.559,-27.707,0
7.56,-45.468,0
7.561,-42.355,0
7.562,-33.566,0
7.563,-36.13,0
7.564,-38.51,0
7.565,-31.918,0
7.566,-29.904,0
7.567,-24.411,0
7.568,-22.763,0
7.569,-18.368,0
7.57,-19.65,0
7.571,-3.537,0
7.572,-5.734,0
7.573,0.308,0
7.574,2.139,0
7.575,3.787,0
7.576,5.252,0
7.577,3.97,0
7.578,5.069,0
7.579,3.97,0
7.58,4.886,0
7.581,5.802,0
7.582,8.182,0
7.583,5.985,0
7.584,4.154,0
7.585,4.703,0
7.586,6.351,0
7.587,8.731,0
7.588,10.013,0
7.589,14.591,0
7.59,12.76,0
7.591,13.309,0
7.592,12.943,0
7.593,12.576,0
7.594,7.083,0
7.595,10.928,0
7.596,9.097,0
7.597,10.928,0
7.598,12.576,0
7.599,9.647,0
7.6,6.351,0
7.601,13.309,0
7.602,26.492,0
7.603,35.648,0
7.604,57.254,0
7.605,72.086,0
7.606,47.916,0
7.607,12.21,0
7.608,-11.594,0
7.609,-24.411,0
7.61,-36.13,0
7.611,-39.609,0
7.612,-49.13,0
7.613,-40.341,0
7.614,-37.778,0
7.615,-35.397,0
7.616,-37.594,0
7.617,-35.58,0
7.618,-26.425,0
7.619,-24.777,0
7.62,-20.383,0
7.621,-13.608,0
7.622,-7.565,0
7.623,-4.269,0
7.624,-3.354,0
7.625,-0.607,0
7.626,-1.34,0
7.627,3.97,0
7.628,2.139,0
7.629,1.59,0
7.63,4.337,0
7.631,3.97,0
7.632,2.689,0
7.633,5.435,0
7.634,2.872,0
7.635,5.435,0
7.636,7.449,0
7.637,9.281,0
7.638,10.562,0
7.639,14.041,0
7.64,8.548,0
7.641,7.816,0
7.642,7.266,0
7.643,1.59,0
7.644,5.435,0
7.645,2.139,0
7.646,3.97,0
7.647,3.421,0
7.648,2.139,0
7.649,6.351,0
7.65,3.787,0
7.651,6.534,0
7.652,14.041,0
7.653,26.492,0
7.654,48.099,0
7.655,62.93,0
7.656,81.607,0
7.657,59.635,0
7.658,20.999,0
7.659,-5.185,0
7.66,-28.989,0
7.661,-33.2,0
7.662,-37.045,0
7.663,-40.524,0
7.664,-43.637,0
7.665,-40.707,0
7.666,-32.834,0
7.667,-30.453,0
7.668,-23.862,0
7.669,-17.819,0
7.67,-15.988,0
7.671,-14.34,0
7.672,-15.805,0
7.673,-9.03,0
7.674,-7.931,0
7.675,-4.635,0
7.676,-5.551,0
7.677,2.872,0
7.678,6.168,0
7.679,5.252,0
7.68,7.999,0
7.681,12.027,0
7.682,12.76,0
7.683,16.055,0
7.684,20.45,0
7.685,28.873,0
7.686,32.352,0
7.687,38.028,0
7.688,31.07,0
7.689,26.492,0
7.69,24.112,0
7.691,21.915,0
7.692,18.619,0
7.693,16.788,0
7.694,8.365,0
7.695,-10.129,0
7.696,-18.002,0
7.697,-25.143,0
7.698,-36.13,0
7.699,-34.115,0
7.7,-24.96,0
7.701,-15.256,0
7.702,-7.016,0
7.703,3.421,0
7.704,-3.354,0
7.705,5.069,0
7.706,3.97,0
7.707,-11.227,0
7.708,-44.369,0
7.709,-115.96,0
7.71,-167.23,0
7.711,-195.25,0
7.712,-203.67,0
7.713,-195.98,0
7.714,-175.11,0
7.715,-156.25,0
7.716,-139.03,0
7.717,-81.357,0
7.718,3.421,0
7.719,82.34,0
7.72,113.1,0
7.721,141.12,0
7.722,132.69,0
7.723,125,0
7.724,104.13,0
7.725,97.904,0
7.726,103.58,0
7.727,108.71,0
7.728,122.99,0
7.729,144.59,0
7.73,164.19,0
7.731,174.81,0
7.732,177.92,0
7.733,163.09,0
7.734,138.92,0
7.735,135.81,0
7.736,132.88,0
7.737,108.71,0
7.738,79.41,0
7.739,59.818,0
7.74,42.056,0
7.741,32.535,0
7.742,41.324,0
7.743,33.45,0
7.744,21.365,0
7.745,14.774,0
7.746,4.703,0
7.747,-8.115,0
7.748,-13.058,0
7.749,-20.566,0
7.75,-16.537,0
7.751,-15.439,0
7.752,-39.426,0
7.753,-51.877,0
7.754,-53.525,0
7.755,-63.962,0
7.756,-57.187,0
7.757,-38.693,0
7.758,-25.326,0
7.759,-18.185,0
7.76,-7.199,0
7.761,-33.383,0
7.762,-72.751,0
7.763,-98.935,0
7.764,-113.22,0
7.765,-117.43,0
7.766,-113.58,0
7.767,-102.96,0
7.768,-106.08,0
7.769,-97.287,0
7.77,-89.413,0
7.771,-77.328,0
7.772,-61.948,0
7.773,-47.848,0
7.774,-42.355,0
7.775,-37.411,0
7.776,-33.017,0
7.777,-20.749,0
7.778,-15.805,0
7.779,-11.41,0
7.78,-7.382,0
7.781,-3.903,0
7.782,1.773,0
7.783,6.717,0
7.784,13.126,0
7.785,9.097,0
7.786,6.9,0
7.787,10.196,0
7.788,12.027,0
7.789,9.281,0
7.79,7.999,0
7.791,13.126,0
7.792,16.422,0
7.793,18.253,0
7.794,18.802,0
7.795,18.436,0
7.796,19.718,0
7.797,15.14,0
7.798,15.689,0
7.799,15.14,0
7.8,13.858,0
7.801,10.745,0
7.802,13.492,0
7.803,17.703,0
7.804,18.802,0
7.805,24.295,0
7.806,35.831,0
7.807,60.733,0
7.808,85.635,0
7.809,56.339,0
7.81,20.816,0
7.811,6.534,0
7.812,-6.283,0
7.813,-18.002,0
7.814,-21.481,0
7.815,-24.594,0
7.816,-21.664,0
7.817,-19.101,0
7.818,-16.72,0
7.819,-18.918,0
7.82,-16.904,0
7.821,-11.41,0
7.822,-6.467,0
7.823,-7.931,0
7.824,-3.903,0
7.825,-2.804,0
7.826,0.491,0
7.827,-2.438,0
7.828,3.97,0
7.829,3.238,0
7.83,1.041,0
7.831,5.618,0
7.832,8.731,0
7.833,7.083,0
7.834,7.449,0
7.835,1.407,0
7.836,3.787,0
7.837,5.985,0
7.838,4.154,0
7.839,1.041,0
7.84,4.886,0
7.841,7.266,0
7.842,8.548,0
7.843,3.055,0
7.844,3.787,0
7.845,4.337,0
7.846,3.787,0
7.847,-0.058,0
7.848,1.224,0
7.849,1.59,0
7.85,3.604,0
7.851,5.435,0
7.852,1.407,0
7.853,2.689,0
7.854,9.647,0
7.855,10.013,0
7.856,16.239,0
7.857,30.155,0
7.858,60.367,0
7.859,81.973,0
7.86,78.128,0
7.861,38.76,0
7.862,12.576,0
7.863,-11.227,0
7.864,-24.045,0
7.865,-35.763,0
7.866,-32.284,0
7.867,-41.806,0
7.868,-38.876,0
7.869,-36.313,0
7.87,-38.693,0
7.871,-32.101,0
7.872,-26.059,0
7.873,-20.566,0
7.874,-15.622,0
7.875,-14.157,0
7.876,-10.129,0
7.877,-11.227,0
7.878,-0.973,0
7.879,0.308,0
7.88,-0.79,0
7.881,2.506,0
7.882,-0.424,0
7.883,2.323,0
7.884,4.703,0
7.885,8.548,0
7.886,3.97,0
7.887,5.802,0
7.888,6.351,0
7.889,7.633,0
7.89,6.351,0
7.891,0.125,0
7.892,2.872,0
7.893,5.252,0
7.894,5.985,0
7.895,2.689,0
7.896,3.238,0
7.897,0.491,0
7.898,2.872,0
7.899,4.154,0
7.9,4.52,0
7.901,1.041,0
7.902,-0.241,0
7.903,1.773,0
7.904,-0.058,0
7.905,2.323,0
7.906,6.351,0
7.907,13.858,0
7.908,28.69,0
7.909,54.874,0
7.91,79.776,0
7.911,57.254,0
7.912,24.661,0
7.913,3.055,0
7.914,-16.537,0
7.915,-27.157,0
7.916,-30.27,0
7.917,-33.2,0
7.918,-41.073,0
7.919,-38.693,0
7.92,-27.707,0
7.921,-21.664,0
7.922,-23.495,0
7.923,-25.143,0
7.924,-23.678,0
7.925,-16.904,0
7.926,-13.425,0
7.927,-7.748,0
7.928,-2.804,0
7.929,-1.889,0
7.93,-1.156,0
7.931,-1.889,0
7.932,-3.72,0
7.933,-1.889,0
7.934,4.337,0
7.935,1.956,0
7.936,7.266,0
7.937,2.689,0
7.938,5.802,0
7.939,4.154,0
7.94,9.647,0
7.941,7.449,0
7.942,4.154,0
7.943,5.985,0
7.944,11.112,0
7.945,11.661,0
7.946,11.112,0
7.947,7.266,0
7.948,8.548,0
7.949,6.351,0
7.95,0.858,0
7.951,1.59,0
7.952,4.886,0
7.953,7.999,0
7.954,6.351,0
7.955,7.633,0
7.956,5.985,0
7.957,7.266,0
7.958,11.112,0
7.959,18.619,0
7.96,35.648,0
7.961,57.62,0
7.962,60.55,0
7.963,63.114,0
7.964,60.733,0
7.965,45.352,0
7.966,15.14,0
7.967,-23.862,0
7.968,-39.426,0
7.969,-44.186,0
7.97,-57.004,0
7.971,-60.849,0
7.972,-57.37,0
7.973,-47.848,0
7.974,-39.059,0
7.975,-36.496,0
7.976,-24.411,0
7.977,-26.608,0
7.978,-20.566,0
7.979,-15.073,0
7.98,-16.72,0
7.981,-15.256,0
7.982,-5.734,0
7.983,-2.255,0
7.984,1.041,0
7.985,-10.129,0
7.986,-5.734,0
7.987,1.041,0
7.988,2.139,0
7.989,1.041,0
7.99,10.196,0
7.991,6.717,0
7.992,12.393,0
7.993,5.435,0
7.994,8.182,0
7.995,20.633,0
7.996,37.113,0
7.997,26.126,0
7.998,12.027,0
7.999,6.534,0
8,1.59,0
8.001,-2.804,0
8.002,-4.086,0
8.003,-10.129,0
8.004,-2.255,0
8.005,-1.34,0
8.006,-0.424,0
8.007,-3.537,0
8.008,-7.565,0
8.009,3.97,0
8.01,25.577,0
8.011,52.31,0
8.012,77.213,0
8.013,80.325,0
8.014,47.733,0
8.015,8.731,0
8.016,-17.453,0
8.017,-22.214,0
8.018,-35.031,0
8.019,-31.186,0
8.02,-34.665,0
8.021,-31.552,0
8.022,-34.482,0
8.023,-31.918,0
8.024,-24.777,0
8.025,-26.974,0
8.026,-20.932,0
8.027,-11.777,0
8.028,-10.129,0
8.029,-11.594,0
8.03,-2.072,0
8.031,1.407,0
8.032,0.308,0
8.033,1.224,0
8.034,2.139,0
8.035,2.872,0
8.036,0.675,0
8.037,6.9,0
8.038,10.928,0
8.039,3.97,0
8.04,3.055,0
8.041,8.731,0
8.042,9.464,0
8.043,3.238,0
8.044,8.914,0
8.045,9.647,0
8.046,6.351,0
8.047,5.802,0
8.048,7.449,0
8.049,4.154,0
8.05,3.787,0
8.051,6.534,0
8.052,10.013,0
8.053,7.816,0
8.054,5.802,0
8.055,6.9,0
8.056,2.139,0
8.057,0.308,0
8.058,0.858,0
8.059,0.308,0
8.06,7.816,0
8.061,24.844,0
8.062,61.282,0
8.063,66.409,0
8.064,42.606,0
8.065,12.393,0
8.066,-7.199,0
8.067,-17.819,0
8.068,-20.932,0
8.069,-18.002,0
8.07,-25.876,0
8.071,-33.017,0
8.072,-30.82,0
8.073,-28.805,0
8.074,-26.974,0
8.075,-22.031,0
8.076,-17.636,0
8.077,-8.115,0
8.078,-7.016,0
8.079,-8.115,0
8.08,-3.171,0
8.081,-5.917,0
8.082,-8.298,0
8.083,-1.34,0
8.084,-2.255,0
8.085,-4.635,0
8.086,0.675,0
8.087,0.125,0
8.088,1.956,0
8.089,-0.79,0
8.09,-3.171,0
8.091,3.787,0
8.092,6.717,0
8.093,9.464,0
8.094,5.435,0
8.095,1.59,0
8.096,1.041,0
8.097,4.154,0
8.098,0.308,0
8.099,4.886,0
8.1,1.773,0
8.101,1.224,0
8.102,-0.058,0
8.103,1.224,0
8.104,0.125,0
8.105,2.689,0
8.106,3.787,0
8.107,-0.79,0
8.108,-0.241,0
8.109,3.787,0
8.11,4.337,0
8.111,12.76,0
8.112,23.929,0
8.113,37.479,0
8.114,64.945,0
8.115,76.663,0
8.116,51.761,0
8.117,16.055,0
8.118,-7.748,0
8.119,-29.355,0
8.12,-33.2,0
8.121,-36.679,0
8.122,-39.792,0
8.123,-36.862,0
8.124,-34.299,0
8.125,-31.918,0
8.126,-25.326,0
8.127,-19.284,0
8.128,-13.791,0
8.129,-8.847,0
8.13,-10.312,0
8.131,-14.34,0
8.132,-13.241,0
8.133,-5.368,0
8.134,-6.283,0
8.135,-3.537,0
8.136,-7.565,0
8.137,-2.255,0
8.138,-0.424,0
8.139,-0.973,0
8.14,0.675,0
8.141,1.956,0
8.142,3.238,0
8.143,4.337,0
8.144,6.9,0
8.145,6.534,0
8.146,5.069,0
8.147,0.858,0
8.148,9.097,0
8.149,5.802,0
8.15,-3.354,0
8.151,2.689,0
8.152,10.562,0
8.153,7.633,0
8.154,6.717,0
8.155,9.097,0
8.156,8.365,0
8.157,10.196,0
8.158,12.027,0
8.159,9.281,0
8.16,5.252,0
8.161,2.872,0
8.162,9.83,0
8.163,25.028,0
