0,187.05,0
0.001,169.28,0
0.002,153.17,0
0.003,161.96,0
0.004,148.59,0
0.005,141.45,0
0.006,108.31,0
0.007,46.239,0
0.008,3.941,0
0.009,-3.749,0
0.01,-10.707,0
0.011,-29.567,0
0.012,-35.243,0
0.013,-40.37,0
0.014,-54.653,0
0.015,-50.441,0
0.016,-46.596,0
0.017,-50.075,0
0.018,-59.596,0
0.019,-62.526,0
0.02,-65.09,0
0.021,-62.709,0
0.022,-56.117,0
0.023,-62.16,0
0.024,-60.329,0
0.025,-61.977,0
0.026,-60.512,0
0.027,-67.287,0
0.028,-68.385,0
0.029,-69.484,0
0.03,-68.569,0
0.031,-65.822,0
0.032,-61.794,0
0.033,-57.948,0
0.034,-53.371,0
0.035,-51.54,0
0.036,-49.892,0
0.037,-42.385,0
0.038,-34.511,0
0.039,-33.595,0
0.04,-27.187,0
0.041,-23.158,0
0.042,-14.736,0
0.043,-13.637,0
0.044,-14.552,0
0.045,-11.806,0
0.046,-7.778,0
0.047,-9.975,0
0.048,-5.397,0
0.049,-3.566,0
0.05,-5.214,0
0.051,0.279,0
0.052,0.645,0
0.053,7.603,0
0.054,22.801,0
0.055,51.549,0
0.056,63.267,0
0.057,52.647,0
0.058,23.35,0
0.059,-12.172,0
0.06,-26.454,0
0.061,-30.666,0
0.062,-26.821,0
0.063,-23.342,0
0.064,-20.229,0
0.065,-11.44,0
0.066,-8.876,0
0.067,-11.257,0
0.068,-4.665,0
0.069,1.378,0
0.07,3.209,0
0.071,8.153,0
0.072,6.688,0
0.073,10.716,0
0.074,11.815,0
0.075,12.913,0
0.076,15.843,0
0.077,16.759,0
0.078,12.73,0
0.079,11.998,0
0.08,12.547,0
0.081,14.378,0
0.082,11.632,0
0.083,11.265,0
0.084,12.547,0
0.085,11.448,0
0.086,9.617,0
0.087,9.984,0
0.088,11.998,0
0.089,8.336,0
0.09,2.843,0
0.091,9.801,0
0.092,10.716,0
0.093,8.336,0
0.094,10.533,0
0.095,7.237,0
0.096,4.124,0
0.097,3.575,0
0.098,5.955,0
0.099,2.843,0
0.1,0.828,0
0.101,5.772,0
0.102,1.744,0
0.103,1.195,0
0.104,10.716,0
0.105,31.224,0
0.106,46.055,0
0.107,59.422,0
0.108,47.337,0
0.109,14.195,0
0.11,-19.13,0
0.111,-31.948,0
0.112,-35.793,0
0.113,-32.314,0
0.114,-35.427,0
0.115,-26.637,0
0.116,-24.074,0
0.117,-16.933,0
0.118,-14.736,0
0.119,-8.693,0
0.12,-3.2,0
0.121,-4.848,0
0.122,-0.453,0
0.123,3.575,0
0.124,4.674,0
0.125,7.969,0
0.126,10.899,0
0.127,8.153,0
0.128,7.42,0
0.129,5.223,0
0.13,5.772,0
0.131,5.223,0
0.132,3.575,0
0.133,4.857,0
0.134,7.054,0
0.135,4.307,0
0.136,9.251,0
0.137,5.955,0
0.138,6.505,0
0.139,5.955,0
0.14,8.336,0
0.141,5.223,0
0.142,5.589,0
0.143,4.49,0
0.144,2.659,0
0.145,-0.636,0
0.146,2.476,0
0.147,3.575,0
0.148,5.406,0
0.149,1.378,0
0.15,1.011,0
0.151,1.378,0
0.152,1.011,0
0.153,1.011,0
0.154,-0.087,0
0.155,5.406,0
0.156,16.942,0
0.157,38.548,0
0.158,41.478,0
0.159,54.844,0
0.16,28.111,0
0.161,-4.115,0
0.162,-34.328,0
0.163,-46.047,0
0.164,-42.568,0
0.165,-39.455,0
0.166,-36.525,0
0.167,-28.652,0
0.168,-26.271,0
0.169,-24.074,0
0.17,-14.003,0
0.171,-12.172,0
0.172,-10.524,0
0.173,-3.017,0
0.174,3.758,0
0.175,4.857,0
0.176,3.758,0
0.177,6.688,0
0.178,5.772,0
0.179,3.392,0
0.18,5.589,0
0.181,3.758,0
0.182,5.589,0
0.183,3.941,0
0.184,1.561,0
0.185,1.927,0
0.186,0.828,0
0.187,1.927,0
0.188,3.758,0
0.189,3.941,0
0.19,5.223,0
0.191,2.293,0
0.192,6.505,0
0.193,7.054,0
0.194,4.674,0
0.195,5.04,0
0.196,2.293,0
0.197,1.927,0
0.198,0.828,0
0.199,0.096,0
0.2,0.279,0
0.201,0.462,0
0.202,-3.017,0
0.203,-4.299,0
0.204,-1.186,0
0.205,1.011,0
0.206,7.237,0
0.207,21.153,0
0.208,35.252,0
0.209,55.394,0
0.21,52.83,0
0.211,21.153,0
0.212,-17.848,0
0.213,-33.412,0
0.214,-38.173,0
0.215,-25.356,0
0.216,-13.637,0
0.217,-3.017,0
0.218,-25.539,0
0.219,-34.328,0
0.22,-26.454,0
0.221,-24.074,0
0.222,-17.482,0
0.223,-11.44,0
0.224,-5.947,0
0.225,-1.003,0
0.226,3.392,0
0.227,4.674,0
0.228,5.772,0
0.229,6.871,0
0.23,7.786,0
0.231,8.702,0
0.232,6.322,0
0.233,5.589,0
0.234,7.42,0
0.235,4.307,0
0.236,7.054,0
0.237,3.758,0
0.238,5.04,0
0.239,10.533,0
0.24,11.265,0
0.241,7.969,0
0.242,11.082,0
0.243,9.434,0
0.244,7.054,0
0.245,2.843,0
0.246,4.49,0
0.247,4.124,0
0.248,5.406,0
0.249,5.772,0
0.25,6.138,0
0.251,3.575,0
0.252,4.307,0
0.253,0.096,0
0.254,-0.453,0
0.255,-5.58,0
0.256,-3.932,0
0.257,3.575,0
0.258,20.604,0
0.259,37.449,0
0.26,44.041,0
0.261,54.112,0
0.262,26.646,0
0.263,-16.75,0
0.264,-33.962,0
0.265,-39.089,0
0.266,-34.328,0
0.267,-30.116,0
0.268,-33.962,0
0.269,-30.483,0
0.27,-27.37,0
0.271,-24.44,0
0.272,-11.073,0
0.273,-8.693,0
0.274,-6.496,0
0.275,3.575,0
0.276,5.406,0
0.277,3.758,0
0.278,5.223,0
0.279,6.505,0
0.28,5.406,0
0.281,2.11,0
0.282,7.054,0
0.283,7.969,0
0.284,10.35,0
0.285,6.505,0
0.286,5.955,0
0.287,2.843,0
0.288,5.589,0
0.289,4.307,0
0.29,6.505,0
0.291,6.138,0
0.292,7.237,0
0.293,7.603,0
0.294,9.068,0
0.295,4.857,0
0.296,6.688,0
0.297,0.462,0
0.298,4.49,0
0.299,3.758,0
0.3,5.589,0
0.301,5.04,0
0.302,3.392,0
0.303,1.011,0
0.304,1.378,0
0.305,3.392,0
0.306,1.011,0
0.307,-0.087,0
0.308,5.406,0
0.309,16.942,0
0.31,41.844,0
0.311,52.464,0
0.312,16.759,0
0.313,-16.567,0
0.314,-29.384,0
0.315,-33.229,0
0.316,-36.708,0
0.317,-33.595,0
0.318,-24.806,0
0.319,-22.243,0
0.32,-15.102,0
0.321,-12.905,0
0.322,-6.862,0
0.323,-8.693,0
0.324,-3.749,0
0.325,-2.284,0
0.326,-1.003,0
0.327,2.476,0
0.328,3.575,0
0.329,2.659,0
0.33,3.575,0
0.331,4.307,0
0.332,-1.003,0
0.333,2.293,0
0.334,0.462,0
0.335,4.307,0
0.336,3.026,0
0.337,2.659,0
0.338,-0.087,0
0.339,1.744,0
0.34,2.11,0
0.341,4.857,0
0.342,9.068,0
0.343,6.322,0
0.344,7.603,0
0.345,7.969,0
0.346,5.223,0
0.347,4.857,0
0.348,6.688,0
0.349,4.674,0
0.35,4.857,0
0.351,2.476,0
0.352,0.462,0
0.353,-0.27,0
0.354,3.758,0
0.355,2.11,0
0.356,-1.186,0
0.357,-1.186,0
0.358,-0.82,0
0.359,5.406,0
0.36,13.829,0
0.361,30.858,0
0.362,47.703,0
0.363,23.35,0
0.364,-18.947,0
0.365,-24.623,0
0.366,-40.187,0
0.367,-35.427,0
0.368,-31.215,0
0.369,-27.37,0
0.37,-16.75,0
0.371,-13.637,0
0.372,-16.567,0
0.373,-14.003,0
0.374,-11.623,0
0.375,-5.031,0
0.376,-3.017,0
0.377,-1.186,0
0.378,0.462,0
0.379,1.927,0
0.38,5.955,0
0.381,7.054,0
0.382,3.758,0
0.383,4.674,0
0.384,5.589,0
0.385,3.209,0
0.386,2.476,0
0.387,-0.82,0
0.388,3.575,0
0.389,4.124,0
0.39,5.406,0
0.391,4.124,0
0.392,7.969,0
0.393,7.603,0
0.394,9.801,0
0.395,4.307,0
0.396,6.505,0
0.397,1.927,0
0.398,5.04,0
0.399,3.392,0
0.4,0.096,0
0.401,2.293,0
0.402,0.279,0
0.403,-2.284,0
0.404,-0.453,0
0.405,-1.918,0
0.406,1.195,0
0.407,-1.552,0
0.408,-1.186,0
0.409,4.49,0
0.41,15.294,0
0.411,25.731,0
0.412,46.239,0
0.413,49.168,0
0.414,41.295,0
0.415,9.617,0
0.416,-20.595,0
0.417,-32.314,0
0.418,-35.793,0
0.419,-32.68,0
0.42,-29.75,0
0.421,-27.187,0
0.422,-20.046,0
0.423,-17.848,0
0.424,-15.834,0
0.425,-10.341,0
0.426,-8.693,0
0.427,-7.228,0
0.428,-5.947,0
0.429,-2.468,0
0.43,-1.369,0
0.431,-0.453,0
0.432,0.462,0
0.433,2.843,0
0.434,5.04,0
0.435,4.49,0
0.436,5.04,0
0.437,2.293,0
0.438,3.575,0
0.439,5.772,0
0.44,6.138,0
0.441,7.237,0
0.442,9.068,0
0.443,10.533,0
0.444,9.251,0
0.445,8.519,0
0.446,9.068,0
0.447,6.138,0
0.448,7.969,0
0.449,2.476,0
0.45,6.322,0
0.451,3.026,0
0.452,2.476,0
0.453,0.828,0
0.454,-1.552,0
0.455,0.645,0
0.456,-2.101,0
0.457,0.462,0
0.458,-0.636,0
0.459,-2.651,0
0.46,-2.468,0
0.461,1.744,0
0.462,11.265,0
0.463,23.533,0
0.464,1.927,0
0.465,4.857,0
0.466,29.027,0
0.467,45.14,0
0.468,42.21,0
0.469,39.647,0
0.47,3.209,0
0.471,-33.412,0
0.472,-47.695,0
0.473,-43.483,0
0.474,-47.328,0
0.475,-36.708,0
0.476,-33.595,0
0.477,-24.806,0
0.478,-22.243,0
0.479,-19.863,0
0.48,-17.665,0
0.481,-7.594,0
0.482,-5.763,0
0.483,2.476,0
0.484,3.941,0
0.485,5.223,0
0.486,4.124,0
0.487,7.42,0
0.488,8.336,0
0.489,11.082,0
0.49,13.463,0
0.491,12.73,0
0.492,13.28,0
0.493,11.448,0
0.494,8.702,0
0.495,7.42,0
0.496,5.223,0
0.497,7.969,0
0.498,5.406,0
0.499,7.237,0
0.5,9.251,0
0.501,6.138,0
0.502,4.124,0
0.503,-1.552,0
0.504,0.828,0
0.505,0.096,0
0.506,-3.2,0
0.507,1.195,0
0.508,5.04,0
0.509,3.758,0
0.51,4.674,0
0.511,5.955,0
0.512,3.209,0
0.513,8.885,0
0.514,21.336,0
0.515,41.478,0
0.516,33.604,0
0.517,31.224,0
0.518,29.027,0
0.519,22.984,0
0.52,-4.482,0
0.521,-40.004,0
0.522,-54.286,0
0.523,-50.075,0
0.524,-46.23,0
0.525,-42.751,0
0.526,-39.638,0
0.527,-30.849,0
0.528,-22.975,0
0.529,-15.834,0
0.53,-9.242,0
0.531,-3.2,0
0.532,-1.369,0
0.533,3.575,0
0.534,5.04,0
0.535,3.758,0
0.536,2.659,0
0.537,5.955,0
0.538,5.04,0
0.539,7.786,0
0.54,8.519,0
0.541,10.716,0
0.542,10.167,0
0.543,10.716,0
0.544,9.068,0
0.545,8.702,0
0.546,8.336,0
0.547,12.913,0
0.548,11.082,0
0.549,9.434,0
0.55,8.153,0
0.551,9.434,0
0.552,5.589,0
0.553,3.209,0
0.554,3.575,0
0.555,3.941,0
0.556,2.843,0
0.557,1.011,0
0.558,3.758,0
0.559,2.659,0
0.56,-1.369,0
0.561,0.279,0
0.562,3.575,0
0.563,10.533,0
0.564,23.717,0
0.565,36.534,0
0.566,58.14,0
0.567,37.449,0
0.568,2.476,0
0.569,-21.327,0
0.57,-34.145,0
0.571,-37.99,0
0.572,-34.511,0
0.573,-31.398,0
0.574,-28.469,0
0.575,-20.595,0
0.576,-18.215,0
0.577,-11.623,0
0.578,-5.58,0
0.579,-3.749,0
0.58,1.195,0
0.581,2.659,0
0.582,1.378,0
0.583,0.279,0
0.584,-0.82,0
0.585,-1.735,0
0.586,-4.482,0
0.587,-2.101,0
0.588,3.209,0
0.589,2.659,0
0.59,2.11,0
0.591,7.237,0
0.592,7.786,0
0.593,5.955,0
0.594,6.505,0
0.595,6.871,0
0.596,9.984,0
0.597,9.617,0
0.598,11.448,0
0.599,12.547,0
0.6,7.969,0
0.601,6.138,0
0.602,3.026,0
0.603,-2.101,0
0.604,-2.651,0
0.605,-0.82,0
0.606,-2.468,0
0.607,-2.834,0
0.608,1.378,0
0.609,-0.27,0
0.61,1.011,0
0.611,-3.2,0
0.612,-1.186,0
0.613,-1.735,0
0.614,5.772,0
0.615,13.646,0
0.616,28.844,0
0.617,48.802,0
0.618,30.125,0
0.619,-6.313,0
0.62,-21.877,0
0.621,-26.637,0
0.622,-30.849,0
0.623,-27.004,0
0.624,-23.525,0
0.625,-20.412,0
0.626,-11.623,0
0.627,-14.186,0
0.628,-7.045,0
0.629,-9.242,0
0.63,-7.228,0
0.631,-9.059,0
0.632,-7.411,0
0.633,-3.017,0
0.634,-4.299,0
0.635,-0.82,0
0.636,-1.918,0
0.637,-1.003,0
0.638,1.744,0
0.639,5.772,0
0.64,5.04,0
0.641,6.871,0
0.642,6.322,0
0.643,5.772,0
0.644,6.138,0
0.645,6.505,0
0.646,11.998,0
0.647,9.801,0
0.648,11.632,0
0.649,7.237,0
0.65,2.11,0
0.651,1.561,0
0.652,-0.27,0
0.653,-0.82,0
0.654,-1.186,0
0.655,-0.82,0
0.656,-1.918,0
0.657,-3.017,0
0.658,-0.453,0
0.659,1.561,0
0.66,1.744,0
0.661,-1.735,0
0.662,0.462,0
0.663,-1.186,0
0.664,-2.284,0
0.665,3.392,0
0.666,15.843,0
0.667,35.985,0
0.668,38.548,0
0.669,45.689,0
0.67,30.308,0
0.671,0.096,0
0.672,-30.116,0
0.673,-41.835,0
0.674,-45.314,0
0.675,-35.793,0
0.676,-27.004,0
0.677,-24.44,0
0.678,-17.299,0
0.679,-10.707,0
0.68,-8.693,0
0.681,-3.2,0
0.682,-4.848,0
0.683,-0.453,0
0.684,-4.482,0
0.685,1.561,0
0.686,2.659,0
0.687,3.575,0
0.688,4.49,0
0.689,8.519,0
0.69,6.322,0
0.691,9.617,0
0.692,9.068,0
0.693,12.913,0
0.694,13.28,0
0.695,11.082,0
0.696,13.096,0
0.697,11.265,0
0.698,12.364,0
0.699,8.336,0
0.7,8.885,0
0.701,4.307,0
0.702,1.195,0
0.703,-1.552,0
0.704,1.744,0
0.705,8.702,0
0.706,5.772,0
0.707,14.195,0
0.708,24.449,0
0.709,12.181,0
0.71,-2.834,0
0.711,-12.905,0
0.712,-14.736,0
0.713,-9.792,0
0.714,-12.905,0
0.715,-11.44,0
0.716,6.322,0
0.717,23.167,0
0.718,38.548,0
0.719,40.562,0
0.72,13.096,0
0.721,-14.369,0
0.722,-32.131,0
0.723,-29.018,0
0.724,-26.088,0
0.725,-28.652,0
0.726,-26.271,0
0.727,-19.679,0
0.728,-17.665,0
0.729,-12.172,0
0.73,-7.228,0
0.731,-5.763,0
0.732,-4.482,0
0.733,-5.58,0
0.734,2.293,0
0.735,3.209,0
0.736,4.124,0
0.737,1.744,0
0.738,3.941,0
0.739,8.519,0
0.74,7.969,0
0.741,6.322,0
0.742,10.899,0
0.743,14.012,0
0.744,11.265,0
0.745,10.899,0
0.746,3.941,0
0.747,4.857,0
0.748,-1.552,0
0.749,0.828,0
0.75,3.026,0
0.751,4.857,0
0.752,5.406,0
0.753,1.561,0
0.754,2.843,0
0.755,5.04,0
0.756,3.941,0
0.757,5.04,0
0.758,5.406,0
0.759,6.871,0
0.76,3.209,0
0.761,1.927,0
0.762,1.561,0
0.763,-0.453,0
0.764,-2.284,0
0.765,-2.651,0
0.766,1.378,0
0.767,8.885,0
0.768,23.717,0
0.769,37.816,0
0.77,39.647,0
0.771,34.703,0
0.772,15.111,0
0.773,-19.863,0
0.774,-34.145,0
0.775,-46.962,0
0.776,-43.117,0
0.777,-32.497,0
0.778,-29.384,0
0.779,-26.454,0
0.78,-18.581,0
0.781,-16.2,0
0.782,-9.609,0
0.783,-3.566,0
0.784,1.927,0
0.785,6.871,0
0.786,11.265,0
0.787,12.547,0
0.788,18.59,0
0.789,28.844,0
0.79,32.872,0
0.791,31.773,0
0.792,28.477,0
0.793,35.435,0
0.794,30.858,0
0.795,25.181,0
0.796,16.759,0
0.797,1.927,0
0.798,-8.144,0
0.799,-17.299,0
0.8,-25.539,0
0.801,-33.046,0
0.802,-42.568,0
0.803,-39.089,0
0.804,-33.412,0
0.805,-22.243,0
0.806,-23.708,0
0.807,-35.976,0
0.808,-50.99,0
0.809,-65.09,0
0.81,-92.555,0
0.811,-104.27,0
0.812,-114.89,0
0.813,-124.42,0
0.814,-127.34,0
0.815,-140.71,0
0.816,-144.01,0
0.817,-131.92,0
0.818,-116.54,0
0.819,-86.33,0
0.82,-38.722,0
0.821,31.224,0
0.822,133.95,0
0.823,174.78,0
0.824,187.23,0
0.825,153.54,0
0.826,102.27,0
0.827,74.254,0
0.828,65.831,0
0.829,58.14,0
0.83,65.098,0
0.831,83.958,0
0.832,101.17,0
0.833,127.35,0
0.834,151.16,0
0.835,155.37,0
0.836,151.52,0
0.837,133.76,0
0.838,130.65,0
0.839,121.86,0
0.84,113.99,0
0.841,87.254,0
0.842,62.352,0
0.843,52.83,0
0.844,49.901,0
0.845,42.027,0
0.846,34.886,0
0.847,19.505,0
0.848,5.406,0
0.849,-7.411,0
0.85,-22.426,0
0.851,-32.497,0
0.852,-34.328,0
0.853,-32.68,0
0.854,-43.117,0
0.855,-49.892,0
0.856,-55.934,0
0.857,-52.638,0
0.858,-55.568,0
0.859,-52.822,0
0.86,-56.85,0
0.861,-56.117,0
0.862,-59.413,0
0.863,-67.653,0
0.864,-70.949,0
0.865,-71.865,0
0.866,-74.611,0
0.867,-70.766,0
0.868,-66.738,0
0.869,-55.202,0
0.87,-30.3,0
0.871,-12.538,0
0.872,-9.426,0
0.873,5.406,0
0.874,-18.764,0
0.875,-48.061,0
0.876,-59.78,0
0.877,-70.4,0
0.878,-60.878,0
0.879,-57.948,0
0.88,-50.075,0
0.881,-42.934,0
0.882,-36.342,0
0.883,-30.3,0
0.884,-17.482,0
0.885,-15.834,0
0.886,-8.327,0
0.887,-7.045,0
0.888,-1.003,0
0.889,2.293,0
0.89,5.223,0
0.891,13.646,0
0.892,14.744,0
0.893,15.66,0
0.894,16.575,0
0.895,14.195,0
0.896,8.885,0
0.897,9.434,0
0.898,9.984,0
0.899,13.829,0
0.9,10.533,0
0.901,12.73,0
0.902,8.885,0
0.903,7.603,0
0.904,7.969,0
0.905,10.716,0
0.906,10.35,0
0.907,9.984,0
0.908,12.73,0
0.909,14.561,0
0.91,13.463,0
0.911,12.73,0
0.912,10.899,0
0.913,8.519,0
0.914,11.265,0
0.915,7.786,0
0.916,10.899,0
0.917,10.533,0
0.918,4.674,0
0.919,7.237,0
0.92,9.801,0
0.921,14.378,0
0.922,24.632,0
0.923,47.154,0
0.924,24.632,0
0.925,-7.961,0
0.926,-20.778,0
0.927,-24.623,0
0.928,-28.102,0
0.929,-24.99,0
0.93,-22.06,0
0.931,-14.186,0
0.932,-11.806,0
0.933,-9.609,0
0.934,-7.594,0
0.935,-2.101,0
0.936,-3.749,0
0.937,-2.284,0
0.938,1.744,0
0.939,2.843,0
0.94,3.941,0
0.941,10.899,0
0.942,9.984,0
0.943,7.603,0
0.944,8.336,0
0.945,6.505,0
0.946,8.336,0
0.947,7.786,0
0.948,6.505,0
0.949,6.871,0
0.95,7.969,0
0.951,7.603,0
0.952,10.167,0
0.953,14.744,0
0.954,24.998,0
0.955,14.561,0
0.956,2.293,0
0.957,0.645,0
0.958,-6.862,0
0.959,-2.834,0
0.96,-3.932,0
0.961,-5.031,0
0.962,-9.975,0
0.963,-9.059,0
0.964,-11.44,0
0.965,-6.13,0
0.966,-1.552,0
0.967,-2.101,0
0.968,-1.552,0
0.969,-2.651,0
0.97,0.645,0
0.971,7.603,0
0.972,22.801,0
0.973,38.182,0
0.974,52.281,0
0.975,39.464,0
0.976,14.561,0
0.977,-24.806,0
0.978,-29.933,0
0.979,-34.694,0
0.98,-30.483,0
0.981,-34.328,0
0.982,-23.708,0
0.983,-20.595,0
0.984,-17.665,0
0.985,-15.102,0
0.986,-12.721,0
0.987,-6.13,0
0.988,-0.087,0
0.989,5.406,0
0.99,7.054,0
0.991,11.448,0
0.992,12.73,0
0.993,11.632,0
0.994,10.533,0
0.995,11.448,0
0.996,10.533,0
0.997,4.857,0
0.998,4.124,0
0.999,3.575,0
1,4.124,0
1.001,5.772,0
1.002,6.138,0
1.003,5.772,0
1.004,3.026,0
1.005,-0.453,0
1.006,2.659,0
1.007,3.758,0
1.008,1.195,0
1.009,0.828,0
1.01,-1.186,0
1.011,0.096,0
1.012,0.279,0
1.013,-1.186,0
1.014,-4.482,0
1.015,2.476,0
1.016,-0.453,0
1.017,-3.2,0
1.018,-2.468,0
1.019,-0.27,0
1.02,-1.186,0
1.021,0.645,0
1.022,10.167,0
1.023,30.675,0
1.024,45.506,0
1.025,53.38,0
1.026,46.239,0
1.027,13.096,0
1.028,-20.229,0
1.029,-33.046,0
1.03,-36.891,0
1.031,-40.37,0
1.032,-37.258,0
1.033,-28.469,0
1.034,-25.905,0
1.035,-28.285,0
1.036,-21.694,0
1.037,-15.651,0
1.038,-6.496,0
1.039,-1.552,0
1.04,2.843,0
1.041,4.124,0
1.042,3.026,0
1.043,4.124,0
1.044,7.054,0
1.045,9.801,0
1.046,10.533,0
1.047,5.223,0
1.048,4.674,0
1.049,1.561,0
1.05,2.11,0
1.051,1.744,0
1.052,5.955,0
1.053,8.702,0
1.054,9.984,0
1.055,13.096,0
1.056,11.998,0
1.057,8.519,0
1.058,6.322,0
1.059,8.336,0
1.06,7.237,0
1.061,9.068,0
1.062,8.336,0
1.063,8.519,0
1.064,6.688,0
1.065,5.223,0
1.066,1.927,0
1.067,2.293,0
1.068,-1.552,0
1.069,-1.186,0
1.07,-4.299,0
1.071,-0.453,0
1.072,2.293,0
1.073,-0.27,0
1.074,5.223,0
1.075,16.759,0
1.076,41.661,0
1.077,45.14,0
1.078,35.618,0
1.079,3.026,0
1.08,-27.187,0
1.081,-46.779,0
1.082,-50.258,0
1.083,-40.737,0
1.084,-37.807,0
1.085,-35.243,0
1.086,-28.102,0
1.087,-17.116,0
1.088,-15.102,0
1.089,-9.609,0
1.09,-7.961,0
1.091,-0.453,0
1.092,3.575,0
1.093,2.476,0
1.094,-0.82,0
1.095,2.11,0
1.096,4.857,0
1.097,10.533,0
1.098,12.73,0
1.099,6.505,0
1.1,7.237,0
1.101,7.969,0
1.102,8.519,0
1.103,5.406,0
1.104,4.857,0
1.105,7.237,0
1.106,5.955,0
1.107,5.589,0
1.108,2.11,0
1.109,5.223,0
1.11,4.124,0
1.111,5.223,0
1.112,1.927,0
1.113,4.674,0
1.114,3.575,0
1.115,2.476,0
1.116,1.744,0
1.117,3.026,0
1.118,1.195,0
1.119,4.674,0
1.12,3.392,0
1.121,2.11,0
1.122,-1.186,0
1.123,-0.82,0
1.124,4.857,0
1.125,17.308,0
1.126,37.449,0
1.127,50.816,0
1.128,53.197,0
1.129,24.449,0
1.13,-18.947,0
1.131,-36.159,0
1.132,-41.286,0
1.133,-46.047,0
1.134,-41.835,0
1.135,-37.99,0
1.136,-34.511,0
1.137,-24.99,0
1.138,-22.06,0
1.139,-14.186,0
1.14,-7.045,0
1.141,-4.848,0
1.142,5.223,0
1.143,7.054,0
1.144,5.406,0
1.145,9.801,0
1.146,11.082,0
1.147,7.603,0
1.148,8.702,0
1.149,7.786,0
1.15,5.04,0
1.151,10.716,0
1.152,9.984,0
1.153,2.476,0
1.154,7.42,0
1.155,8.336,0
1.156,7.603,0
1.157,3.758,0
1.158,5.589,0
1.159,3.758,0
1.16,2.11,0
1.161,-0.27,0
1.162,2.843,0
1.163,2.476,0
1.164,4.307,0
1.165,4.674,0
1.166,3.209,0
1.167,3.941,0
1.168,1.011,0
1.169,2.11,0
1.17,-1.918,0
1.171,1.378,0
1.172,-2.834,0
1.173,0.279,0
1.174,-1.369,0
1.175,6.138,0
1.176,23.167,0
1.177,45.14,0
1.178,42.21,0
1.179,18.04,0
1.18,-4.482,0
1.181,-31.215,0
1.182,-41.835,0
1.183,-44.948,0
1.184,-36.159,0
1.185,-33.595,0
1.186,-31.215,0
1.187,-24.623,0
1.188,-14.552,0
1.189,-9.059,0
1.19,-4.115,0
1.191,-2.651,0
1.192,1.378,0
1.193,2.476,0
1.194,3.575,0
1.195,4.49,0
1.196,9.068,0
1.197,8.336,0
1.198,16.759,0
1.199,29.21,0
1.2,30.858,0
1.201,8.336,0
1.202,-7.778,0
1.203,-10.707,0
1.204,-8.144,0
1.205,-5.763,0
1.206,0.828,0
1.207,-5.214,0
1.208,-3.383,0
1.209,-1.735,0
1.21,-0.27,0
1.211,-1.552,0
1.212,-0.453,0
1.213,0.645,0
1.214,-2.284,0
1.215,0.462,0
1.216,-0.27,0
1.217,6.688,0
1.218,5.772,0
1.219,5.04,0
1.22,7.237,0
1.221,7.786,0
1.222,7.237,0
1.223,8.885,0
1.224,9.801,0
1.225,6.505,0
1.226,13.463,0
1.227,28.66,0
1.228,39.647,0
1.229,41.661,0
1.23,50.816,0
1.231,32.506,0
1.232,-3.932,0
1.233,-40.553,0
1.234,-35.793,0
1.235,-40.004,0
1.236,-36.159,0
1.237,-39.638,0
1.238,-36.525,0
1.239,-27.736,0
1.24,-19.863,0
1.241,-12.721,0
1.242,-6.13,0
1.243,-0.087,0
1.244,-1.918,0
1.245,3.026,0
1.246,4.49,0
1.247,3.209,0
1.248,4.307,0
1.249,5.406,0
1.25,6.322,0
1.251,9.068,0
1.252,6.688,0
1.253,7.42,0
1.254,9.251,0
1.255,9.801,0
1.256,8.153,0
1.257,7.786,0
1.258,8.153,0
1.259,5.406,0
1.26,6.505,0
1.261,4.674,0
1.262,3.209,0
1.263,0.096,0
1.264,-1.003,0
1.265,3.209,0
1.266,0.462,0
1.267,-0.82,0
1.268,-3.017,0
1.269,-1.003,0
1.27,0.096,0
1.271,2.659,0
1.272,0.645,0
1.273,1.927,0
1.274,0.096,0
1.275,3.209,0
1.276,6.322,0
1.277,12.547,0
1.278,26.463,0
1.279,28.477,0
1.28,44.957,0
1.281,51.549,0
1.282,21.336,0
1.283,-17.665,0
1.284,-43.849,0
1.285,-39.089,0
1.286,-43.3,0
1.287,-39.455,0
1.288,-35.976,0
1.289,-26.454,0
1.29,-23.525,0
1.291,-15.651,0
1.292,-8.51,0
1.293,-6.313,0
1.294,-0.27,0
1.295,-2.101,0
1.296,-0.453,0
1.297,1.011,0
1.298,5.04,0
1.299,8.519,0
1.3,9.617,0
1.301,10.533,0
1.302,5.955,0
1.303,8.336,0
1.304,6.138,0
1.305,7.969,0
1.306,4.857,0
1.307,11.082,0
1.308,10.35,0
1.309,8.153,0
1.31,8.702,0
1.311,5.589,0
1.312,7.237,0
1.313,6.871,0
1.314,4.674,0
1.315,1.927,0
1.316,0.828,0
1.317,-0.27,0
1.318,-2.284,0
1.319,-1.003,0
1.32,-1.186,0
1.321,0.279,0
1.322,-0.27,0
1.323,2.659,0
1.324,3.026,0
1.325,0.462,0
1.326,1.011,0
1.327,2.843,0
1.328,7.42,0
1.329,17.674,0
1.33,34.154,0
1.331,54.112,0
1.332,56.676,0
1.333,24.998,0
1.334,-14.003,0
1.335,-29.567,0
1.336,-43.849,0
1.337,-39.638,0
1.338,-35.793,0
1.339,-32.314,0
1.34,-29.201,0
1.341,-20.412,0
1.342,-17.848,0
1.343,-15.468,0
1.344,-13.271,0
1.345,-7.228,0
1.346,-5.397,0
1.347,-0.453,0
1.348,1.011,0
1.349,-0.27,0
1.35,5.772,0
1.351,4.674,0
1.352,3.758,0
1.353,2.843,0
1.354,6.871,0
1.355,9.068,0
1.356,9.617,0
1.357,11.448,0
1.358,9.801,0
1.359,10.167,0
1.36,8.885,0
1.361,4.307,0
1.362,2.476,0
1.363,0.828,0
1.364,-0.453,0
1.365,-1.735,0
1.366,2.11,0
1.367,2.476,0
1.368,2.11,0
1.369,1.011,0
1.37,3.575,0
1.371,6.138,0
1.372,6.322,0
1.373,4.49,0
1.374,2.659,0
1.375,5.223,0
1.376,4.124,0
1.377,1.011,0
1.378,1.195,0
1.379,5.406,0
1.38,14.927,0
1.381,32.689,0
1.382,39.83,0
1.383,46.422,0
1.384,16.209,0
1.385,-14.003,0
1.386,-41.469,0
1.387,-44.948,0
1.388,-41.835,0
1.389,-33.046,0
1.39,-30.483,0
1.391,-23.342,0
1.392,-16.75,0
1.393,-14.736,0
1.394,-9.242,0
1.395,-7.594,0
1.396,-3.2,0
1.397,0.828,0
1.398,-0.27,0
1.399,3.026,0
1.4,5.955,0
1.401,8.702,0
1.402,7.969,0
1.403,5.772,0
1.404,3.941,0
1.405,4.49,0
1.406,0.645,0
1.407,-0.636,0
1.408,6.322,0
1.409,9.251,0
1.41,10.167,0
1.411,6.138,0
1.412,5.406,0
1.413,9.984,0
1.414,4.307,0
1.415,6.505,0
1.416,5.955,0
1.417,6.505,0
1.418,10.35,0
1.419,7.969,0
1.42,2.843,0
1.421,3.392,0
1.422,5.223,0
1.423,3.575,0
1.424,2.293,0
1.425,1.011,0
1.426,3.026,0
1.427,4.124,0
1.428,3.209,0
1.429,2.11,0
1.43,5.406,0
1.431,12.364,0
1.432,27.562,0
1.433,47.52,0
1.434,55.394,0
1.435,18.956,0
1.436,-17.665,0
1.437,-41.469,0
1.438,-37.258,0
1.439,-41.103,0
1.44,-30.483,0
1.441,-27.37,0
1.442,-30.3,0
1.443,-22.426,0
1.444,-5.58,0
1.445,14.378,0
1.446,11.815,0
1.447,-5.031,0
1.448,-16.017,0
1.449,-14.003,0
1.45,-12.172,0
1.451,-13.82,0
1.452,-6.313,0
1.453,-5.031,0
1.454,-1.552,0
1.455,-2.651,0
1.456,-1.735,0
1.457,1.011,0
1.458,1.744,0
1.459,3.941,0
1.46,4.49,0
1.461,1.378,0
1.462,5.223,0
1.463,5.589,0
1.464,3.392,0
1.465,3.026,0
1.466,4.857,0
1.467,5.223,0
1.468,2.476,0
1.469,3.575,0
1.47,3.941,0
1.471,4.124,0
1.472,3.941,0
1.473,7.969,0
1.474,6.322,0
1.475,8.702,0
1.476,7.42,0
1.477,5.406,0
1.478,1.195,0
1.479,0.279,0
1.48,0.828,0
1.481,8.336,0
1.482,25.365,0
1.483,52.098,0
1.484,55.577,0
1.485,26.28,0
1.486,-1.186,0
1.487,-26.088,0
1.488,-35.61,0
1.489,-38.539,0
1.49,-35.976,0
1.491,-23.891,0
1.492,-21.694,0
1.493,-19.679,0
1.494,-14.186,0
1.495,-12.538,0
1.496,-8.144,0
1.497,-9.426,0
1.498,-3.383,0
1.499,-2.284,0
1.5,-1.369,0
1.501,-0.453,0
1.502,1.927,0
1.503,2.659,0
1.504,2.11,0
1.505,1.561,0
1.506,2.11,0
1.507,3.392,0
1.508,8.519,0
1.509,6.688,0
1.51,11.082,0
1.511,11.632,0
1.512,8.336,0
1.513,3.209,0
1.514,1.378,0
1.515,1.927,0
1.516,4.674,0
1.517,3.392,0
1.518,7.603,0
1.519,10.35,0
1.52,13.646,0
1.521,13.28,0
1.522,19.505,0
1.523,18.59,0
1.524,24.266,0
1.525,28.111,0
1.526,24.815,0
1.527,21.702,0
1.528,15.477,0
1.529,14.744,0
1.53,14.195,0
1.531,11.998,0
1.532,16.575,0
1.533,19.688,0
1.534,16.942,0
1.535,15.66,0
1.536,16.026,0
1.537,9.801,0
1.538,-4.115,0
1.539,-34.328,0
1.54,-90.724,0
1.541,-83.034,0
1.542,-62.16,0
1.543,-55.934,0
1.544,-50.258,0
1.545,-65.822,0
1.546,-80.104,0
1.547,-84.316,0
1.548,-103.91,0
1.549,-128.81,0
1.55,-131.92,0
1.551,-123.13,0
1.552,-115.26,0
1.553,-112.88,0
1.554,-110.68,0
1.555,-92.555,0
1.556,-60.878,0
1.557,4.124,0
1.558,106.85,0
1.559,147.68,0
1.56,160.13,0
1.561,171.3,0
1.562,161.05,0
1.563,133.03,0
1.564,107.76,0
1.565,84.691,0
1.566,63.817,0
1.567,44.957,0
1.568,62.169,0
1.569,67.296,0
1.57,72.056,0
1.571,84.874,0
1.572,88.719,0
1.573,92.198,0
1.574,95.311,0
1.575,98.24,0
1.576,100.8,0
1.577,103.18,0
1.578,87.803,0
1.579,69.676,0
1.58,52.83,0
1.581,37.633,0
1.582,31.041,0
1.583,49.168,0
1.584,61.253,0
1.585,67.845,0
1.586,53.746,0
1.587,26.28,0
1.588,-9.242,0
1.589,-42.568,0
1.59,-55.385,0
1.591,-51.54,0
1.592,-62.16,0
1.593,-71.681,0
1.594,-68.752,0
1.595,-60.878,0
1.596,-68.019,0
1.597,-61.427,0
1.598,-63.442,0
1.599,-61.611,0
1.6,-63.259,0
1.601,-58.864,0
1.602,-54.836,0
1.603,-60.878,0
1.604,-61.977,0
1.605,-57.033,0
1.606,-52.455,0
1.607,-48.427,0
1.608,-44.582,0
1.609,-44.032,0
1.61,-43.483,0
1.611,-39.638,0
1.612,-36.342,0
1.613,-33.229,0
1.614,-27.736,0
1.615,-25.539,0
1.616,-19.313,0
1.617,-16.933,0
1.618,-13.088,0
1.619,-11.257,0
1.62,-10.707,0
1.621,-13.454,0
1.622,-5.947,0
1.623,-2.651,0
1.624,2.293,0
1.625,5.04,0
1.626,9.068,0
1.627,6.871,0
1.628,2.293,0
1.629,5.406,0
1.63,1.561,0
1.631,2.843,0
1.632,-0.453,0
1.633,2.659,0
1.634,8.885,0
1.635,22.801,0
1.636,48.985,0
1.637,59.605,0
1.638,30.308,0
1.639,2.843,0
1.64,-22.06,0
1.641,-25.173,0
1.642,-28.102,0
1.643,-20.229,0
1.644,-17.848,0
1.645,-15.651,0
1.646,-13.637,0
1.647,-4.482,0
1.648,0.462,0
1.649,-1.003,0
1.65,3.026,0
1.651,6.505,0
1.652,5.406,0
1.653,2.476,0
1.654,8.885,0
1.655,14.561,0
1.656,12.364,0
1.657,12.913,0
1.658,12.364,0
1.659,12.913,0
1.66,15.294,0
1.661,13.096,0
1.662,8.519,0
1.663,12.913,0
1.664,13.463,0
1.665,8.885,0
1.666,9.434,0
1.667,7.786,0
1.668,4.49,0
1.669,2.293,0
1.67,3.392,0
1.671,5.955,0
1.672,5.589,0
1.673,6.322,0
1.674,3.758,0
1.675,5.589,0
1.676,6.322,0
1.677,7.054,0
1.678,3.026,0
1.679,1.378,0
1.68,2.659,0
1.681,0.462,0
1.682,3.209,0
1.683,0.279,0
1.684,2.843,0
1.685,3.941,0
1.686,0.645,0
1.687,1.927,0
1.688,-0.087,0
1.689,-1.186,0
1.69,4.307,0
1.691,15.843,0
1.692,14.195,0
1.693,-2.284,0
1.694,4.307,0
1.695,34.52,0
1.696,47.337,0
1.697,19.871,0
1.698,-19.496,0
1.699,-35.06,0
1.7,-39.821,0
1.701,-35.61,0
1.702,-31.764,0
1.703,-28.285,0
1.704,-18.764,0
1.705,-15.834,0
1.706,-13.271,0
1.707,-6.13,0
1.708,-3.932,0
1.709,-1.918,0
1.71,3.575,0
1.711,1.927,0
1.712,6.322,0
1.713,5.04,0
1.714,6.138,0
1.715,7.237,0
1.716,8.153,0
1.717,3.575,0
1.718,4.307,0
1.719,2.11,0
1.72,-2.468,0
1.721,1.927,0
1.722,5.772,0
1.723,2.476,0
1.724,8.519,0
1.725,6.138,0
1.726,3.941,0
1.727,2.11,0
1.728,5.223,0
1.729,3.575,0
1.73,3.941,0
1.731,4.307,0
1.732,7.054,0
1.733,2.843,0
1.734,3.209,0
1.735,3.758,0
1.736,7.054,0
1.737,14.012,0
1.738,29.21,0
1.739,57.957,0
1.74,30.491,0
1.741,-8.876,0
1.742,-24.44,0
1.743,-29.201,0
1.744,-24.99,0
1.745,-28.835,0
1.746,-25.356,0
1.747,-22.243,0
1.748,-19.313,0
1.749,-16.75,0
1.75,-14.369,0
1.751,-12.172,0
1.752,-6.13,0
1.753,-4.299,0
1.754,-5.947,0
1.755,-1.552,0
1.756,2.476,0
1.757,5.955,0
1.758,7.054,0
1.759,7.969,0
1.76,7.054,0
1.761,4.674,0
1.762,2.476,0
1.763,4.307,0
1.764,3.758,0
1.765,2.11,0
1.766,1.744,0
1.767,1.378,0
1.768,1.744,0
1.769,0.645,0
1.77,2.476,0
1.771,2.659,0
1.772,3.392,0
1.773,4.674,0
1.774,2.476,0
1.775,3.209,0
1.776,4.49,0
1.777,1.011,0
1.778,-0.27,0
1.779,-1.552,0
1.78,-1.186,0
1.781,0.645,0
1.782,-2.651,0
1.783,-3.749,0
1.784,-1.918,0
1.785,1.011,0
1.786,4.307,0
1.787,10.533,0
1.788,24.449,0
1.789,42.576,0
1.79,59.422,0
1.791,44.041,0
1.792,13.829,0
1.793,-16.384,0
1.794,-28.102,0
1.795,-38.722,0
1.796,-35.61,0
1.797,-32.68,0
1.798,-30.116,0
1.799,-22.975,0
1.8,-20.778,0
1.801,-10.707,0
1.802,-8.876,0
1.803,-3.932,0
1.804,-2.468,0
1.805,1.561,0
1.806,0.462,0
1.807,6.138,0
1.808,7.054,0
1.809,9.801,0
1.81,7.42,0
1.811,9.617,0
1.812,7.786,0
1.813,7.237,0
1.814,4.49,0
1.815,5.772,0
1.816,6.138,0
1.817,8.153,0
1.818,2.476,0
1.819,3.209,0
1.82,7.054,0
1.821,3.758,0
1.822,4.307,0
1.823,-0.82,0
1.824,1.011,0
1.825,2.843,0
1.826,1.195,0
1.827,-1.186,0
1.828,-0.82,0
1.829,1.195,0
1.83,1.561,0
1.831,0.462,0
1.832,1.195,0
1.833,4.857,0
1.834,4.49,0
1.835,1.378,0
1.836,1.011,0
1.837,-0.087,0
1.838,5.589,0
1.839,18.04,0
1.84,38.182,0
1.841,24.815,0
1.842,41.661,0
1.843,43.858,0
1.844,13.646,0
1.845,-25.356,0
1.846,-40.92,0
1.847,-45.68,0
1.848,-41.469,0
1.849,-45.314,0
1.85,-34.694,0
1.851,-25.173,0
1.852,-22.243,0
1.853,-19.679,0
1.854,-12.538,0
1.855,-5.947,0
1.856,-3.932,0
1.857,1.561,0
1.858,3.209,0
1.859,4.674,0
1.86,5.955,0
1.861,7.054,0
1.862,3.758,0
1.863,4.674,0
1.864,7.42,0
1.865,6.688,0
1.866,5.955,0
1.867,9.251,0
1.868,11.082,0
1.869,9.434,0
1.87,9.801,0
1.871,10.167,0
1.872,8.153,0
1.873,11.632,0
1.874,7.42,0
1.875,5.772,0
1.876,5.406,0
1.877,5.772,0
1.878,1.195,0
1.879,4.307,0
1.88,1.561,0
1.881,1.195,0
1.882,-0.087,0
1.883,1.011,0
1.884,2.11,0
1.885,-2.651,0
1.886,-2.101,0
1.887,-3.383,0
1.888,-0.636,0
1.889,6.871,0
1.89,23.9,0
1.891,55.577,0
1.892,51.365,0
1.893,15.843,0
1.894,-17.482,0
1.895,-30.3,0
1.896,-26.454,0
1.897,-29.933,0
1.898,-26.821,0
1.899,-23.891,0
1.9,-21.327,0
1.901,-14.186,0
1.902,-16.384,0
1.903,-10.341,0
1.904,-8.51,0
1.905,-6.862,0
1.906,-2.468,0
1.907,-1.186,0
1.908,-0.087,0
1.909,5.589,0
1.91,2.659,0
1.911,3.575,0
1.912,-0.453,0
1.913,1.744,0
1.914,1.195,0
1.915,0.645,0
1.916,2.293,0
1.917,3.575,0
1.918,5.772,0
1.919,3.026,0
1.92,4.857,0
1.921,2.293,0
1.922,0.828,0
1.923,3.392,0
1.924,5.223,0
1.925,5.955,0
1.926,6.688,0
1.927,4.857,0
1.928,3.758,0
1.929,0.462,0
1.93,-0.82,0
1.931,-0.453,0
1.932,-0.087,0
1.933,0.279,0
1.934,-0.453,0
1.935,-0.27,0
1.936,3.758,0
1.937,12.181,0
1.938,1.011,0
1.939,-7.411,0
1.94,-8.51,0
1.941,-5.58,0
1.942,8.336,0
1.943,30.491,0
1.944,39.281,0
1.945,36.717,0
1.946,9.984,0
1.947,-7.778,0
1.948,-37.074,0
1.949,-40.92,0
1.95,-44.399,0
1.951,-41.286,0
1.952,-38.356,0
1.953,-30.483,0
1.954,-23.342,0
1.955,-16.75,0
1.956,-10.707,0
1.957,-8.876,0
1.958,-3.932,0
1.959,0.462,0
1.96,1.744,0
1.961,5.223,0
1.962,8.519,0
1.963,9.434,0
1.964,6.688,0
1.965,7.42,0
1.966,9.617,0
1.967,5.04,0
1.968,9.434,0
1.969,11.082,0
1.97,7.786,0
1.971,9.068,0
1.972,7.969,0
1.973,9.068,0
1.974,11.632,0
1.975,8.336,0
1.976,7.054,0
1.977,8.153,0
1.978,3.209,0
1.979,1.378,0
1.98,0.828,0
1.981,1.378,0
1.982,0.096,0
1.983,1.378,0
1.984,1.011,0
1.985,2.11,0
1.986,2.476,0
1.987,1.011,0
1.988,1.195,0
1.989,3.209,0
1.99,3.941,0
1.991,4.49,0
1.992,7.786,0
1.993,14.744,0
1.994,29.942,0
1.995,40.928,0
1.996,26.829,0
1.997,21.336,0
1.998,16.392,0
1.999,5.955,0
2,1.927,0
2.001,3.026,0
2.002,-14.003,0
2.003,-40.737,0
2.004,-65.639,0
2.005,-62.526,0
2.006,-59.596,0
2.007,-51.723,0
2.008,-39.638,0
2.009,-33.046,0
2.01,-27.004,0
2.011,-25.173,0
2.012,-13.637,0
2.013,-6.13,0
2.014,-2.101,0
2.015,1.378,0
2.016,2.476,0
2.017,7.42,0
2.018,8.336,0
2.019,12.364,0
2.02,13.096,0
2.021,13.646,0
2.022,16.759,0
2.023,12.913,0
2.024,16.209,0
2.025,13.096,0
2.026,15.111,0
2.027,14.744,0
2.028,15.111,0
2.029,15.843,0
2.03,11.632,0
2.031,8.519,0
2.032,11.265,0
2.033,12.547,0
2.034,9.434,0
2.035,8.336,0
2.036,6.505,0
2.037,9.801,0
2.038,5.955,0
2.039,9.251,0
2.04,4.674,0
2.041,6.871,0
2.042,13.096,0
2.043,27.012,0
2.044,53.197,0
2.045,56.676,0
2.046,27.379,0
2.047,-16.017,0
2.048,-33.229,0
2.049,-38.356,0
2.05,-33.595,0
2.051,-29.384,0
2.052,-33.229,0
2.053,-22.609,0
2.054,-19.496,0
2.055,-16.567,0
2.056,-14.003,0
2.057,-11.623,0
2.058,-5.031,0
2.059,-3.017,0
2.06,-4.848,0
2.061,3.392,0
2.062,-1.003,0
2.063,0.279,0
2.064,6.322,0
2.065,5.223,0
2.066,6.138,0
2.067,1.561,0
2.068,5.589,0
2.069,4.857,0
2.07,8.153,0
2.071,5.04,0
2.072,8.885,0
2.073,6.505,0
2.074,5.223,0
2.075,4.124,0
2.076,3.758,0
2.077,1.927,0
2.078,3.392,0
2.079,1.561,0
2.08,3.941,0
2.081,3.209,0
2.082,4.49,0
2.083,3.758,0
2.084,3.941,0
2.085,0.645,0
2.086,2.843,0
2.087,3.209,0
2.088,0.645,0
2.089,-1.918,0
2.09,-1.735,0
2.091,0.279,0
2.092,1.011,0
2.093,5.04,0
2.094,13.463,0
2.095,31.956,0
2.096,50.633,0
2.097,48.253,0
2.098,15.111,0
2.099,-27.919,0
2.1,-33.595,0
2.101,-38.722,0
2.102,-43.483,0
2.103,-39.272,0
2.104,-27.553,0
2.105,-24.074,0
2.106,-20.961,0
2.107,-6.13,0
2.108,-8.693,0
2.109,-6.313,0
2.11,-8.51,0
2.111,-2.468,0
2.112,3.026,0
2.113,4.674,0
2.114,0.279,0
2.115,4.307,0
2.116,3.209,0
2.117,4.307,0
2.118,3.392,0
2.119,6.138,0
2.12,6.871,0
2.121,7.603,0
2.122,12.181,0
2.123,7.786,0
2.124,7.237,0
2.125,5.955,0
2.126,6.322,0
2.127,5.223,0
2.128,7.054,0
2.129,3.026,0
2.13,4.307,0
2.131,3.026,0
2.132,5.772,0
2.133,5.406,0
2.134,2.11,0
2.135,0.096,0
2.136,-1.003,0
2.137,0.828,0
2.138,0.096,0
2.139,-0.636,0
2.14,1.195,0
2.141,1.744,0
2.142,3.209,0
2.143,1.744,0
2.144,4.674,0
2.145,10.899,0
2.146,24.815,0
2.147,55.028,0
2.148,42.21,0
2.149,-1.186,0
2.15,-29.933,0
2.151,-35.06,0
2.152,-30.3,0
2.153,-34.511,0
2.154,-30.666,0
2.155,-20.046,0
2.156,-16.933,0
2.157,-14.003,0
2.158,-11.44,0
2.159,-9.059,0
2.16,-6.862,0
2.161,-0.82,0
2.162,-2.651,0
2.163,-1.003,0
2.164,0.462,0
2.165,1.744,0
2.166,-1.735,0
2.167,-2.834,0
2.168,-1.918,0
2.169,-1.003,0
2.17,3.026,0
2.171,6.871,0
2.172,8.702,0
2.173,8.153,0
2.174,10.899,0
2.175,10.533,0
2.176,13.646,0
2.177,10.899,0
2.178,9.068,0
2.179,7.969,0
2.18,11.998,0
2.181,20.421,0
2.182,31.59,0
2.183,11.998,0
2.184,4.124,0
2.185,-3.017,0
2.186,-9.609,0
2.187,-7.594,0
2.188,-5.763,0
2.189,-7.411,0
2.19,-3.017,0
2.191,-1.735,0
2.192,-0.636,0
2.193,1.011,0
2.194,2.11,0
2.195,7.054,0
2.196,17.308,0
2.197,37.816,0
2.198,29.027,0
2.199,42.393,0
2.2,49.534,0
2.201,16.392,0
2.202,-16.933,0
2.203,-38.539,0
2.204,-42.385,0
2.205,-38.906,0
2.206,-42.018,0
2.207,-33.229,0
2.208,-25.356,0
2.209,-18.215,0
2.21,-16.017,0
2.211,-9.975,0
2.212,-8.144,0
2.213,-6.496,0
2.214,-2.101,0
2.215,-3.383,0
2.216,-2.284,0
2.217,-1.186,0
2.218,1.744,0
2.219,6.322,0
2.22,8.702,0
2.221,9.434,0
2.222,8.885,0
2.223,9.434,0
2.224,7.786,0
2.225,6.505,0
2.226,8.702,0
2.227,2.476,0
2.228,5.223,0
2.229,5.955,0
2.23,5.223,0
2.231,1.927,0
2.232,3.758,0
2.233,1.011,0
2.234,4.307,0
2.235,6.505,0
2.236,2.659,0
2.237,3.026,0
2.238,6.138,0
2.239,5.04,0
2.24,8.519,0
2.241,9.801,0
2.242,7.786,0
2.243,2.11,0
2.244,5.406,0
2.245,4.674,0
2.246,16.209,0
2.247,37.816,0
2.248,58.507,0
2.249,50.633,0
2.25,14.195,0
2.251,-22.426,0
2.252,-36.708,0
2.253,-40.92,0
2.254,-37.074,0
2.255,-26.454,0
2.256,-29.567,0
2.257,-20.778,0
2.258,-18.215,0
2.259,-11.073,0
2.26,-8.876,0
2.261,-6.862,0
2.262,-1.369,0
2.263,-6.313,0
2.264,-1.918,0
2.265,-3.2,0
2.266,0.279,0
2.267,1.378,0
2.268,0.462,0
2.269,5.04,0
2.27,7.42,0
2.271,6.688,0
2.272,4.857,0
2.273,6.688,0
2.274,7.237,0
2.275,5.955,0
2.276,4.674,0
2.277,5.772,0
2.278,9.984,0
2.279,9.434,0
2.28,16.026,0
2.281,18.773,0
2.282,21.153,0
2.283,21.885,0
2.284,28.111,0
2.285,28.844,0
2.286,32.689,0
2.287,32.139,0
2.288,26.463,0
2.289,22.618,0
2.29,15.111,0
2.291,12.181,0
2.292,7.603,0
2.293,-4.848,0
2.294,-17.665,0
2.295,-29.75,0
2.296,-41.286,0
2.297,-36.891,0
2.298,-27.37,0
2.299,-8.876,0
2.3,-1.003,0
2.301,20.97,0
2.302,-11.623,0
2.303,-59.23,0
2.304,-90.907,0
2.305,-108.12,0
2.306,-144.74,0
2.307,-159.02,0
2.308,-163.23,0
2.309,-167.08,0
2.31,-170.56,0
2.311,-167.45,0
2.312,-152.61,0
2.313,-133.94,0
2.314,-111.97,0
2.315,-97.133,0
2.316,-67.653,0
2.317,-8.51,0
2.318,84.691,0
2.319,146.95,0
2.32,180.64,0
2.321,190.89,0
2.322,162.88,0
2.323,137.61,0
2.324,129.92,0
2.325,136.88,0
2.326,118.02,0
2.327,123.69,0
2.328,128.82,0
2.329,152.62,0
2.33,174.23,0
2.331,178.07,0
2.332,174.59,0
2.333,152.07,0
2.334,131.38,0
2.335,118.02,0
2.336,105.93,0
2.337,85.972,0
2.338,61.802,0
2.339,39.281,0
2.34,36.351,0
2.341,28.477,0
2.342,26.097,0
2.343,10.716,0
2.344,0.645,0
2.345,-4.848,0
2.346,-11.44,0
2.347,-29.75,0
2.348,-27.37,0
2.349,-11.989,0
2.35,-14.003,0
2.351,-8.51,0
2.352,-6.862,0
2.353,-29.384,0
2.354,-78.09,0
2.355,-98.964,0
2.356,-105.19,0
2.357,-110.87,0
2.358,-115.99,0
2.359,-101.71,0
2.36,-105.92,0
2.361,-102.08,0
2.362,-91.457,0
2.363,-88.344,0
2.364,-79.555,0
2.365,-71.681,0
2.366,-64.54,0
2.367,-53.554,0
2.368,-47.511,0
2.369,-42.018,0
2.37,-33.779,0
2.371,-29.384,0
2.372,-25.356,0
2.373,-19.313,0
2.374,-16.017,0
2.375,-13.088,0
2.376,-12.172,0
2.377,-6.496,0
2.378,-2.651,0
2.379,-7.228,0
2.38,-2.834,0
2.381,-2.284,0
2.382,4.307,0
2.383,1.561,0
2.384,0.828,0
2.385,1.561,0
2.386,4.857,0
2.387,6.688,0
2.388,5.04,0
2.389,5.406,0
2.39,6.688,0
2.391,8.702,0
2.392,11.265,0
2.393,11.632,0
2.394,10.899,0
2.395,11.082,0
2.396,12.913,0
2.397,14.195,0
2.398,10.716,0
2.399,18.223,0
2.4,35.252,0
2.401,37.633,0
2.402,53.013,0
2.403,50.999,0
2.404,23.533,0
2.405,-11.989,0
2.406,-26.271,0
2.407,-30.483,0
2.408,-26.637,0
2.409,-23.158,0
2.41,-20.046,0
2.411,-17.116,0
2.412,-19.679,0
2.413,-12.538,0
2.414,-5.947,0
2.415,0.096,0
2.416,5.589,0
2.417,7.237,0
2.418,8.702,0
2.419,12.73,0
2.42,13.829,0
2.421,10.533,0
2.422,11.448,0
2.423,12.364,0
2.424,14.744,0
2.425,14.012,0
2.426,18.59,0
2.427,28.111,0
2.428,34.886,0
2.429,16.392,0
2.43,-2.284,0
2.431,-4.665,0
2.432,-6.862,0
2.433,-4.848,0
2.434,-3.017,0
2.435,-4.665,0
2.436,-3.2,0
2.437,-1.918,0
2.438,1.561,0
2.439,4.857,0
2.44,3.941,0
2.441,4.857,0
2.442,5.589,0
2.443,7.786,0
2.444,9.617,0
2.445,7.786,0
2.446,5.04,0
2.447,3.758,0
2.448,3.941,0
2.449,5.223,0
2.45,11.448,0
2.451,25.365,0
2.452,51.549,0
2.453,55.028,0
2.454,25.731,0
2.455,-9.792,0
2.456,-24.074,0
2.457,-28.285,0
2.458,-32.131,0
2.459,-28.652,0
2.46,-25.539,0
2.461,-22.609,0
2.462,-20.046,0
2.463,-17.665,0
2.464,-11.073,0
2.465,-5.031,0
2.466,-3.2,0
2.467,-1.552,0
2.468,-0.087,0
2.469,-1.369,0
2.47,-0.27,0
2.471,7.603,0
2.472,2.659,0
2.473,1.744,0
2.474,2.476,0
2.475,6.322,0
2.476,10.899,0
2.477,7.786,0
2.478,5.04,0
2.479,4.674,0
2.48,5.955,0
2.481,7.969,0
2.482,6.871,0
2.483,5.04,0
2.484,1.011,0
2.485,1.561,0
2.486,-0.82,0
2.487,0.462,0
2.488,5.955,0
2.489,0.645,0
2.49,2.476,0
2.491,1.927,0
2.492,1.378,0
2.493,0.096,0
2.494,0.462,0
2.495,-0.636,0
2.496,-1.735,0
2.497,-2.101,0
2.498,-1.369,0
2.499,-0.453,0
2.5,0.279,0
2.501,4.307,0
2.502,12.73,0
2.503,31.224,0
2.504,49.901,0
2.505,42.76,0
2.506,9.617,0
2.507,-23.708,0
2.508,-36.525,0
2.509,-40.37,0
2.51,-36.891,0
2.511,-33.779,0
2.512,-30.849,0
2.513,-28.285,0
2.514,-25.905,0
2.515,-19.313,0
2.516,-13.271,0
2.517,-11.44,0
2.518,-9.792,0
2.519,-5.397,0
2.52,-1.369,0
2.521,2.11,0
2.522,5.406,0
2.523,8.336,0
2.524,12.913,0
2.525,10.533,0
2.526,8.336,0
2.527,8.885,0
2.528,7.054,0
2.529,7.603,0
2.53,6.322,0
2.531,7.603,0
2.532,3.026,0
2.533,4.857,0
2.534,3.209,0
2.535,3.575,0
2.536,3.941,0
2.537,1.927,0
2.538,1.561,0
2.539,1.195,0
2.54,2.659,0
2.541,4.49,0
2.542,5.223,0
2.543,3.758,0
2.544,1.744,0
2.545,-1.735,0
2.546,1.378,0
2.547,-4.848,0
2.548,-0.27,0
2.549,2.11,0
2.55,6.138,0
2.551,0.828,0
2.552,11.082,0
2.553,21.519,0
2.554,42.027,0
2.555,50.816,0
2.556,26.646,0
2.557,-9.059,0
2.558,-23.342,0
2.559,-27.553,0
2.56,-31.398,0
2.561,-27.919,0
2.562,-24.806,0
2.563,-21.877,0
2.564,-19.313,0
2.565,-16.933,0
2.566,-10.341,0
2.567,-8.327,0
2.568,-6.496,0
2.569,-1.552,0
2.57,-3.017,0
2.571,1.011,0
2.572,4.49,0
2.573,7.786,0
2.574,8.702,0
2.575,9.617,0
2.576,8.885,0
2.577,1.927,0
2.578,1.011,0
2.579,1.744,0
2.58,3.941,0
2.581,2.11,0
2.582,2.659,0
2.583,4.307,0
2.584,3.026,0
2.585,3.392,0
2.586,1.378,0
2.587,7.054,0
2.588,4.674,0
2.589,5.406,0
2.59,5.955,0
2.591,4.124,0
2.592,4.674,0
2.593,1.378,0
2.594,1.011,0
2.595,-0.087,0
2.596,1.744,0
2.597,-0.087,0
2.598,-0.27,0
2.599,-2.834,0
2.6,0.462,0
2.601,0.279,0
2.602,2.293,0
2.603,7.969,0
2.604,20.421,0
2.605,44.224,0
2.606,60.338,0
2.607,27.745,0
2.608,-2.468,0
2.609,-22.06,0
2.61,-32.68,0
2.611,-35.793,0
2.612,-27.004,0
2.613,-29.567,0
2.614,-22.426,0
2.615,-20.229,0
2.616,-18.215,0
2.617,-12.721,0
2.618,-11.073,0
2.619,-6.679,0
2.62,-2.651,0
2.621,3.392,0
2.622,0.096,0
2.623,5.04,0
2.624,4.124,0
2.625,6.505,0
2.626,14.927,0
2.627,31.956,0
2.628,48.802,0
2.629,59.788,0
2.63,29.576,0
2.631,-0.636,0
2.632,-20.229,0
2.633,-30.849,0
2.634,-27.736,0
2.635,-24.806,0
2.636,-22.243,0
2.637,-15.102,0
2.638,-12.905,0
2.639,-6.862,0
2.64,-1.369,0
2.641,-3.017,0
2.642,-1.552,0
2.643,-0.27,0
2.644,3.209,0
2.645,-0.087,0
2.646,4.857,0
2.647,2.11,0
2.648,2.843,0
2.649,2.11,0
2.65,6.688,0
2.651,4.857,0
2.652,6.138,0
2.653,7.786,0
2.654,13.28,0
2.655,24.815,0
2.656,43.126,0
2.657,50.267,0
2.658,43.675,0
2.659,25.548,0
2.66,-6.13,0
2.661,-27.736,0
2.662,-39.455,0
2.663,-35.976,0
2.664,-39.089,0
2.665,-36.159,0
2.666,-28.285,0
2.667,-21.144,0
2.668,-18.947,0
2.669,-16.933,0
2.67,-7.778,0
2.671,-2.834,0
2.672,4.674,0
2.673,25.181,0
2.674,16.392,0
2.675,3.026,0
2.676,-4.115,0
2.677,-1.918,0
2.678,-3.932,0
2.679,-2.101,0
2.68,-3.749,0
2.681,-2.284,0
2.682,-1.003,0
2.683,2.476,0
2.684,1.378,0
2.685,0.462,0
2.686,3.209,0
2.687,3.941,0
2.688,6.138,0
2.689,4.307,0
2.69,7.42,0
2.691,11.265,0
2.692,7.969,0
2.693,4.857,0
2.694,7.603,0
2.695,1.927,0
2.696,1.195,0
2.697,-1.003,0
2.698,-1.552,0
2.699,-2.101,0
2.7,0.645,0
2.701,0.279,0
2.702,3.392,0
2.703,1.744,0
2.704,4.49,0
2.705,10.167,0
2.706,22.618,0
2.707,50.084,0
2.708,53.929,0
2.709,14.561,0
2.71,-11.623,0
2.711,-25.905,0
2.712,-30.116,0
2.713,-26.271,0
2.714,-29.75,0
2.715,-26.637,0
2.716,-23.708,0
2.717,-15.834,0
2.718,-13.454,0
2.719,-6.862,0
2.72,-4.848,0
2.721,-3.017,0
2.722,-4.665,0
2.723,-0.27,0
2.724,3.758,0
2.725,7.237,0
2.726,3.941,0
2.727,3.026,0
2.728,2.11,0
2.729,2.843,0
2.73,2.11,0
2.731,1.561,0
2.732,3.392,0
2.733,2.843,0
2.734,1.561,0
2.735,1.927,0
2.736,5.772,0
2.737,3.392,0
2.738,4.674,0
2.739,7.42,0
2.74,7.054,0
2.741,8.885,0
2.742,4.307,0
2.743,3.758,0
2.744,1.927,0
2.745,2.476,0
2.746,1.195,0
2.747,2.476,0
2.748,-0.27,0
2.749,-0.636,0
2.75,-3.2,0
2.751,-6.496,0
2.752,-2.284,0
2.753,-1.735,0
2.754,3.209,0
2.755,0.828,0
2.756,7.786,0
2.757,22.984,0
2.758,56.126,0
2.759,51.365,0
2.76,12.364,0
2.761,-24.257,0
2.762,-29.018,0
2.763,-33.229,0
2.764,-29.384,0
2.765,-25.905,0
2.766,-22.792,0
2.767,-19.863,0
2.768,-11.989,0
2.769,-14.369,0
2.77,-7.778,0
2.771,-9.792,0
2.772,-4.299,0
2.773,0.645,0
2.774,-0.82,0
2.775,0.462,0
2.776,1.561,0
2.777,2.659,0
2.778,5.589,0
2.779,6.505,0
2.78,2.476,0
2.781,4.674,0
2.782,5.223,0
2.783,7.054,0
2.784,6.505,0
2.785,4.124,0
2.786,1.011,0
2.787,4.857,0
2.788,3.575,0
2.789,2.293,0
2.79,5.04,0
2.791,3.941,0
2.792,5.772,0
2.793,2.476,0
2.794,3.758,0
2.795,4.124,0
2.796,5.223,0
2.797,4.124,0
2.798,2.11,0
2.799,0.828,0
2.8,3.758,0
2.801,4.857,0
2.802,-0.636,0
2.803,0.096,0
2.804,0.645,0
2.805,-0.453,0
2.806,2.659,0
2.807,11.082,0
2.808,29.576,0
2.809,53.746,0
2.81,50.633,0
2.811,11.998,0
2.812,-14.186,0
2.813,-37.99,0
2.814,-33.779,0
2.815,-29.933,0
2.816,-26.454,0
2.817,-23.342,0
2.818,-20.412,0
2.819,-17.848,0
2.82,-10.707,0
2.821,-8.51,0
2.822,-2.468,0
2.823,-0.636,0
2.824,1.011,0
2.825,2.476,0
2.826,1.195,0
2.827,2.293,0
2.828,1.195,0
2.829,0.279,0
2.83,1.195,0
2.831,3.575,0
2.832,5.772,0
2.833,3.941,0
2.834,5.772,0
2.835,5.223,0
2.836,2.843,0
2.837,5.04,0
2.838,1.195,0
2.839,4.49,0
2.84,5.772,0
2.841,3.758,0
2.842,4.124,0
2.843,4.49,0
2.844,0.462,0
2.845,2.11,0
2.846,2.476,0
2.847,2.11,0
2.848,1.744,0
2.849,0.645,0
2.85,-0.453,0
2.851,0.279,0
2.852,3.392,0
2.853,-1.186,0
2.854,-1.735,0
2.855,-0.087,0
2.856,1.744,0
2.857,-1.552,0
2.858,5.406,0
2.859,20.604,0
2.86,49.351,0
2.861,53.197,0
2.862,28.294,0
2.863,-14.003,0
2.864,-19.679,0
2.865,-35.243,0
2.866,-30.483,0
2.867,-26.271,0
2.868,-22.426,0
2.869,-18.947,0
2.87,-15.834,0
2.871,-7.045,0
2.872,-9.609,0
2.873,-7.228,0
2.874,-5.031,0
2.875,1.011,0
2.876,2.843,0
2.877,-2.101,0
2.878,-0.636,0
2.879,3.392,0
2.88,2.293,0
2.881,3.392,0
2.882,4.307,0
2.883,7.054,0
2.884,4.674,0
2.885,6.871,0
2.886,3.575,0
2.887,6.688,0
2.888,2.843,0
2.889,4.124,0
2.89,6.322,0
2.891,5.955,0
2.892,6.322,0
2.893,3.026,0
2.894,1.927,0
2.895,2.293,0
2.896,0.462,0
2.897,0.279,0
2.898,2.11,0
2.899,3.392,0
2.9,1.927,0
2.901,-1.369,0
2.902,-1.003,0
2.903,-2.101,0
2.904,3.575,0
2.905,2.843,0
2.906,2.11,0
2.907,3.941,0
2.908,3.392,0
2.909,12.913,0
2.91,30.675,0
2.911,47.52,0
2.912,54.112,0
2.913,48.07,0
2.914,20.604,0
2.915,-22.792,0
2.916,-28.469,0
2.917,-33.595,0
2.918,-19.313,0
2.919,-15.102,0
2.92,-18.947,0
2.921,-29.567,0
2.922,-32.68,0
2.923,-29.75,0
2.924,-21.877,0
2.925,-19.496,0
2.926,-12.905,0
2.927,-10.89,0
2.928,-5.397,0
2.929,-0.453,0
2.93,1.011,0
2.931,2.293,0
2.932,1.195,0
2.933,4.49,0
2.934,7.42,0
2.935,8.336,0
2.936,7.603,0
2.937,6.871,0
2.938,2.293,0
2.939,6.688,0
2.94,5.04,0
2.941,3.758,0
2.942,5.04,0
2.943,7.786,0
2.944,7.42,0
2.945,7.054,0
2.946,2.476,0
2.947,7.054,0
2.948,7.603,0
2.949,8.153,0
2.95,9.434,0
2.951,2.476,0
2.952,3.392,0
2.953,0.645,0
2.954,-0.087,0
2.955,-0.82,0
2.956,3.758,0
2.957,1.927,0
2.958,-1.186,0
2.959,-5.031,0
2.96,2.476,0
2.961,19.505,0
2.962,41.478,0
2.963,62.169,0
2.964,48.802,0
2.965,12.364,0
2.966,-24.257,0
2.967,-38.539,0
2.968,-42.751,0
2.969,-31.032,0
2.97,-34.511,0
2.971,-24.99,0
2.972,-16.2,0
2.973,-13.637,0
2.974,-6.496,0
2.975,-4.299,0
2.976,-6.313,0
2.977,-4.482,0
2.978,0.462,0
2.979,1.927,0
2.98,5.955,0
2.981,4.857,0
2.982,8.153,0
2.983,9.068,0
2.984,9.984,0
2.985,5.955,0
2.986,9.801,0
2.987,7.969,0
2.988,4.857,0
2.989,8.702,0
2.99,9.984,0
2.991,8.702,0
2.992,4.124,0
2.993,-0.27,0
2.994,0.279,0
2.995,3.575,0
2.996,3.941,0
2.997,1.195,0
2.998,3.758,0
2.999,0.462,0
3,-1.552,0
3.001,-4.115,0
3.002,-1.552,0
3.003,-0.82,0
3.004,0.462,0
3.005,0.279,0
3.006,2.476,0
3.007,0.645,0
3.008,-1.186,0
3.009,1.744,0
3.01,-0.453,0
3.011,3.758,0
3.012,13.28,0
3.013,33.787,0
3.014,60.521,0
3.015,21.153,0
3.016,-5.031,0
3.017,-28.835,0
3.018,-33.046,0
3.019,-36.891,0
3.02,-40.37,0
3.021,-30.849,0
3.022,-22.06,0
3.023,-19.496,0
3.024,-17.116,0
3.025,-10.524,0
3.026,-8.51,0
3.027,0.645,0
3.028,-4.299,0
3.029,0.096,0
3.03,4.124,0
3.031,7.603,0
3.032,4.307,0
3.033,5.223,0
3.034,6.138,0
3.035,6.871,0
3.036,4.674,0
3.037,1.378,0
3.038,5.772,0
3.039,9.617,0
3.04,7.237,0
3.041,6.871,0
3.042,4.124,0
3.043,6.688,0
3.044,6.322,0
3.045,8.336,0
3.046,7.603,0
3.047,6.871,0
3.048,3.392,0
3.049,-2.101,0
3.05,3.209,0
3.051,-0.087,0
3.052,-0.636,0
3.053,-0.087,0
3.054,-1.369,0
3.055,1.744,0
3.056,2.11,0
3.057,1.744,0
3.058,0.645,0
3.059,2.659,0
3.06,0.279,0
3.061,1.011,0
3.062,5.04,0
3.063,13.463,0
3.064,31.956,0
3.065,50.633,0
3.066,48.253,0
3.067,15.111,0
3.068,-18.215,0
3.069,-31.032,0
3.07,-34.877,0
3.071,-24.257,0
3.072,-14.736,0
3.073,-11.806,0
3.074,1.561,0
3.075,13.646,0
3.076,15.843,0
3.077,13.829,0
3.078,15.66,0
3.079,14.012,0
3.08,9.617,0
3.081,13.646,0
3.082,10.167,0
3.083,-2.284,0
3.084,-13.82,0
3.085,-24.257,0
3.086,-31.032,0
3.087,-42.201,0
3.088,-40.737,0
3.089,-36.708,0
3.09,-28.285,0
3.091,-18.031,0
3.092,-22.06,0
3.093,-40.553,0
3.094,-59.23,0
3.095,-71.315,0
3.096,-104.46,0
3.097,-118.74,0
3.098,-122.95,0
3.099,-134.67,0
3.1,-159.57,0
3.101,-156.46,0
3.102,-147.67,0
3.103,-128.99,0
3.104,-116.91,0
3.105,-92.555,0
3.106,-43.849,0
3.107,33.238,0
3.108,105.02,0
3.109,151.71,0
3.11,176.98,0
3.111,156.28,0
3.112,133.21,0
3.113,126.26,0
3.114,145.12,0
3.115,150.79,0
3.116,155.92,0
3.117,179.72,0
3.118,183.93,0
3.119,172.22,0
3.12,154.45,0
3.121,138.34,0
3.122,129.55,0
3.123,110.88,0
3.124,103.73,0
3.125,92.747,0
3.126,70.592,0
3.127,43.858,0
3.128,26.097,0
3.129,22.984,0
3.13,20.054,0
3.131,22.618,0
3.132,15.477,0
3.133,4.49,0
3.134,-5.58,0
3.135,-7.411,0
3.136,-18.947,0
3.137,-23.342,0
3.138,-27.37,0
3.139,-30.849,0
3.14,-38.722,0
3.141,-45.68,0
3.142,-50.258,0
3.143,-59.413,0
3.144,-55.934,0
3.145,-54.836,0
3.146,-59.78,0
3.147,-64.357,0
3.148,-66.738,0
3.149,-67.47,0
3.15,-70.766,0
3.151,-73.879,0
3.152,-73.329,0
3.153,-67.836,0
3.154,-65.639,0
3.155,-63.808,0
3.156,-59.413,0
3.157,-50.99,0
3.158,-47.511,0
3.159,-44.216,0
3.16,-41.286,0
3.161,-36.708,0
3.162,-34.145,0
3.163,-26.637,0
3.164,-11.44,0
3.165,8.519,0
3.166,-10.158,0
3.167,-7.778,0
3.168,3.209,0
3.169,29.393,0
3.17,40.013,0
3.171,10.716,0
3.172,-24.806,0
3.173,-39.089,0
3.174,-34.877,0
3.175,-38.722,0
3.176,-35.243,0
3.177,-32.131,0
3.178,-23.342,0
3.179,-20.778,0
3.18,-13.637,0
3.181,-7.045,0
3.182,-1.003,0
3.183,4.49,0
3.184,6.138,0
3.185,10.533,0
3.186,9.251,0
3.187,15.294,0
3.188,18.59,0
3.189,21.519,0
3.19,20.604,0
3.191,21.336,0
3.192,22.069,0
3.193,22.618,0
3.194,19.505,0
3.195,15.66,0
3.196,15.294,0
3.197,13.096,0
3.198,12.73,0
3.199,10.899,0
3.2,9.801,0
3.201,9.068,0
3.202,9.801,0
3.203,12.73,0
3.204,10.167,0
3.205,12.73,0
3.206,13.463,0
3.207,14.744,0
3.208,11.265,0
3.209,14.378,0
3.21,10.533,0
3.211,5.955,0
3.212,2.843,0
3.213,4.674,0
3.214,5.223,0
3.215,12.73,0
3.216,18.406,0
3.217,33.604,0
3.218,57.957,0
3.219,28.66,0
3.22,-6.862,0
3.221,-21.144,0
3.222,-33.962,0
3.223,-30.116,0
3.224,-19.496,0
3.225,-22.609,0
3.226,-19.679,0
3.227,-17.116,0
3.228,-14.736,0
3.229,-12.538,0
3.23,-6.496,0
3.231,-4.665,0
3.232,3.575,0
3.233,-0.82,0
3.234,3.209,0
3.235,4.307,0
3.236,5.406,0
3.237,6.322,0
3.238,7.237,0
3.239,7.969,0
3.24,8.702,0
3.241,8.153,0
3.242,6.322,0
3.243,7.969,0
3.244,9.251,0
3.245,7.969,0
3.246,10.716,0
3.247,8.885,0
3.248,5.589,0
3.249,10.167,0
3.25,1.927,0
3.251,-1.369,0
3.252,-0.453,0
3.253,0.462,0
3.254,-1.918,0
3.255,1.927,0
3.256,-2.651,0
3.257,1.744,0
3.258,-1.003,0
3.259,1.378,0
3.26,-1.735,0
3.261,0.279,0
3.262,0.645,0
3.263,2.476,0
3.264,1.011,0
3.265,3.758,0
3.266,9.434,0
3.267,21.885,0
3.268,49.351,0
3.269,53.197,0
3.27,28.294,0
3.271,-14.003,0
3.272,-31.215,0
3.273,-26.088,0
3.274,-30.849,0
3.275,-26.637,0
3.276,-30.483,0
3.277,-27.004,0
3.278,-17.482,0
3.279,-20.412,0
3.28,-12.538,0
3.281,-10.158,0
3.282,-7.961,0
3.283,-5.947,0
3.284,-0.453,0
3.285,-2.101,0
3.286,-0.636,0
3.287,3.392,0
3.288,9.434,0
3.289,8.336,0
3.29,11.265,0
3.291,12.181,0
3.292,8.153,0
3.293,4.307,0
3.294,3.758,0
3.295,1.927,0
3.296,3.575,0
3.297,3.209,0
3.298,2.843,0
3.299,3.209,0
3.3,4.307,0
3.301,5.406,0
3.302,5.589,0
3.303,4.857,0
3.304,5.589,0
3.305,7.054,0
3.306,4.674,0
3.307,6.688,0
3.308,4.857,0
3.309,4.124,0
3.31,3.026,0
3.311,2.476,0
3.312,-0.453,0
3.313,-6.679,0
3.314,-5.763,0
3.315,-1.186,0
3.316,-3.566,0
3.317,7.969,0
3.318,22.984,0
3.319,41.112,0
3.32,53.197,0
3.321,50.999,0
3.322,20.787,0
3.323,-18.215,0
3.324,-33.779,0
3.325,-38.539,0
3.326,-34.328,0
3.327,-38.173,0
3.328,-34.694,0
3.329,-25.173,0
3.33,-22.243,0
3.331,-24.806,0
3.332,-7.961,0
3.333,-10.158,0
3.334,-4.115,0
3.335,-5.947,0
3.336,-4.299,0
3.337,3.209,0
3.338,7.237,0
3.339,3.758,0
3.34,7.054,0
3.341,7.969,0
3.342,8.885,0
3.343,8.153,0
3.344,10.35,0
3.345,4.124,0
3.346,9.801,0
3.347,10.533,0
3.348,13.829,0
3.349,8.153,0
3.35,4.307,0
3.351,4.857,0
3.352,6.688,0
3.353,8.336,0
3.354,8.702,0
3.355,9.068,0
3.356,7.969,0
3.357,6.138,0
3.358,2.843,0
3.359,4.857,0
3.36,1.378,0
3.361,1.011,0
3.362,-1.003,0
3.363,-2.101,0
3.364,-1.735,0
3.365,0.279,0
3.366,-1.918,0
3.367,-0.087,0
3.368,-4.115,0
3.369,4.307,0
3.37,22.801,0
3.371,41.478,0
3.372,39.097,0
3.373,32.506,0
3.374,22.435,0
3.375,5.955,0
3.376,12.547,0
3.377,18.59,0
3.378,-8.876,0
3.379,-44.399,0
3.38,-58.681,0
3.381,-62.892,0
3.382,-59.047,0
3.383,-48.427,0
3.384,-45.314,0
3.385,-36.525,0
3.386,-23.158,0
3.387,-20.778,0
3.388,-9.792,0
3.389,-7.778,0
3.39,1.378,0
3.391,3.026,0
3.392,7.42,0
3.393,8.702,0
3.394,9.801,0
3.395,13.096,0
3.396,14.012,0
3.397,14.927,0
3.398,14.195,0
3.399,16.392,0
3.4,16.942,0
3.401,13.829,0
3.402,13.28,0
3.403,14.561,0
3.404,12.364,0
3.405,11.998,0
3.406,13.096,0
3.407,11.998,0
3.408,12.73,0
3.409,16.942,0
3.41,26.463,0
3.411,33.238,0
3.412,14.744,0
3.413,-3.932,0
3.414,-11.073,0
3.415,-8.876,0
3.416,-10.89,0
3.417,-4.848,0
3.418,-3.017,0
3.419,1.927,0
3.42,24.449,0
3.421,40.562,0
3.422,43.492,0
3.423,56.859,0
3.424,34.886,0
3.425,-9.609,0
3.426,-28.469,0
3.427,-45.68,0
3.428,-40.553,0
3.429,-45.314,0
3.43,-32.497,0
3.431,-28.652,0
3.432,-25.173,0
3.433,-15.651,0
3.434,-12.721,0
3.435,-10.158,0
3.436,-3.017,0
3.437,-0.82,0
3.438,5.223,0
3.439,10.716,0
3.44,9.068,0
3.441,4.674,0
3.442,5.955,0
3.443,4.857,0
3.444,5.955,0
3.445,8.885,0
3.446,9.801,0
3.447,7.42,0
3.448,3.575,0
3.449,5.406,0
3.45,7.237,0
3.451,6.688,0
3.452,9.068,0
3.453,2.11,0
3.454,3.026,0
3.455,3.941,0
3.456,4.674,0
3.457,2.476,0
3.458,4.307,0
3.459,4.857,0
3.46,2.11,0
3.461,0.828,0
3.462,0.462,0
3.463,-0.636,0
3.464,1.195,0
3.465,-2.101,0
3.466,-1.735,0
3.467,-0.636,0
3.468,2.476,0
3.469,-0.82,0
3.47,5.406,0
3.471,19.322,0
3.472,49.534,0
3.473,53.746,0
3.474,18.223,0
3.475,-15.102,0
3.476,-27.919,0
3.477,-31.764,0
3.478,-35.243,0
3.479,-32.131,0
3.48,-29.201,0
3.481,-21.327,0
3.482,-18.947,0
3.483,-16.75,0
3.484,-14.736,0
3.485,-12.905,0
3.486,-4.665,0
3.487,-3.2,0
3.488,-1.918,0
3.489,1.561,0
3.49,2.659,0
3.491,1.744,0
3.492,2.659,0
3.493,6.688,0
3.494,10.533,0
3.495,5.955,0
3.496,7.786,0
3.497,5.04,0
3.498,4.674,0
3.499,4.307,0
3.5,1.561,0
3.501,4.124,0
3.502,6.688,0
3.503,2.659,0
3.504,4.307,0
3.505,5.589,0
3.506,5.223,0
3.507,2.476,0
3.508,3.575,0
3.509,5.406,0
3.51,0.828,0
3.511,2.659,0
3.512,-1.735,0
3.513,-2.284,0
3.514,1.011,0
3.515,1.378,0
3.516,-1.369,0
3.517,-2.468,0
3.518,-2.101,0
3.519,3.209,0
3.52,-1.369,0
3.521,8.885,0
3.522,28.477,0
3.523,41.844,0
3.524,48.985,0
3.525,55.577,0
3.526,25.365,0
3.527,-13.637,0
3.528,-29.201,0
3.529,-43.483,0
3.53,-39.272,0
3.531,-43.117,0
3.532,-39.638,0
3.533,-30.116,0
3.534,-27.187,0
3.535,-19.313,0
3.536,-12.172,0
3.537,-5.58,0
3.538,-7.594,0
3.539,-2.101,0
3.54,-0.453,0
3.541,1.011,0
3.542,2.293,0
3.543,1.195,0
3.544,4.49,0
3.545,7.42,0
3.546,8.336,0
3.547,5.955,0
3.548,5.223,0
3.549,7.054,0
3.55,8.885,0
3.551,3.758,0
3.552,5.589,0
3.553,9.984,0
3.554,7.237,0
3.555,6.871,0
3.556,8.153,0
3.557,11.998,0
3.558,7.42,0
3.559,9.251,0
3.56,5.406,0
3.561,5.04,0
3.562,4.674,0
3.563,0.828,0
3.564,0.462,0
3.565,2.659,0
3.566,0.645,0
3.567,-1.918,0
3.568,-0.087,0
3.569,-4.665,0
3.57,-2.651,0
3.571,1.927,0
3.572,11.448,0
3.573,26.463,0
3.574,40.562,0
3.575,49.718,0
3.576,54.661,0
3.577,32.139,0
3.578,-16.567,0
3.579,-37.441,0
3.58,-43.666,0
3.581,-37.99,0
3.582,-43.117,0
3.583,-38.356,0
3.584,-34.145,0
3.585,-30.3,0
3.586,-19.679,0
3.587,-16.567,0
3.588,-7.778,0
3.589,-5.214,0
3.59,-2.834,0
3.591,3.758,0
3.592,1.744,0
3.593,3.575,0
3.594,5.223,0
3.595,3.758,0
3.596,2.476,0
3.597,5.955,0
3.598,4.857,0
3.599,11.815,0
3.6,9.068,0
3.601,6.688,0
3.602,5.955,0
3.603,6.505,0
3.604,7.054,0
3.605,6.505,0
3.606,7.786,0
3.607,6.505,0
3.608,11.082,0
3.609,2.843,0
3.61,6.138,0
3.611,1.195,0
3.612,3.941,0
3.613,1.561,0
3.614,-0.636,0
3.615,3.941,0
3.616,4.49,0
3.617,-0.636,0
3.618,-2.468,0
3.619,-3.017,0
3.62,0.828,0
3.621,-0.453,0
3.622,-0.087,0
3.623,6.871,0
3.624,22.069,0
3.625,55.211,0
3.626,50.45,0
3.627,20.238,0
3.628,-15.285,0
3.629,-29.567,0
3.63,-33.779,0
3.631,-29.933,0
3.632,-26.454,0
3.633,-23.342,0
3.634,-20.412,0
3.635,-22.975,0
3.636,-10.89,0
3.637,-4.299,0
3.638,-2.284,0
3.639,-4.115,0
3.64,4.124,0
3.641,2.659,0
3.642,3.941,0
3.643,2.843,0
3.644,6.138,0
3.645,9.068,0
3.646,6.322,0
3.647,3.941,0
3.648,1.744,0
3.649,2.293,0
3.65,1.744,0
3.651,2.293,0
3.652,1.927,0
3.653,1.561,0
3.654,5.406,0
3.655,10.899,0
3.656,22.435,0
3.657,20.787,0
3.658,4.307,0
3.659,-6.679,0
3.66,-4.665,0
3.661,-6.496,0
3.662,-8.144,0
3.663,-6.679,0
3.664,-2.651,0
3.665,-1.552,0
3.666,-0.453,0
3.667,-1.369,0
3.668,-4.115,0
3.669,-3.383,0
3.67,-1.186,0
3.671,-0.636,0
3.672,-0.453,0
3.673,2.659,0
3.674,4.307,0
3.675,11.815,0
3.676,28.844,0
3.677,60.521,0
3.678,47.703,0
3.679,12.181,0
3.68,-30.849,0
3.681,-36.525,0
3.682,-41.652,0
3.683,-36.891,0
3.684,-32.68,0
3.685,-28.835,0
3.686,-18.215,0
3.687,-15.102,0
3.688,-12.172,0
3.689,-4.299,0
3.69,-1.918,0
3.691,0.279,0
3.692,-1.735,0
3.693,0.096,0
3.694,1.744,0
3.695,3.209,0
3.696,7.237,0
3.697,3.758,0
3.698,0.462,0
3.699,3.392,0
3.7,6.138,0
3.701,2.11,0
3.702,5.955,0
3.703,6.505,0
3.704,8.336,0
3.705,7.786,0
3.706,11.082,0
3.707,6.871,0
3.708,9.617,0
3.709,5.04,0
3.71,6.871,0
3.711,0.645,0
3.712,3.026,0
3.713,3.758,0
3.714,3.209,0
3.715,-2.468,0
3.716,-3.2,0
3.717,0.096,0
3.718,0.645,0
3.719,2.293,0
3.72,-0.087,0
3.721,4.124,0
3.722,3.575,0
3.723,1.744,0
3.724,3.026,0
3.725,9.984,0
3.726,25.181,0
3.727,36.168,0
3.728,38.182,0
3.729,50.999,0
3.73,26.097,0
3.731,-13.271,0
3.732,-28.835,0
3.733,-43.117,0
3.734,-47.328,0
3.735,-35.61,0
3.736,-32.131,0
3.737,-29.018,0
3.738,-20.229,0
3.739,-17.665,0
3.74,-10.524,0
3.741,-8.327,0
3.742,-6.313,0
3.743,-4.482,0
3.744,-6.13,0
3.745,4.307,0
3.746,5.589,0
3.747,4.49,0
3.748,5.589,0
3.749,4.674,0
3.75,5.589,0
3.751,7.969,0
3.752,7.237,0
3.753,7.786,0
3.754,9.617,0
3.755,7.969,0
3.756,9.251,0
3.757,7.969,0
3.758,5.955,0
3.759,1.744,0
3.76,-2.101,0
3.761,-0.82,0
3.762,-0.453,0
3.763,-1.552,0
3.764,1.011,0
3.765,2.843,0
3.766,6.138,0
3.767,3.941,0
3.768,5.955,0
3.769,1.744,0
3.77,3.392,0
3.771,2.11,0
3.772,2.476,0
3.773,4.49,0
3.774,7.603,0
3.775,7.969,0
3.776,13.463,0
3.777,24.998,0
3.778,49.901,0
3.779,53.38,0
3.78,17.674,0
3.781,-15.651,0
3.782,-28.469,0
3.783,-32.314,0
3.784,-28.835,0
3.785,-25.722,0
3.786,-22.792,0
3.787,-14.919,0
3.788,-12.538,0
3.789,-10.341,0
3.79,-8.327,0
3.791,-6.496,0
3.792,-1.552,0
3.793,-0.087,0
3.794,1.195,0
3.795,-2.284,0
3.796,-1.186,0
3.797,-0.27,0
3.798,-1.186,0
3.799,1.195,0
3.8,1.927,0
3.801,3.758,0
3.802,1.927,0
3.803,3.575,0
3.804,2.293,0
3.805,4.49,0
3.806,6.505,0
3.807,2.293,0
3.808,5.04,0
3.809,1.744,0
3.81,2.11,0
3.811,1.011,0
3.812,-1.552,0
3.813,-1.186,0
3.814,1.561,0
3.815,-1.003,0
3.816,-1.369,0
3.817,-0.636,0
3.818,1.195,0
3.819,0.462,0
3.82,1.011,0
3.821,1.195,0
3.822,4.124,0
3.823,1.378,0
3.824,6.322,0
3.825,3.941,0
3.826,4.49,0
3.827,8.885,0
3.828,17.308,0
3.829,35.802,0
3.83,54.478,0
3.831,27.745,0
3.832,-4.482,0
3.833,-26.088,0
3.834,-37.807,0
3.835,-34.328,0
3.836,-31.215,0
3.837,-28.285,0
3.838,-25.722,0
3.839,-18.581,0
3.84,-16.384,0
3.841,-10.341,0
3.842,-8.51,0
3.843,-6.862,0
3.844,-2.468,0
3.845,1.561,0
3.846,5.04,0
3.847,3.941,0
3.848,1.011,0
3.849,1.927,0
3.85,1.195,0
3.851,1.927,0
3.852,3.758,0
3.853,4.307,0
3.854,7.054,0
3.855,5.772,0
3.856,9.984,0
3.857,8.336,0
3.858,7.969,0
3.859,7.603,0
3.86,3.758,0
3.861,3.392,0
3.862,5.589,0
3.863,2.843,0
3.864,1.011,0
3.865,2.11,0
3.866,-0.636,0
3.867,-1.003,0
3.868,1.561,0
3.869,3.026,0
3.87,7.237,0
3.871,6.688,0
3.872,10.533,0
3.873,15.111,0
3.874,16.942,0
3.875,22.069,0
3.876,23.717,0
3.877,28.294,0
3.878,37.816,0
3.879,50.084,0
3.88,65.098,0
3.881,63.084,0
3.882,61.253,0
3.883,36.351,0
3.884,-3.017,0
3.885,-29.201,0
3.886,-53.005,0
3.887,-65.822,0
3.888,-69.667,0
3.889,-80.287,0
3.89,-83.4,0
3.891,-68.569,0
3.892,-66.005,0
3.893,-49.159,0
3.894,-33.779,0
3.895,-47.878,0
3.896,-49.709,0
3.897,-68.019,0
3.898,-89.992,0
3.899,-104.82,0
3.9,-123.5,0
3.901,-116.36,0
3.902,-118.56,0
3.903,-128.63,0
3.904,-137.78,0
3.905,-122.77,0
3.906,-116.72,0
3.907,-103.91,0
3.908,-82.302,0
3.909,-37.807,0
3.91,57.591,0
3.911,153.17,0
3.912,165.62,0
3.913,176.79,0
3.914,146.03,0
3.915,118.02,0
3.916,109.59,0
3.917,101.9,0
3.918,94.945,0
3.919,101.17,0
3.92,106.85,0
3.921,133.03,0
3.922,156.83,0
3.923,169.65,0
3.924,173.5,0
3.925,162.88,0
3.926,146.76,0
3.927,133.58,0
3.928,124.79,0
3.929,111.42,0
3.93,104.28,0
3.931,106.48,0
3.932,92.381,0
3.933,64.915,0
3.934,13.646,0
3.935,-7.228,0
3.936,-26.088,0
3.937,-31.764,0
3.938,-36.891,0
3.939,-51.174,0
3.94,-55.385,0
3.941,-51.54,0
3.942,-55.019,0
3.943,-58.132,0
3.944,-66.921,0
3.945,-64.357,0
3.946,-57.216,0
3.947,-59.413,0
3.948,-65.456,0
3.949,-63.625,0
3.95,-65.273,0
3.951,-66.738,0
3.952,-73.512,0
3.953,-76.991,0
3.954,-73.696,0
3.955,-70.766,0
3.956,-66.188,0
3.957,-62.16,0
3.958,-52.089,0
3.959,-50.807,0
3.96,-49.709,0
3.961,-46.413,0
3.962,-41.469,0
3.963,-36.891,0
3.964,-31.215,0
3.965,-30.483,0
3.966,-25.905,0
3.967,-21.51,0
3.968,-16.384,0
3.969,-16.933,0
3.97,-11.257,0
3.971,-11.989,0
3.972,-4.482,0
3.973,-3.566,0
3.974,-2.651,0
3.975,-6.679,0
3.976,-1.369,0
3.977,-0.82,0
3.978,3.941,0
3.979,5.772,0
3.98,14.195,0
3.981,32.689,0
3.982,51.365,0
3.983,63.45,0
3.984,34.703,0
3.985,-0.82,0
3.986,-24.623,0
3.987,-28.835,0
3.988,-24.99,0
3.989,-21.51,0
3.99,-18.398,0
3.991,-15.468,0
3.992,-12.905,0
3.993,-10.524,0
3.994,-3.932,0
3.995,-1.918,0
3.996,-0.087,0
3.997,4.857,0
3.998,9.251,0
3.999,7.969,0
4,11.448,0
4.001,14.744,0
4.002,11.815,0
4.003,14.561,0
4.004,15.294,0
4.005,19.139,0
4.006,15.843,0
4.007,17.674,0
4.008,13.829,0
4.009,10.533,0
4.01,11.815,0
4.011,12.181,0
4.012,10.35,0
4.013,11.448,0
4.014,6.871,0
4.015,10.167,0
4.016,7.054,0
4.017,8.702,0
4.018,5.406,0
4.019,6.688,0
4.02,9.434,0
4.021,6.871,0
4.022,7.237,0
4.023,7.054,0
4.024,8.336,0
4.025,4.307,0
4.026,7.054,0
4.027,3.758,0
4.028,5.04,0
4.029,5.406,0
4.03,3.392,0
4.031,9.068,0
4.032,21.519,0
4.033,37.999,0
4.034,40.196,0
4.035,34.154,0
4.036,17.674,0
4.037,-11.073,0
4.038,-30.666,0
4.039,-41.286,0
4.04,-44.399,0
4.041,-35.61,0
4.042,-33.046,0
4.043,-30.666,0
4.044,-28.469,0
4.045,-22.426,0
4.046,-13.271,0
4.047,-8.327,0
4.048,-6.862,0
4.049,-0.087,0
4.05,-1.186,0
4.051,2.11,0
4.052,1.195,0
4.053,5.772,0
4.054,8.153,0
4.055,10.35,0
4.056,9.801,0
4.057,9.251,0
4.058,11.998,0
4.059,11.632,0
4.06,7.42,0
4.061,6.871,0
4.062,5.589,0
4.063,7.786,0
4.064,3.941,0
4.065,4.307,0
4.066,3.941,0
4.067,5.04,0
4.068,4.674,0
4.069,5.04,0
4.07,4.857,0
4.071,6.138,0
4.072,3.209,0
4.073,1.378,0
4.074,4.674,0
4.075,3.575,0
4.076,3.941,0
4.077,1.378,0
4.078,-0.636,0
4.079,1.195,0
4.08,1.744,0
4.081,0.462,0
4.082,3.941,0
4.083,11.448,0
4.084,28.477,0
4.085,50.45,0
4.086,23.717,0
4.087,-1.186,0
4.088,-30.483,0
4.089,-34.328,0
4.09,-37.807,0
4.091,-28.285,0
4.092,-31.215,0
4.093,-23.342,0
4.094,-20.961,0
4.095,-18.764,0
4.096,-16.75,0
4.097,-7.594,0
4.098,-9.242,0
4.099,-7.778,0
4.1,-1.003,0
4.101,-2.101,0
4.102,-3.2,0
4.103,3.758,0
4.104,4.674,0
4.105,8.702,0
4.106,4.857,0
4.107,6.688,0
4.108,8.519,0
4.109,5.772,0
4.11,4.49,0
4.111,5.772,0
4.112,6.871,0
4.113,4.307,0
4.114,4.674,0
4.115,5.406,0
4.116,4.674,0
4.117,3.941,0
4.118,3.392,0
4.119,4.857,0
4.12,4.674,0
4.121,4.857,0
4.122,3.392,0
4.123,3.209,0
4.124,2.659,0
4.125,2.476,0
4.126,-0.27,0
4.127,-2.101,0
4.128,0.462,0
4.129,-4.115,0
4.13,-3.566,0
4.131,-2.651,0
4.132,1.744,0
4.133,6.871,0
4.134,15.843,0
4.135,34.337,0
4.136,36.9,0
4.137,44.041,0
4.138,50.633,0
4.139,36.534,0
4.14,9.068,0
4.141,-34.328,0
4.142,-51.54,0
4.143,-46.413,0
4.144,-41.652,0
4.145,-37.441,0
4.146,-41.286,0
4.147,-9.059,0
4.148,3.758,0
4.149,-0.087,0
4.15,-10.707,0
4.151,-20.229,0
4.152,-17.299,0
4.153,-14.736,0
4.154,-7.594,0
4.155,-5.397,0
4.156,-3.383,0
4.157,-1.552,0
4.158,0.096,0
4.159,10.533,0
4.16,9.251,0
4.161,8.153,0
4.162,11.448,0
4.163,16.392,0
4.164,11.815,0
4.165,11.082,0
4.166,11.815,0
4.167,8.519,0
4.168,7.969,0
4.169,6.322,0
4.17,5.04,0
4.171,5.406,0
4.172,9.984,0
4.173,6.871,0
4.174,6.322,0
4.175,5.04,0
4.176,10.167,0
4.177,5.589,0
4.178,3.758,0
4.179,2.11,0
4.18,2.476,0
4.181,5.589,0
4.182,3.941,0
4.183,5.04,0
4.184,10.716,0
4.185,21.519,0
4.186,44.041,0
4.187,60.155,0
4.188,33.421,0
4.189,-13.088,0
4.19,-19.313,0
4.191,-24.99,0
4.192,-30.116,0
4.193,-34.877,0
4.194,-30.666,0
4.195,-34.511,0
4.196,-23.891,0
4.197,-14.369,0
4.198,-17.299,0
4.199,-14.736,0
4.2,-7.594,0
4.201,-5.397,0
4.202,0.645,0
4.203,-1.186,0
4.204,7.054,0
4.205,5.589,0
4.206,9.617,0
4.207,8.519,0
4.208,7.42,0
4.209,10.35,0
4.21,7.603,0
4.211,6.871,0
4.212,4.674,0
4.213,4.124,0
4.214,2.293,0
4.215,3.941,0
4.216,3.575,0
4.217,7.786,0
4.218,7.237,0
4.219,5.955,0
4.22,2.843,0
4.221,5.589,0
4.222,3.758,0
4.223,2.659,0
4.224,4.124,0
4.225,6.688,0
4.226,6.322,0
4.227,1.744,0
4.228,2.293,0
4.229,-0.82,0
4.23,-0.27,0
4.231,-0.636,0
4.232,-2.834,0
4.233,-0.453,0
4.234,0.645,0
4.235,6.322,0
4.236,18.773,0
4.237,38.914,0
4.238,46.788,0
4.239,58.873,0
4.24,25.731,0
4.241,-17.299,0
4.242,-34.511,0
4.243,-50.075,0
4.244,-45.314,0
4.245,-41.103,0
4.246,-37.258,0
4.247,-33.779,0
4.248,-24.257,0
4.249,-15.468,0
4.25,-18.031,0
4.251,-10.89,0
4.252,-8.693,0
4.253,-6.679,0
4.254,-1.186,0
4.255,3.758,0
4.256,5.223,0
4.257,1.195,0
4.258,7.237,0
4.259,6.138,0
4.26,7.054,0
4.261,9.801,0
4.262,7.42,0
4.263,9.617,0
4.264,7.786,0
4.265,9.617,0
4.266,9.068,0
4.267,8.702,0
4.268,8.336,0
4.269,8.702,0
4.27,5.223,0
4.271,7.42,0
4.272,6.322,0
4.273,5.955,0
4.274,2.659,0
4.275,5.406,0
4.276,3.575,0
4.277,4.674,0
4.278,1.927,0
4.279,3.758,0
4.28,1.927,0
4.281,-1.369,0
4.282,-1.003,0
4.283,-2.101,0
4.284,-1.186,0
4.285,-0.82,0
4.286,4.674,0
4.287,16.209,0
4.288,41.112,0
4.289,66.014,0
4.29,30.308,0
4.291,-3.017,0
4.292,-24.623,0
4.293,-36.342,0
4.294,-39.821,0
4.295,-36.708,0
4.296,-33.779,0
4.297,-31.215,0
4.298,-24.074,0
4.299,-17.482,0
4.3,-15.468,0
4.301,-13.637,0
4.302,-8.693,0
4.303,-4.299,0
4.304,-0.27,0
4.305,3.209,0
4.306,6.505,0
4.307,3.575,0
4.308,6.322,0
4.309,3.941,0
4.31,6.138,0
4.311,6.688,0
4.312,3.575,0
4.313,1.927,0
4.314,3.209,0
4.315,6.322,0
4.316,5.955,0
4.317,5.589,0
4.318,3.758,0
4.319,7.054,0
4.32,8.336,0
4.321,7.237,0
4.322,5.406,0
4.323,2.11,0
4.324,4.857,0
4.325,3.026,0
4.326,1.195,0
4.327,4.49,0
4.328,4.857,0
4.329,4.49,0
4.33,3.392,0
4.331,4.49,0
4.332,1.195,0
4.333,-1.003,0
4.334,-3.017,0
4.335,-2.651,0
4.336,-2.284,0
4.337,3.209,0
4.338,14.744,0
4.339,39.647,0
4.34,50.267,0
4.341,53.38,0
4.342,26.646,0
4.343,-12.721,0
4.344,-38.906,0
4.345,-43.666,0
4.346,-39.455,0
4.347,-35.61,0
4.348,-39.089,0
4.349,-29.567,0
4.35,-26.637,0
4.351,-18.764,0
4.352,-11.623,0
4.353,-9.426,0
4.354,-3.383,0
4.355,-1.552,0
4.356,0.096,0
4.357,1.561,0
4.358,5.589,0
4.359,4.49,0
4.36,5.589,0
4.361,8.519,0
4.362,9.434,0
4.363,8.702,0
4.364,6.505,0
4.365,7.054,0
4.366,5.223,0
4.367,1.378,0
4.368,2.659,0
4.369,5.772,0
4.37,6.871,0
4.371,7.969,0
4.372,8.336,0
4.373,9.801,0
4.374,6.138,0
4.375,6.505,0
4.376,4.307,0
4.377,7.054,0
4.378,7.42,0
4.379,1.927,0
4.38,2.659,0
4.381,2.11,0
4.382,3.941,0
4.383,0.096,0
4.384,-0.27,0
4.385,-1.552,0
4.386,1.011,0
4.387,-1.003,0
4.388,0.096,0
4.389,1.927,0
4.39,-1.369,0
4.391,0.828,0
4.392,7.054,0
4.393,20.97,0
4.394,27.012,0
4.395,3.209,0
4.396,0.096,0
4.397,26.829,0
4.398,30.308,0
4.399,39.83,0
4.4,42.76,0
4.401,7.786,0
4.402,-35.243,0
4.403,-40.92,0
4.404,-46.047,0
4.405,-41.286,0
4.406,-45.497,0
4.407,-33.779,0
4.408,-30.3,0
4.409,-20.778,0
4.41,-17.848,0
4.411,-15.285,0
4.412,-3.2,0
4.413,-5.397,0
4.414,-3.383,0
4.415,2.11,0
4.416,3.758,0
4.417,5.223,0
4.418,3.941,0
4.419,7.42,0
4.42,10.716,0
4.421,11.632,0
4.422,14.378,0
4.423,11.998,0
4.424,8.153,0
4.425,11.448,0
4.426,10.899,0
4.427,7.054,0
4.428,6.688,0
4.429,9.801,0
4.43,5.223,0
4.431,3.392,0
4.432,3.941,0
4.433,4.307,0
4.434,3.026,0
4.435,4.124,0
4.436,6.688,0
4.437,6.871,0
4.438,4.307,0
4.439,8.885,0
4.44,19.139,0
4.441,41.661,0
4.442,57.774,0
4.443,19.139,0
4.444,-7.045,0
4.445,-30.849,0
4.446,-35.06,0
4.447,-38.906,0
4.448,-28.285,0
4.449,-31.398,0
4.45,-22.609,0
4.451,-20.046,0
4.452,-12.905,0
4.453,-10.707,0
4.454,-4.665,0
4.455,-2.834,0
4.456,2.11,0
4.457,3.575,0
4.458,4.857,0
4.459,3.758,0
4.46,4.857,0
4.461,7.786,0
4.462,5.04,0
4.463,4.307,0
4.464,6.505,0
4.465,4.674,0
4.466,1.561,0
4.467,5.406,0
4.468,5.772,0
4.469,7.054,0
4.47,8.153,0
4.471,4.674,0
4.472,5.04,0
4.473,2.293,0
4.474,4.124,0
4.475,1.561,0
4.476,-1.735,0
4.477,0.462,0
4.478,2.476,0
4.479,0.645,0
4.48,-0.453,0
4.481,2.293,0
4.482,0.462,0
4.483,0.828,0
4.484,-0.636,0
4.485,-4.299,0
4.486,-3.017,0
4.487,-0.82,0
4.488,-1.186,0
4.489,1.561,0
4.49,7.237,0
4.491,19.688,0
4.492,47.154,0
4.493,58.873,0
4.494,48.253,0
4.495,5.955,0
4.496,-22.792,0
4.497,-27.919,0
4.498,-42.201,0
4.499,-37.99,0
4.5,-34.145,0
4.501,-30.666,0
4.502,-27.553,0
4.503,-24.623,0
4.504,-16.75,0
4.505,-14.369,0
4.506,-7.778,0
4.507,-1.735,0
4.508,3.758,0
4.509,5.406,0
4.51,6.871,0
4.511,8.153,0
4.512,11.632,0
4.513,8.336,0
4.514,5.406,0
4.515,2.659,0
4.516,3.392,0
4.517,2.659,0
4.518,4.49,0
4.519,5.04,0
4.52,6.688,0
4.521,3.392,0
4.522,2.11,0
4.523,3.209,0
4.524,3.575,0
4.525,5.406,0
4.526,3.941,0
4.527,5.223,0
4.528,1.744,0
4.529,3.941,0
4.53,1.195,0
4.531,3.026,0
4.532,3.392,0
4.533,1.927,0
4.534,-1.186,0
4.535,-2.284,0
4.536,-0.453,0
4.537,2.843,0
4.538,0.096,0
4.539,-1.186,0
4.54,0.645,0
4.541,6.138,0
4.542,17.674,0
4.543,42.576,0
4.544,46.055,0
4.545,10.35,0
4.546,-13.454,0
4.547,-35.06,0
4.548,-23.342,0
4.549,-26.821,0
4.55,-29.933,0
4.551,-21.144,0
4.552,-18.581,0
4.553,-16.2,0
4.554,-14.003,0
4.555,-11.989,0
4.556,-10.158,0
4.557,-5.214,0
4.558,-3.749,0
4.559,0.279,0
4.56,-0.82,0
4.561,2.476,0
4.562,1.561,0
4.563,4.307,0
4.564,6.688,0
4.565,7.42,0
4.566,2.843,0
4.567,3.392,0
4.568,5.04,0
4.569,4.674,0
4.57,7.786,0
4.571,6.688,0
4.572,7.786,0
4.573,5.955,0
4.574,6.688,0
4.575,8.519,0
4.576,6.138,0
4.577,6.322,0
4.578,4.49,0
4.579,5.223,0
4.58,8.336,0
4.581,5.589,0
4.582,5.223,0
4.583,4.124,0
4.584,3.941,0
4.585,4.124,0
4.586,4.857,0
4.587,4.674,0
4.588,1.378,0
4.589,1.011,0
4.59,3.941,0
4.591,1.927,0
4.592,7.603,0
4.593,20.054,0
4.594,25.548,0
4.595,43.858,0
4.596,50.999,0
4.597,17.857,0
4.598,-15.468,0
4.599,-37.074,0
4.6,-40.92,0
4.601,-44.399,0
4.602,-41.286,0
4.603,-38.356,0
4.604,-30.483,0
4.605,-28.102,0
4.606,-17.116,0
4.607,-15.102,0
4.608,-9.609,0
4.609,-4.665,0
4.61,-0.27,0
4.611,-1.552,0
4.612,-0.453,0
4.613,0.645,0
4.614,5.589,0
4.615,4.674,0
4.616,5.406,0
4.617,4.674,0
4.618,6.505,0
4.619,4.674,0
4.62,7.42,0
4.621,7.054,0
4.622,8.336,0
4.623,8.702,0
4.624,8.336,0
4.625,6.505,0
4.626,7.237,0
4.627,5.955,0
4.628,6.688,0
4.629,4.49,0
4.63,0.279,0
4.631,-0.27,0
4.632,-0.82,0
4.633,3.758,0
4.634,1.927,0
4.635,1.378,0
4.636,0.096,0
4.637,1.378,0
4.638,7.603,0
4.639,21.519,0
4.64,23.533,0
4.641,4.674,0
4.642,-4.482,0
4.643,-9.426,0
4.644,-10.89,0
4.645,1.378,0
4.646,26.28,0
4.647,51.182,0
4.648,21.885,0
4.649,-13.637,0
4.65,-27.919,0
4.651,-32.131,0
4.652,-35.976,0
4.653,-32.497,0
4.654,-22.975,0
4.655,-25.905,0
4.656,-12.538,0
4.657,-10.158,0
4.658,-7.961,0
4.659,-9.975,0
4.66,-4.482,0
4.661,-2.834,0
4.662,1.561,0
4.663,0.279,0
4.664,3.758,0
4.665,9.434,0
4.666,8.519,0
4.667,11.265,0
4.668,13.646,0
4.669,20.604,0
4.67,21.519,0
4.671,20.787,0
4.672,26.097,0
4.673,29.393,0
4.674,33.787,0
4.675,37.633,0
4.676,35.252,0
4.677,32.139,0
4.678,25.914,0
4.679,17.491,0
4.68,11.815,0
4.681,12.73,0
4.682,2.476,0
4.683,-9.792,0
4.684,-28.102,0
4.685,-35.243,0
4.686,-41.835,0
4.687,-47.878,0
4.688,-49.709,0
4.689,-41.469,0
4.69,-37.074,0
4.691,-24.806,0
4.692,-26.821,0
4.693,-38.356,0
4.694,-45.864,0
4.695,-58.132,0
4.696,-56.484,0
4.697,-57.948,0
4.698,-78.456,0
4.699,-122.95,0
4.7,-167.26,0
4.701,-172.94,0
4.702,-157.38,0
4.703,-143.09,0
4.704,-138.88,0
4.705,-111.42,0
4.706,-72.048,0
4.707,6.688,0
4.708,130.83,0
4.709,147.31,0
4.71,162.33,0
4.711,148.78,0
4.712,136.33,0
4.713,125.16,0
4.714,114.9,0
4.715,105.56,0
4.716,80.296,0
4.717,87.987,0
4.718,108.86,0
4.719,140.54,0
4.72,146.21,0
4.721,151.34,0
4.722,146.58,0
4.723,133.76,0
4.724,122.04,0
4.725,111.42,0
4.726,101.9,0
4.727,81.212,0
4.728,57.042,0
4.729,40.928,0
4.73,37.999,0
4.731,35.435,0
4.732,37.816,0
4.733,22.435,0
4.734,12.364,0
4.735,-0.453,0
4.736,-8.693,0
4.737,-22.243,0
4.738,-31.398,0
4.739,-26.454,0
4.74,-36.891,0
4.741,-46.413,0
4.742,-49.892,0
4.743,-48.793,0
4.744,-52.089,0
4.745,-36.891,0
4.746,-39.089,0
4.747,-24.99,0
4.748,-23.158,0
4.749,-21.51,0
4.75,-44.032,0
4.751,-86.33,0
4.752,-103.54,0
4.753,-108.67,0
4.754,-113.43,0
4.755,-100.61,0
4.756,-96.767,0
4.757,-86.147,0
4.758,-76.625,0
4.759,-67.836,0
4.76,-59.963,0
4.761,-47.878,0
4.762,-36.891,0
4.763,-34.877,0
4.764,-29.384,0
4.765,-24.44,0
4.766,-16.933,0
4.767,-12.905,0
4.768,-9.426,0
4.769,-1.552,0
4.77,3.392,0
4.771,4.307,0
4.772,5.04,0
4.773,7.237,0
4.774,10.533,0
4.775,11.082,0
4.776,9.434,0
4.777,10.716,0
4.778,9.434,0
4.779,7.42,0
4.78,7.786,0
4.781,9.617,0
4.782,11.082,0
4.783,11.265,0
4.784,11.448,0
4.785,10.35,0
4.786,12.73,0
4.787,10.716,0
4.788,7.603,0
4.789,12.181,0
4.79,10.35,0
4.791,11.998,0
4.792,8.702,0
4.793,9.068,0
4.794,13.463,0
4.795,14.561,0
4.796,20.238,0
4.797,32.689,0
4.798,52.83,0
4.799,66.197,0
4.8,54.112,0
4.801,20.97,0
4.802,-22.06,0
4.803,-27.736,0
4.804,-32.863,0
4.805,-28.102,0
4.806,-23.891,0
4.807,-20.046,0
4.808,-16.567,0
4.809,-13.454,0
4.81,-10.524,0
4.811,-7.961,0
4.812,-5.58,0
4.813,-3.383,0
4.814,-1.369,0
4.815,7.786,0
4.816,6.138,0
4.817,7.603,0
4.818,11.632,0
4.819,8.153,0
4.82,9.251,0
4.821,12.181,0
4.822,9.434,0
4.823,7.054,0
4.824,9.251,0
4.825,12.547,0
4.826,9.434,0
4.827,11.082,0
4.828,14.378,0
4.829,10.167,0
4.83,8.519,0
4.831,1.011,0
4.832,2.11,0
4.833,3.026,0
4.834,2.11,0
4.835,2.843,0
4.836,6.688,0
4.837,7.237,0
4.838,2.843,0
4.839,1.195,0
4.84,1.561,0
4.841,2.843,0
4.842,3.209,0
4.843,0.645,0
4.844,0.279,0
4.845,3.209,0
4.846,-1.369,0
4.847,8.885,0
4.848,25.365,0
4.849,36.351,0
4.85,42.393,0
4.851,40.562,0
4.852,15.66,0
4.853,-9.242,0
4.854,-31.764,0
4.855,-40.553,0
4.856,-43.117,0
4.857,-35.976,0
4.858,-33.779,0
4.859,-27.736,0
4.86,-22.243,0
4.861,-17.299,0
4.862,-12.905,0
4.863,-8.876,0
4.864,-5.397,0
4.865,-2.101,0
4.866,-1.186,0
4.867,-0.27,0
4.868,3.758,0
4.869,5.955,0
4.87,9.251,0
4.871,7.42,0
4.872,11.265,0
4.873,11.632,0
4.874,11.998,0
4.875,9.984,0
4.876,5.772,0
4.877,5.223,0
4.878,2.843,0
4.879,7.054,0
4.88,4.307,0
4.881,4.674,0
4.882,3.392,0
4.883,6.138,0
4.884,11.815,0
4.885,24.266,0
4.886,18.773,0
4.887,0.462,0
4.888,-1.918,0
4.889,-8.51,0
4.89,-10.524,0
4.891,-5.031,0
4.892,-9.975,0
4.893,-8.51,0
4.894,-7.228,0
4.895,-6.13,0
4.896,-3.383,0
4.897,-2.284,0
4.898,-5.214,0
4.899,8.702,0
4.9,38.914,0
4.901,51.732,0
4.902,47.886,0
4.903,8.519,0
4.904,-28.102,0
4.905,-32.863,0
4.906,-28.652,0
4.907,-32.497,0
4.908,-29.018,0
4.909,-25.905,0
4.91,-22.975,0
4.911,-15.102,0
4.912,-12.721,0
4.913,-10.524,0
4.914,-8.51,0
4.915,-3.017,0
4.916,1.927,0
4.917,0.462,0
4.918,4.49,0
4.919,3.392,0
4.92,2.293,0
4.921,1.378,0
4.922,5.955,0
4.923,6.688,0
4.924,11.998,0
4.925,8.702,0
4.926,8.153,0
4.927,5.406,0
4.928,8.702,0
4.929,8.336,0
4.93,9.434,0
4.931,4.49,0
4.932,3.941,0
4.933,4.49,0
4.934,0.645,0
4.935,3.941,0
4.936,1.744,0
4.937,4.49,0
4.938,4.857,0
4.939,0.828,0
4.94,-1.552,0
4.941,0.645,0
4.942,5.223,0
4.943,2.11,0
4.944,0.462,0
4.945,-0.82,0
4.946,-0.453,0
4.947,2.476,0
4.948,-0.27,0
4.949,5.406,0
4.95,17.857,0
4.951,41.661,0
4.952,38.548,0
4.953,53.38,0
4.954,29.21,0
4.955,-6.496,0
4.956,-30.3,0
4.957,-43.117,0
4.958,-46.962,0
4.959,-36.342,0
4.96,-33.229,0
4.961,-30.3,0
4.962,-22.426,0
4.963,-15.285,0
4.964,-13.088,0
4.965,-7.045,0
4.966,-5.214,0
4.967,-3.566,0
4.968,0.828,0
4.969,-0.453,0
4.97,5.589,0
4.971,6.688,0
4.972,5.772,0
4.973,8.519,0
4.974,7.786,0
4.975,9.984,0
4.976,9.434,0
4.977,8.885,0
4.978,5.04,0
4.979,2.659,0
4.98,2.293,0
4.981,5.04,0
4.982,3.941,0
4.983,5.772,0
4.984,3.026,0
4.985,4.124,0
4.986,0.828,0
4.987,4.674,0
4.988,4.307,0
4.989,4.674,0
4.99,3.575,0
4.991,3.941,0
4.992,5.772,0
4.993,2.476,0
4.994,2.11,0
4.995,1.744,0
4.996,2.843,0
4.997,2.476,0
4.998,-0.453,0
4.999,2.293,0
5,7.969,0
5.001,20.421,0
5.002,47.886,0
5.003,51.732,0
5.004,19.505,0
5.005,-19.496,0
5.006,-24.623,0
5.007,-29.384,0
5.008,-33.595,0
5.009,-29.75,0
5.01,-26.271,0
5.011,-23.158,0
5.012,-20.229,0
5.013,-17.665,0
5.014,-10.524,0
5.015,-3.932,0
5.016,-1.918,0
5.017,-7.411,0
5.018,-2.468,0
5.019,1.927,0
5.02,5.955,0
5.021,9.434,0
5.022,8.336,0
5.023,9.251,0
5.024,8.336,0
5.025,5.955,0
5.026,5.223,0
5.027,5.772,0
5.028,7.603,0
5.029,1.378,0
5.03,2.11,0
5.031,5.955,0
5.032,7.786,0
5.033,3.392,0
5.034,-0.453,0
5.035,1.927,0
5.036,-0.27,0
5.037,0.096,0
5.038,2.659,0
5.039,0.828,0
5.04,2.293,0
5.041,2.476,0
5.042,4.857,0
5.043,2.843,0
5.044,1.561,0
5.045,0.828,0
5.046,0.279,0
5.047,0.828,0
5.048,-1.369,0
5.049,-0.453,0
5.05,-3.566,0
5.051,2.659,0
5.052,16.575,0
5.053,46.788,0
5.054,50.999,0
5.055,54.844,0
5.056,15.477,0
5.057,-21.144,0
5.058,-35.427,0
5.059,-39.638,0
5.06,-43.483,0
5.061,-32.863,0
5.062,-29.75,0
5.063,-32.68,0
5.064,-24.806,0
5.065,-22.426,0
5.066,-15.834,0
5.067,-9.792,0
5.068,-4.299,0
5.069,-5.947,0
5.07,1.561,0
5.071,5.589,0
5.072,6.688,0
5.073,7.786,0
5.074,4.857,0
5.075,7.603,0
5.076,8.336,0
5.077,3.026,0
5.078,9.251,0
5.079,6.871,0
5.08,4.674,0
5.081,7.969,0
5.082,7.42,0
5.083,5.772,0
5.084,7.054,0
5.085,1.927,0
5.086,3.758,0
5.087,4.307,0
5.088,2.659,0
5.089,1.378,0
5.09,-1.735,0
5.091,-2.101,0
5.092,3.575,0
5.093,7.603,0
5.094,5.406,0
5.095,4.857,0
5.096,4.307,0
5.097,4.857,0
5.098,-0.636,0
5.099,0.096,0
5.1,-1.186,0
5.101,-3.017,0
5.102,6.505,0
5.103,27.012,0
5.104,47.703,0
5.105,55.577,0
5.106,53.197,0
5.107,20.054,0
5.108,-22.975,0
5.109,-40.187,0
5.11,-45.314,0
5.111,-40.553,0
5.112,-27.736,0
5.113,-31.581,0
5.114,-28.102,0
5.115,-18.581,0
5.116,-21.51,0
5.117,-13.637,0
5.118,-11.257,0
5.119,-4.665,0
5.12,-2.651,0
5.121,2.843,0
5.122,1.195,0
5.123,2.659,0
5.124,1.378,0
5.125,9.801,0
5.126,8.702,0
5.127,9.617,0
5.128,8.702,0
5.129,4.674,0
5.13,16.209,0
5.131,34.52,0
5.132,17.674,0
5.133,2.293,0
5.134,-3.749,0
5.135,-5.58,0
5.136,-7.228,0
5.137,-5.763,0
5.138,-1.735,0
5.139,-2.834,0
5.14,-1.735,0
5.141,-2.651,0
5.142,-1.735,0
5.143,-4.115,0
5.144,-1.918,0
5.145,-0.087,0
5.146,0.462,0
5.147,3.209,0
5.148,1.927,0
5.149,-0.27,0
5.15,-0.636,0
5.151,0.279,0
5.152,2.843,0
5.153,8.336,0
5.154,19.871,0
5.155,44.774,0
5.156,62.535,0
5.157,33.238,0
5.158,-10.158,0
5.159,-27.37,0
5.16,-32.497,0
5.161,-27.736,0
5.162,-31.948,0
5.163,-28.102,0
5.164,-24.623,0
5.165,-15.102,0
5.166,-12.172,0
5.167,-9.609,0
5.168,-7.228,0
5.169,-5.031,0
5.17,-3.017,0
5.171,2.476,0
5.172,4.124,0
5.173,5.589,0
5.174,4.307,0
5.175,5.406,0
5.176,4.307,0
5.177,7.237,0
5.178,4.49,0
5.179,3.758,0
5.18,4.49,0
5.181,3.941,0
5.182,5.772,0
5.183,0.645,0
5.184,1.195,0
5.185,3.026,0
5.186,9.251,0
5.187,6.871,0
5.188,6.138,0
5.189,6.688,0
5.19,3.575,0
5.191,1.927,0
5.192,3.209,0
5.193,1.011,0
5.194,2.11,0
5.195,1.744,0
5.196,4.307,0
5.197,-0.27,0
5.198,-2.101,0
5.199,-0.27,0
5.2,-3.017,0
5.201,-3.383,0
5.202,-0.453,0
5.203,-0.087,0
5.204,6.138,0
5.205,20.054,0
5.206,50.267,0
5.207,54.478,0
5.208,27.012,0
5.209,-12.355,0
5.21,-27.919,0
5.211,-32.68,0
5.212,-36.891,0
5.213,-33.046,0
5.214,-29.567,0
5.215,-20.046,0
5.216,-22.975,0
5.217,-15.102,0
5.218,-7.961,0
5.219,-5.763,0
5.22,0.279,0
5.221,-1.552,0
5.222,0.096,0
5.223,1.561,0
5.224,2.843,0
5.225,3.941,0
5.226,7.237,0
5.227,6.322,0
5.228,-0.087,0
5.229,0.645,0
5.23,2.843,0
5.231,2.293,0
5.232,5.406,0
5.233,2.659,0
5.234,3.026,0
5.235,3.392,0
5.236,0.645,0
5.237,1.744,0
5.238,6.505,0
5.239,7.054,0
5.24,8.702,0
5.241,5.406,0
5.242,2.293,0
5.243,3.392,0
5.244,6.871,0
5.245,3.758,0
5.246,8.336,0
5.247,2.659,0
5.248,3.392,0
5.249,3.941,0
5.25,2.11,0
5.251,2.659,0
5.252,-1.918,0
5.253,-0.453,0
5.254,-1.003,0
5.255,7.42,0
5.256,20.97,0
5.257,41.112,0
5.258,38.548,0
5.259,36.168,0
5.26,29.576,0
5.261,27.562,0
5.262,3.758,0
5.263,-31.948,0
5.264,-46.23,0
5.265,-50.441,0
5.266,-54.286,0
5.267,-43.666,0
5.268,-40.553,0
5.269,-31.764,0
5.27,-23.891,0
5.271,-16.75,0
5.272,-18.947,0
5.273,-12.905,0
5.274,-7.411,0
5.275,-5.763,0
5.276,-4.299,0
5.277,5.223,0
5.278,8.702,0
5.279,9.801,0
5.28,10.716,0
5.281,7.969,0
5.282,11.998,0
5.283,11.265,0
5.284,5.04,0
5.285,7.42,0
5.286,11.265,0
5.287,13.096,0
5.288,7.42,0
5.289,11.265,0
5.29,7.969,0
5.291,9.801,0
5.292,8.153,0
5.293,5.772,0
5.294,6.138,0
5.295,-0.087,0
5.296,4.49,0
5.297,5.223,0
5.298,3.026,0
5.299,-5.947,0
5.3,2.476,0
5.301,3.575,0
5.302,4.49,0
5.303,3.575,0
5.304,4.674,0
5.305,0.645,0
5.306,1.378,0
5.307,11.632,0
5.308,34.154,0
5.309,43.675,0
5.31,34.886,0
5.311,42.76,0
5.312,25.914,0
5.313,-7.228,0
5.314,-40.553,0
5.315,-53.371,0
5.316,-49.526,0
5.317,-46.047,0
5.318,-42.934,0
5.319,-34.145,0
5.32,-26.271,0
5.321,-19.13,0
5.322,-16.933,0
5.323,-10.89,0
5.324,-5.397,0
5.325,2.843,0
5.326,1.378,0
5.327,5.406,0
5.328,8.885,0
5.329,9.984,0
5.33,10.899,0
5.331,9.984,0
5.332,9.251,0
5.333,8.519,0
5.334,6.688,0
5.335,4.857,0
5.336,5.406,0
5.337,10.899,0
5.338,11.632,0
5.339,11.082,0
5.34,9.251,0
5.341,8.702,0
5.342,5.406,0
5.343,5.772,0
5.344,1.927,0
5.345,2.293,0
5.346,4.49,0
5.347,4.857,0
5.348,3.026,0
5.349,1.195,0
5.35,-0.27,0
5.351,-1.003,0
5.352,-1.186,0
5.353,0.279,0
5.354,3.575,0
5.355,1.744,0
5.356,2.11,0
5.357,8.336,0
5.358,22.252,0
5.359,44.407,0
5.36,59.239,0
5.361,29.759,0
5.362,-13.637,0
5.363,-30.849,0
5.364,-35.976,0
5.365,-40.737,0
5.366,-36.525,0
5.367,-32.68,0
5.368,-22.06,0
5.369,-18.947,0
5.37,-10.158,0
5.371,-2.284,0
5.372,-4.665,0
5.373,-2.468,0
5.374,-4.482,0
5.375,8.336,0
5.376,26.646,0
5.377,33.787,0
5.378,5.04,0
5.379,-6.679,0
5.38,-10.158,0
5.381,-13.271,0
5.382,-16.2,0
5.383,-8.327,0
5.384,-5.947,0
5.385,-3.749,0
5.386,-1.735,0
5.387,3.758,0
5.388,5.406,0
5.389,6.871,0
5.39,8.153,0
5.391,4.674,0
5.392,5.772,0
5.393,4.857,0
5.394,3.941,0
5.395,7.969,0
5.396,10.167,0
5.397,9.617,0
5.398,6.505,0
5.399,2.659,0
5.4,2.293,0
5.401,3.575,0
5.402,6.322,0
5.403,8.153,0
5.404,8.519,0
5.405,5.223,0
5.406,8.336,0
5.407,6.138,0
5.408,12.364,0
5.409,26.28,0
5.41,44.407,0
5.411,46.788,0
5.412,40.196,0
5.413,22.069,0
5.414,-14.369,0
5.415,-40.553,0
5.416,-45.314,0
5.417,-49.526,0
5.418,-45.68,0
5.419,-42.201,0
5.42,-32.68,0
5.421,-23.891,0
5.422,-21.327,0
5.423,-14.186,0
5.424,-11.989,0
5.425,-9.975,0
5.426,-4.482,0
5.427,0.462,0
5.428,-3.932,0
5.429,-2.651,0
5.43,-1.552,0
5.431,4.124,0
5.432,5.04,0
5.433,5.955,0
5.434,8.336,0
5.435,6.138,0
5.436,9.434,0
5.437,7.603,0
5.438,8.153,0
5.439,9.434,0
5.44,7.237,0
5.441,5.223,0
5.442,5.589,0
5.443,4.49,0
5.444,4.674,0
5.445,3.392,0
5.446,4.124,0
5.447,3.941,0
5.448,5.406,0
5.449,2.476,0
5.45,-0.27,0
5.451,-1.369,0
5.452,1.927,0
5.453,4.674,0
5.454,2.11,0
5.455,4.674,0
5.456,3.941,0
5.457,1.744,0
5.458,3.575,0
5.459,7.603,0
5.46,16.026,0
5.461,34.52,0
5.462,53.197,0
5.463,21.519,0
5.464,-17.482,0
5.465,-33.046,0
5.466,-37.807,0
5.467,-33.595,0
5.468,-29.75,0
5.469,-26.271,0
5.47,-23.158,0
5.471,-14.369,0
5.472,-16.933,0
5.473,-9.792,0
5.474,-11.989,0
5.475,-5.947,0
5.476,-0.453,0
5.477,-2.101,0
5.478,-0.636,0
5.479,3.392,0
5.48,2.293,0
5.481,3.392,0
5.482,2.476,0
5.483,1.561,0
5.484,3.941,0
5.485,0.096,0
5.486,3.392,0
5.487,6.505,0
5.488,10.35,0
5.489,11.632,0
5.49,13.829,0
5.491,18.406,0
5.492,16.575,0
5.493,21.702,0
5.494,27.928,0
5.495,28.66,0
5.496,30.858,0
5.497,34.154,0
5.498,29.759,0
5.499,24.632,0
5.5,17.125,0
5.501,18.04,0
5.502,15.294,0
5.503,12.913,0
5.504,7.603,0
5.505,-2.651,0
5.506,-16.2,0
5.507,-29.018,0
5.508,-35.61,0
5.509,-47.145,0
5.51,-36.708,0
5.511,-32.68,0
5.512,-14.186,0
5.513,15.294,0
5.514,3.575,0
5.515,-28.652,0
5.516,-32.863,0
5.517,-60.329,0
5.518,-113.98,0
5.519,-167.81,0
5.52,-188.69,0
5.521,-194.91,0
5.522,-212.12,0
5.523,-196.56,0
5.524,-182.28,0
5.525,-152.06,0
5.526,-132.47,0
5.527,-107.57,0
5.528,-58.864,0
5.529,4.307,0
5.53,97.508,0
5.531,159.76,0
5.532,170.93,0
5.533,160.68,0
5.534,132.66,0
5.535,141.09,0
5.536,133.4,0
5.537,126.44,0
5.538,132.66,0
5.539,149.88,0
5.54,165.44,0
5.541,198.76,0
5.542,211.58,0
5.543,207.74,0
5.544,197.12,0
5.545,174.59,0
5.546,153.91,0
5.547,135.23,0
5.548,103.55,0
5.549,81.944,0
5.55,54.478,0
5.551,36.717,0
5.552,27.196,0
5.553,24.266,0
5.554,16.392,0
5.555,-0.453,0
5.556,-2.651,0
5.557,-16.75,0
5.558,-25.905,0
5.559,-37.807,0
5.56,-39.455,0
5.561,-46.962,0
5.562,-31.948,0
5.563,-17.848,0
5.564,-5.031,0
5.565,-16.567,0
5.566,-39.089,0
5.567,-87.795,0
5.568,-108.67,0
5.569,-114.89,0
5.57,-109.22,0
5.571,-114.34,0
5.572,-109.58,0
5.573,-105.37,0
5.574,-101.53,0
5.575,-90.907,0
5.576,-87.795,0
5.577,-79.006,0
5.578,-65.639,0
5.579,-58.498,0
5.58,-47.511,0
5.581,-45.497,0
5.582,-40.004,0
5.583,-35.06,0
5.584,-30.666,0
5.585,-23.891,0
5.586,-22.792,0
5.587,-14.919,0
5.588,-11.989,0
5.589,-7.411,0
5.59,-5.031,0
5.591,-1.186,0
5.592,0.645,0
5.593,3.758,0
5.594,4.307,0
5.595,8.885,0
5.596,9.434,0
5.597,11.082,0
5.598,12.364,0
5.599,5.406,0
5.6,4.49,0
5.601,9.068,0
5.602,11.448,0
5.603,10.716,0
5.604,10.167,0
5.605,5.772,0
5.606,9.617,0
5.607,10.899,0
5.608,9.617,0
5.609,9.984,0
5.61,10.533,0
5.611,8.702,0
5.612,14.195,0
5.613,25.731,0
5.614,50.633,0
5.615,68.394,0
5.616,39.097,0
5.617,3.575,0
5.618,-20.229,0
5.619,-24.44,0
5.62,-20.595,0
5.621,-9.975,0
5.622,6.138,0
5.623,9.068,0
5.624,-9.609,0
5.625,-16.75,0
5.626,-14.552,0
5.627,-16.567,0
5.628,-11.073,0
5.629,-6.13,0
5.63,-4.665,0
5.631,-0.636,0
5.632,0.462,0
5.633,1.561,0
5.634,4.49,0
5.635,9.068,0
5.636,8.336,0
5.637,7.603,0
5.638,8.153,0
5.639,13.829,0
5.64,11.632,0
5.641,11.082,0
5.642,9.251,0
5.643,13.096,0
5.644,10.716,0
5.645,6.505,0
5.646,9.251,0
5.647,6.871,0
5.648,9.984,0
5.649,11.998,0
5.65,8.519,0
5.651,7.237,0
5.652,7.603,0
5.653,10.167,0
5.654,8.336,0
5.655,6.322,0
5.656,5.589,0
5.657,5.406,0
5.658,2.293,0
5.659,6.138,0
5.66,3.758,0
5.661,3.209,0
5.662,3.575,0
5.663,9.801,0
5.664,23.717,0
5.665,41.844,0
5.666,53.929,0
5.667,47.337,0
5.668,17.125,0
5.669,-21.877,0
5.67,-37.441,0
5.671,-42.201,0
5.672,-37.99,0
5.673,-34.145,0
5.674,-23.525,0
5.675,-20.412,0
5.676,-17.482,0
5.677,-14.919,0
5.678,-12.538,0
5.679,-5.947,0
5.68,-3.932,0
5.681,1.561,0
5.682,3.209,0
5.683,1.744,0
5.684,3.026,0
5.685,4.124,0
5.686,7.42,0
5.687,8.336,0
5.688,1.927,0
5.689,4.307,0
5.69,3.575,0
5.691,8.153,0
5.692,5.04,0
5.693,1.195,0
5.694,3.575,0
5.695,4.857,0
5.696,4.49,0
5.697,7.969,0
5.698,9.251,0
5.699,8.153,0
5.7,3.941,0
5.701,1.195,0
5.702,1.561,0
5.703,3.758,0
5.704,2.659,0
5.705,3.758,0
5.706,2.659,0
5.707,6.688,0
5.708,7.237,0
5.709,-0.27,0
5.71,0.828,0
5.711,-0.087,0
5.712,0.279,0
5.713,-0.636,0
5.714,-4.665,0
5.715,6.871,0
5.716,31.773,0
5.717,49.534,0
5.718,20.238,0
5.719,-15.285,0
5.72,-29.567,0
5.721,-33.779,0
5.722,-37.624,0
5.723,-34.145,0
5.724,-24.623,0
5.725,-21.694,0
5.726,-24.257,0
5.727,-17.116,0
5.728,-10.524,0
5.729,-12.538,0
5.73,-3.383,0
5.731,-1.735,0
5.732,-0.27,0
5.733,1.011,0
5.734,2.11,0
5.735,1.011,0
5.736,5.955,0
5.737,5.04,0
5.738,2.659,0
5.739,3.392,0
5.74,9.617,0
5.741,8.885,0
5.742,6.688,0
5.743,2.11,0
5.744,-1.003,0
5.745,5.223,0
5.746,4.49,0
5.747,3.758,0
5.748,-0.82,0
5.749,3.575,0
5.75,0.828,0
5.751,0.462,0
5.752,3.575,0
5.753,5.589,0
5.754,4.49,0
5.755,3.392,0
5.756,4.124,0
5.757,-0.087,0
5.758,0.462,0
5.759,2.11,0
5.76,2.476,0
5.761,2.11,0
5.762,1.011,0
5.763,-3.383,0
5.764,1.561,0
5.765,11.815,0
5.766,22.252,0
5.767,42.76,0
5.768,51.549,0
5.769,48.985,0
5.77,17.308,0
5.771,-21.694,0
5.772,-37.258,0
5.773,-32.497,0
5.774,-28.285,0
5.775,-32.131,0
5.776,-28.652,0
5.777,-25.539,0
5.778,-16.75,0
5.779,-8.876,0
5.78,-1.735,0
5.781,0.462,0
5.782,-1.552,0
5.783,-3.383,0
5.784,-5.031,0
5.785,-0.636,0
5.786,0.645,0
5.787,4.124,0
5.788,5.223,0
5.789,6.138,0
5.79,7.054,0
5.791,6.322,0
5.792,7.054,0
5.793,8.885,0
5.794,3.209,0
5.795,1.011,0
5.796,-0.82,0
5.797,3.575,0
5.798,5.223,0
5.799,6.505,0
5.8,2.293,0
5.801,7.42,0
5.802,4.124,0
5.803,3.575,0
5.804,1.927,0
5.805,4.307,0
5.806,3.941,0
5.807,8.519,0
5.808,6.688,0
5.809,1.561,0
5.81,2.11,0
5.811,1.561,0
5.812,-2.284,0
5.813,2.293,0
5.814,1.744,0
5.815,4.857,0
5.816,13.28,0
5.817,12.181,0
5.818,29.21,0
5.819,55.943,0
5.82,23.717,0
5.821,-15.285,0
5.822,-20.412,0
5.823,-25.173,0
5.824,-29.384,0
5.825,-33.229,0
5.826,-29.75,0
5.827,-32.863,0
5.828,-24.074,0
5.829,-21.51,0
5.83,-19.13,0
5.831,-8.144,0
5.832,-6.13,0
5.833,-4.299,0
5.834,-2.651,0
5.835,-1.186,0
5.836,5.589,0
5.837,6.688,0
5.838,9.984,0
5.839,14.927,0
5.84,10.35,0
5.841,11.082,0
5.842,10.35,0
5.843,8.519,0
5.844,10.35,0
5.845,10.899,0
5.846,5.406,0
5.847,3.209,0
5.848,2.659,0
5.849,2.11,0
5.85,0.462,0
5.851,3.758,0
5.852,-1.369,0
5.853,-4.665,0
5.854,-2.834,0
5.855,-0.087,0
5.856,0.279,0
5.857,3.392,0
5.858,4.49,0
5.859,3.392,0
5.86,5.955,0
5.861,5.223,0
5.862,1.011,0
5.863,1.561,0
5.864,-0.087,0
5.865,-1.186,0
5.866,-4.482,0
5.867,2.476,0
5.868,17.674,0
5.869,15.477,0
5.87,5.406,0
5.871,10.899,0
5.872,25.914,0
5.873,27.928,0
5.874,26.097,0
5.875,17.857,0
5.876,16.392,0
5.877,23.167,0
5.878,14.744,0
5.879,-2.284,0
5.88,-38.722,0
5.881,-64.906,0
5.882,-60.146,0
5.883,-55.934,0
5.884,-44.216,0
5.885,-33.595,0
5.886,-30.483,0
5.887,-21.694,0
5.888,-13.82,0
5.889,-11.44,0
5.89,-0.453,0
5.891,1.561,0
5.892,7.054,0
5.893,8.702,0
5.894,7.237,0
5.895,8.519,0
5.896,11.998,0
5.897,13.096,0
5.898,14.012,0
5.899,16.759,0
5.9,16.026,0
5.901,15.294,0
5.902,18.59,0
5.903,20.421,0
5.904,13.096,0
5.905,10.167,0
5.906,5.589,0
5.907,9.617,0
5.908,7.42,0
5.909,7.969,0
5.91,4.857,0
5.911,6.505,0
5.912,6.138,0
5.913,6.505,0
5.914,1.927,0
5.915,-1.186,0
5.916,5.406,0
5.917,-0.82,0
5.918,11.632,0
5.919,28.111,0
5.92,43.492,0
5.921,57.591,0
5.922,41.112,0
5.923,7.969,0
5.924,-15.834,0
5.925,-37.441,0
5.926,-41.286,0
5.927,-37.807,0
5.928,-28.285,0
5.929,-25.356,0
5.93,-22.792,0
5.931,-15.651,0
5.932,-13.454,0
5.933,-11.44,0
5.934,-2.284,0
5.935,-3.932,0
5.936,-5.397,0
5.937,-4.115,0
5.938,4.307,0
5.939,7.603,0
5.94,4.674,0
5.941,5.589,0
5.942,3.209,0
5.943,1.011,0
5.944,5.589,0
5.945,3.758,0
5.946,8.885,0
5.947,8.336,0
5.948,2.659,0
5.949,1.927,0
5.95,1.378,0
5.951,4.49,0
5.952,5.04,0
5.953,3.758,0
5.954,5.04,0
5.955,7.786,0
5.956,6.688,0
5.957,8.519,0
5.958,3.941,0
5.959,2.11,0
5.96,1.561,0
5.961,2.11,0
5.962,-1.186,0
5.963,-2.468,0
5.964,-3.566,0
5.965,-0.087,0
5.966,1.195,0
5.967,-1.186,0
5.968,-6.679,0
5.969,4.857,0
5.97,23.167,0
5.971,40.013,0
5.972,33.421,0
5.973,47.52,0
5.974,49.351,0
5.975,24.449,0
5.976,-22.06,0
5.977,-40.92,0
5.978,-46.596,0
5.979,-51.723,0
5.98,-37.441,0
5.981,-33.229,0
5.982,-29.384,0
5.983,-32.863,0
5.984,-16.75,0
5.985,-13.82,0
5.986,-11.257,0
5.987,-4.115,0
5.988,2.476,0
5.989,8.519,0
5.99,6.688,0
5.991,5.04,0
5.992,6.505,0
5.993,10.533,0
5.994,9.434,0
5.995,6.138,0
5.996,11.082,0
5.997,4.674,0
5.998,0.645,0
5.999,4.49,0
6,3.941,0
6.001,4.49,0
6.002,7.237,0
6.003,9.617,0
6.004,4.49,0
6.005,7.786,0
6.006,7.237,0
6.007,6.688,0
6.008,5.406,0
6.009,3.209,0
6.01,5.223,0
6.011,2.659,0
6.012,-0.636,0
6.013,-0.27,0
6.014,-2.834,0
6.015,-5.397,0
6.016,-0.82,0
6.017,3.758,0
6.018,5.406,0
6.019,3.575,0
6.02,11.998,0
6.021,30.491,0
6.022,59.971,0
6.023,56.126,0
6.024,52.647,0
6.025,10.35,0
6.026,-29.933,0
6.027,-35.06,0
6.028,-39.821,0
6.029,-44.032,0
6.03,-40.187,0
6.031,-36.708,0
6.032,-33.595,0
6.033,-24.806,0
6.034,-16.933,0
6.035,-14.552,0
6.036,-7.961,0
6.037,-1.918,0
6.038,3.575,0
6.039,5.223,0
6.04,6.688,0
6.041,-0.087,0
6.042,5.955,0
6.043,7.054,0
6.044,4.124,0
6.045,5.04,0
6.046,5.772,0
6.047,7.969,0
6.048,6.138,0
6.049,6.688,0
6.05,7.237,0
6.051,8.519,0
6.052,9.801,0
6.053,10.899,0
6.054,7.42,0
6.055,7.054,0
6.056,10.899,0
6.057,9.617,0
6.058,9.251,0
6.059,7.237,0
6.06,4.674,0
6.061,-0.82,0
6.062,-0.087,0
6.063,0.462,0
6.064,-0.087,0
6.065,1.561,0
6.066,-0.82,0
6.067,1.378,0
6.068,-3.2,0
6.069,-1.186,0
6.07,-1.735,0
6.071,6.688,0
6.072,25.181,0
6.073,43.858,0
6.074,60.704,0
6.075,31.956,0
6.076,-3.566,0
6.077,-27.37,0
6.078,-40.187,0
6.079,-44.032,0
6.08,-40.553,0
6.081,-37.441,0
6.082,-28.652,0
6.083,-20.778,0
6.084,-23.158,0
6.085,-16.567,0
6.086,-10.524,0
6.087,-5.031,0
6.088,-3.383,0
6.089,-1.918,0
6.09,2.11,0
6.091,8.153,0
6.092,4.857,0
6.093,1.927,0
6.094,4.674,0
6.095,5.406,0
6.096,6.138,0
6.097,5.589,0
6.098,5.04,0
6.099,4.49,0
6.1,4.857,0
6.101,3.575,0
6.102,6.322,0
6.103,8.153,0
6.104,9.251,0
6.105,5.223,0
6.106,4.674,0
6.107,3.392,0
6.108,8.519,0
6.109,5.223,0
6.11,7.054,0
6.111,4.307,0
6.112,3.941,0
6.113,10.899,0
6.114,26.097,0
6.115,15.111,0
6.116,-3.017,0
6.117,-10.158,0
6.118,-12.355,0
6.119,-14.369,0
6.12,-9.975,0
6.121,-8.144,0
6.122,0.096,0
6.123,22.618,0
6.124,51.915,0
6.125,48.07,0
6.126,15.843,0
6.127,-14.369,0
6.128,-26.088,0
6.129,-29.567,0
6.13,-32.68,0
6.131,-29.75,0
6.132,-27.187,0
6.133,-15.102,0
6.134,-12.905,0
6.135,-10.89,0
6.136,-5.397,0
6.137,-0.453,0
6.138,1.011,0
6.139,-3.017,0
6.14,0.462,0
6.141,1.561,0
6.142,4.49,0
6.143,3.575,0
6.144,2.843,0
6.145,5.04,0
6.146,6.871,0
6.147,2.476,0
6.148,10.899,0
6.149,7.42,0
6.15,6.322,0
6.151,7.237,0
6.152,9.984,0
6.153,4.307,0
6.154,8.153,0
6.155,9.984,0
6.156,9.434,0
6.157,5.589,0
6.158,7.969,0
6.159,2.843,0
6.16,1.011,0
6.161,1.561,0
6.162,-0.087,0
6.163,-1.369,0
6.164,-0.087,0
6.165,-2.101,0
6.166,-2.468,0
6.167,-2.101,0
6.168,1.195,0
6.169,-0.087,0
6.17,-2.834,0
6.171,6.138,0
6.172,6.505,0
6.173,11.998,0
6.174,23.533,0
6.175,45.14,0
6.176,59.971,0
6.177,41.295,0
6.178,4.857,0
6.179,-21.327,0
6.18,-35.61,0
6.181,-39.821,0
6.182,-35.976,0
6.183,-32.497,0
6.184,-29.384,0
6.185,-26.454,0
6.186,-18.581,0
6.187,-16.2,0
6.188,-14.003,0
6.189,-7.961,0
6.19,-2.468,0
6.191,2.476,0
6.192,3.941,0
6.193,-0.087,0
6.194,5.955,0
6.195,4.857,0
6.196,9.801,0
6.197,7.054,0
6.198,6.322,0
6.199,7.054,0
6.2,2.476,0
6.201,3.026,0
6.202,3.575,0
6.203,4.857,0
6.204,6.138,0
6.205,11.632,0
6.206,6.322,0
6.207,5.772,0
6.208,6.322,0
6.209,4.674,0
6.21,5.04,0
6.211,4.674,0
6.212,1.927,0
6.213,-1.552,0
6.214,0.645,0
6.215,1.011,0
6.216,2.843,0
6.217,3.209,0
6.218,1.744,0
6.219,2.476,0
6.22,-0.453,0
6.221,2.11,0
6.222,1.011,0
6.223,-1.552,0
6.224,3.026,0
6.225,13.28,0
6.226,35.802,0
6.227,58.323,0
6.228,31.59,0
6.229,-7.778,0
6.23,-23.342,0
6.231,-37.624,0
6.232,-41.835,0
6.233,-30.116,0
6.234,-26.637,0
6.235,-29.75,0
6.236,-20.961,0
6.237,-13.088,0
6.238,-10.707,0
6.239,-8.51,0
6.24,-2.468,0
6.241,3.026,0
6.242,4.674,0
6.243,3.209,0
6.244,7.237,0
6.245,8.336,0
6.246,9.434,0
6.247,8.519,0
6.248,5.772,0
6.249,6.505,0
6.25,10.35,0
6.251,8.519,0
6.252,4.124,0
6.253,1.378,0
6.254,7.969,0
6.255,7.054,0
6.256,12.73,0
6.257,8.885,0
6.258,7.054,0
6.259,6.505,0
6.26,8.153,0
6.261,5.772,0
6.262,2.659,0
6.263,0.645,0
6.264,0.279,0
6.265,-0.82,0
6.266,-4.115,0
6.267,-8.327,0
6.268,-3.2,0
6.269,-1.369,0
6.27,-1.918,0
6.271,-4.665,0
6.272,-5.031,0
6.273,-0.453,0
6.274,-0.087,0
6.275,-3.932,0
6.276,3.575,0
6.277,20.604,0
6.278,52.281,0
6.279,48.07,0
6.28,44.224,0
6.281,4.857,0
6.282,-31.764,0
6.283,-46.047,0
6.284,-50.258,0
6.285,-46.413,0
6.286,-35.793,0
6.287,-32.68,0
6.288,-29.75,0
6.289,-16.384,0
6.29,-14.003,0
6.291,-7.411,0
6.292,-5.397,0
6.293,-3.566,0
6.294,1.378,0
6.295,2.843,0
6.296,4.124,0
6.297,3.026,0
6.298,6.322,0
6.299,7.237,0
6.3,8.153,0
6.301,7.42,0
6.302,8.153,0
6.303,8.702,0
6.304,8.153,0
6.305,10.899,0
6.306,8.519,0
6.307,8.885,0
6.308,6.871,0
6.309,7.969,0
6.31,9.068,0
6.311,7.603,0
6.312,4.49,0
6.313,4.857,0
6.314,2.293,0
6.315,1.195,0
6.316,1.011,0
6.317,-2.101,0
6.318,0.645,0
6.319,0.279,0
6.32,-0.82,0
6.321,-0.087,0
6.322,-0.27,0
6.323,1.011,0
6.324,3.941,0
6.325,6.138,0
6.326,10.35,0
6.327,19.871,0
6.328,40.379,0
6.329,55.211,0
6.33,57.774,0
6.331,26.097,0
6.332,-12.905,0
6.333,-28.469,0
6.334,-33.229,0
6.335,-29.018,0
6.336,-17.299,0
6.337,-13.82,0
6.338,2.293,0
6.339,11.082,0
6.34,13.646,0
6.341,16.026,0
6.342,9.434,0
6.343,11.448,0
6.344,13.28,0
6.345,11.632,0
6.346,7.237,0
6.347,-7.778,0
6.348,-21.877,0
6.349,-31.032,0
6.35,-35.976,0
6.351,-46.413,0
6.352,-42.385,0
6.353,-33.962,0
6.354,-23.708,0
6.355,-16.933,0
6.356,-25.356,0
6.357,-37.807,0
6.358,-49.343,0
6.359,-53.737,0
6.36,-71.498,0
6.361,-107.94,0
6.362,-123.5,0
6.363,-147.3,0
6.364,-168.91,0
6.365,-165.06,0
6.366,-154.44,0
6.367,-138.33,0
6.368,-123.5,0
6.369,-99.33,0
6.37,-50.624,0
6.371,26.463,0
6.372,118.93,0
6.373,156.28,0
6.374,167.45,0
6.375,157.75,0
6.376,126.99,0
6.377,136.33,0
6.378,144.75,0
6.379,152.44,0
6.38,173.31,0
6.381,179.54,0
6.382,162.33,0
6.383,157.2,0
6.384,161.96,0
6.385,157.75,0
6.386,146.03,0
6.387,128.27,0
6.388,118.75,0
6.389,109.96,0
6.39,80.479,0
6.391,60.887,0
6.392,35.985,0
6.393,32.872,0
6.394,24.083,0
6.395,26.646,0
6.396,19.505,0
6.397,8.519,0
6.398,2.476,0
6.399,-10.341,0
6.4,-25.356,0
6.401,-27.37,0
6.402,-25.539,0
6.403,-37.074,0
6.404,-44.582,0
6.405,-54.103,0
6.406,-53.005,0
6.407,-56.301,0
6.408,-53.371,0
6.409,-63.625,0
6.41,-62.343,0
6.411,-65.822,0
6.412,-71.498,0
6.413,-74.428,0
6.414,-77.175,0
6.415,-76.442,0
6.416,-75.71,0
6.417,-69.484,0
6.418,-63.808,0
6.419,-63.075,0
6.42,-58.498,0
6.421,-59.047,0
6.422,-53.92,0
6.423,-44.948,0
6.424,-38.906,0
6.425,-33.229,0
6.426,-31.215,0
6.427,-22.06,0
6.428,-8.51,0
6.429,7.969,0
6.43,18.956,0
6.431,24.998,0
6.432,45.14,0
6.433,31.773,0
6.434,-4.665,0
6.435,-41.286,0
6.436,-46.047,0
6.437,-50.258,0
6.438,-38.539,0
6.439,-35.06,0
6.44,-31.948,0
6.441,-23.158,0
6.442,-15.285,0
6.443,-8.144,0
6.444,-1.552,0
6.445,0.462,0
6.446,2.293,0
6.447,3.941,0
6.448,8.336,0
6.449,12.364,0
6.45,13.463,0
6.451,14.561,0
6.452,15.477,0
6.453,16.392,0
6.454,17.125,0
6.455,17.857,0
6.456,14.561,0
6.457,18.956,0
6.458,20.604,0
6.459,18.223,0
6.46,17.857,0
6.461,15.843,0
6.462,18.406,0
6.463,15.111,0
6.464,16.209,0
6.465,11.998,0
6.466,12.547,0
6.467,9.251,0
6.468,10.533,0
6.469,11.632,0
6.47,11.998,0
6.471,9.434,0
6.472,10.167,0
6.473,10.35,0
6.474,10.533,0
6.475,7.054,0
6.476,6.688,0
6.477,4.674,0
6.478,5.04,0
6.479,11.265,0
6.48,17.674,0
6.481,30.125,0
6.482,42.943,0
6.483,34.703,0
6.484,30.308,0
6.485,23.533,0
6.486,15.111,0
6.487,9.434,0
6.488,4.49,0
6.489,7.237,0
6.49,9.617,0
6.491,2.659,0
6.492,-11.257,0
6.493,-41.469,0
6.494,-63.075,0
6.495,-59.23,0
6.496,-55.751,0
6.497,-39.638,0
6.498,-30.849,0
6.499,-22.975,0
6.5,-15.834,0
6.501,-9.242,0
6.502,-3.2,0
6.503,2.293,0
6.504,7.237,0
6.505,8.702,0
6.506,12.73,0
6.507,11.632,0
6.508,14.927,0
6.509,15.843,0
6.51,14.927,0
6.511,15.66,0
6.512,16.392,0
6.513,16.942,0
6.514,17.491,0
6.515,13.646,0
6.516,12.364,0
6.517,10.167,0
6.518,14.012,0
6.519,15.294,0
6.52,18.406,0
6.521,13.829,0
6.522,11.998,0
6.523,9.251,0
6.524,11.632,0
6.525,6.505,0
6.526,5.955,0
6.527,6.505,0
6.528,4.674,0
6.529,0.828,0
6.53,-1.552,0
6.531,5.406,0
6.532,20.604,0
6.533,53.746,0
6.534,29.942,0
6.535,-9.059,0
6.536,-24.623,0
6.537,-29.384,0
6.538,-33.595,0
6.539,-29.75,0
6.54,-26.271,0
6.541,-23.158,0
6.542,-20.229,0
6.543,-17.665,0
6.544,-10.524,0
6.545,-12.721,0
6.546,-6.679,0
6.547,-4.848,0
6.548,-3.2,0
6.549,-1.735,0
6.55,-0.453,0
6.551,0.645,0
6.552,3.941,0
6.553,3.026,0
6.554,5.772,0
6.555,9.801,0
6.556,10.533,0
6.557,9.984,0
6.558,8.153,0
6.559,4.307,0
6.56,3.026,0
6.561,4.307,0
6.562,-0.27,0
6.563,-0.82,0
6.564,4.307,0
6.565,-1.918,0
6.566,-1.186,0
6.567,1.011,0
6.568,2.843,0
6.569,-0.27,0
6.57,-0.82,0
6.571,-4.115,0
6.572,-1.918,0
6.573,3.575,0
6.574,2.843,0
6.575,1.011,0
6.576,0.462,0
6.577,-0.087,0
6.578,-3.383,0
6.579,-3.383,0
6.58,-6.496,0
6.581,-0.27,0
6.582,13.646,0
6.583,43.858,0
6.584,48.07,0
6.585,12.547,0
6.586,-20.778,0
6.587,-24.99,0
6.588,-28.835,0
6.589,-32.314,0
6.59,-22.792,0
6.591,-19.863,0
6.592,-17.299,0
6.593,-10.158,0
6.594,-12.355,0
6.595,-6.313,0
6.596,-4.482,0
6.597,-6.13,0
6.598,-1.735,0
6.599,2.293,0
6.6,1.195,0
6.601,-2.101,0
6.602,-1.186,0
6.603,1.561,0
6.604,14.012,0
6.605,34.154,0
6.606,31.59,0
6.607,9.617,0
6.608,-5.214,0
6.609,-7.778,0
6.61,-10.158,0
6.611,-3.566,0
6.612,-5.58,0
6.613,-3.749,0
6.614,-5.397,0
6.615,-3.932,0
6.616,0.096,0
6.617,1.195,0
6.618,4.49,0
6.619,3.575,0
6.62,2.659,0
6.621,3.392,0
6.622,2.659,0
6.623,4.49,0
6.624,3.941,0
6.625,3.392,0
6.626,6.688,0
6.627,6.322,0
6.628,5.955,0
6.629,5.589,0
6.63,4.674,0
6.631,5.772,0
6.632,10.35,0
6.633,17.857,0
6.634,33.055,0
6.635,39.647,0
6.636,37.633,0
6.637,35.802,0
6.638,30.858,0
6.639,8.336,0
6.64,-27.37,0
6.641,-41.652,0
6.642,-54.469,0
6.643,-50.624,0
6.644,-47.145,0
6.645,-37.624,0
6.646,-28.835,0
6.647,-20.961,0
6.648,-18.581,0
6.649,-16.384,0
6.65,-6.313,0
6.651,-4.482,0
6.652,0.462,0
6.653,7.969,0
6.654,6.688,0
6.655,10.167,0
6.656,11.265,0
6.657,14.195,0
6.658,9.617,0
6.659,10.35,0
6.66,14.195,0
6.661,10.899,0
6.662,9.068,0
6.663,6.322,0
6.664,6.688,0
6.665,7.969,0
6.666,5.955,0
6.667,4.857,0
6.668,3.758,0
6.669,1.744,0
6.67,4.857,0
6.671,7.603,0
6.672,6.505,0
6.673,3.941,0
6.674,4.124,0
6.675,1.011,0
6.676,-0.087,0
6.677,4.124,0
6.678,0.279,0
6.679,-0.087,0
6.68,1.195,0
6.681,1.011,0
6.682,2.11,0
6.683,6.322,0
6.684,14.744,0
6.685,33.238,0
6.686,51.915,0
6.687,15.477,0
6.688,-10.707,0
6.689,-24.99,0
6.69,-29.201,0
6.691,-25.356,0
6.692,-28.835,0
6.693,-25.722,0
6.694,-22.792,0
6.695,-20.229,0
6.696,-17.848,0
6.697,-11.257,0
6.698,-9.242,0
6.699,-3.749,0
6.7,-2.101,0
6.701,2.293,0
6.702,1.011,0
6.703,7.054,0
6.704,1.378,0
6.705,4.307,0
6.706,7.054,0
6.707,6.322,0
6.708,7.054,0
6.709,6.505,0
6.71,3.392,0
6.711,6.138,0
6.712,6.505,0
6.713,3.392,0
6.714,3.026,0
6.715,-1.186,0
6.716,1.561,0
6.717,-0.82,0
6.718,-0.453,0
6.719,3.392,0
6.72,4.674,0
6.721,3.392,0
6.722,3.026,0
6.723,3.392,0
6.724,1.561,0
6.725,-1.735,0
6.726,-2.101,0
6.727,-0.087,0
6.728,-2.651,0
6.729,-5.214,0
6.73,-3.2,0
6.731,-3.932,0
6.732,0.279,0
6.733,0.462,0
6.734,3.941,0
6.735,11.448,0
6.736,28.477,0
6.737,60.155,0
6.738,38.548,0
6.739,3.026,0
6.74,-20.778,0
6.741,-33.595,0
6.742,-37.441,0
6.743,-33.962,0
6.744,-30.849,0
6.745,-27.919,0
6.746,-25.356,0
6.747,-18.215,0
6.748,-16.017,0
6.749,-14.003,0
6.75,-8.51,0
6.751,-3.566,0
6.752,0.828,0
6.753,4.857,0
6.754,5.955,0
6.755,4.857,0
6.756,5.772,0
6.757,6.688,0
6.758,9.068,0
6.759,5.223,0
6.76,5.772,0
6.761,5.223,0
6.762,3.575,0
6.763,3.209,0
6.764,1.927,0
6.765,2.293,0
6.766,1.927,0
6.767,5.223,0
6.768,6.322,0
6.769,5.955,0
6.77,6.322,0
6.771,2.293,0
6.772,0.645,0
6.773,1.011,0
6.774,1.378,0
6.775,2.476,0
6.776,7.42,0
6.777,2.843,0
6.778,5.955,0
6.779,-0.27,0
6.78,-1.003,0
6.781,-0.27,0
6.782,-0.82,0
6.783,-0.453,0
6.784,1.378,0
6.785,9.801,0
6.786,25.914,0
6.787,41.295,0
6.788,39.281,0
6.789,33.787,0
6.79,12.181,0
6.791,-14.552,0
6.792,-32.314,0
6.793,-41.835,0
6.794,-38.906,0
6.795,-36.342,0
6.796,-33.962,0
6.797,-27.37,0
6.798,-25.356,0
6.799,-19.863,0
6.8,-14.919,0
6.801,-10.524,0
6.802,-3.749,0
6.803,2.293,0
6.804,3.392,0
6.805,2.476,0
6.806,5.223,0
6.807,4.49,0
6.808,2.293,0
6.809,4.124,0
6.81,5.955,0
6.811,4.307,0
6.812,7.603,0
6.813,6.322,0
6.814,6.688,0
6.815,9.251,0
6.816,8.153,0
6.817,6.688,0
6.818,8.519,0
6.819,9.251,0
6.82,6.688,0
6.821,8.519,0
6.822,8.336,0
6.823,10.167,0
6.824,10.35,0
6.825,6.871,0
6.826,2.293,0
6.827,2.843,0
6.828,-2.284,0
6.829,-4.115,0
6.83,-1.003,0
6.831,-1.552,0
6.832,-1.186,0
6.833,-1.552,0
6.834,-4.848,0
6.835,-2.101,0
6.836,3.575,0
6.837,16.026,0
6.838,43.492,0
6.839,47.337,0
6.84,15.111,0
6.841,-15.102,0
6.842,-26.821,0
6.843,-37.441,0
6.844,-34.328,0
6.845,-25.539,0
6.846,-22.975,0
6.847,-20.595,0
6.848,-18.398,0
6.849,-16.384,0
6.85,-7.228,0
6.851,17.674,0
6.852,14.195,0
6.853,-1.918,0
6.854,-4.848,0
6.855,-7.411,0
6.856,-9.792,0
6.857,-7.594,0
6.858,-5.58,0
6.859,-0.087,0
6.86,1.561,0
6.861,-2.834,0
6.862,1.195,0
6.863,0.096,0
6.864,5.772,0
6.865,0.828,0
6.866,1.744,0
6.867,4.124,0
6.868,4.857,0
6.869,4.307,0
6.87,3.758,0
6.871,6.505,0
6.872,5.223,0
6.873,9.434,0
6.874,2.11,0
6.875,7.054,0
6.876,6.138,0
6.877,5.406,0
6.878,6.138,0
6.879,-0.087,0
6.88,-0.82,0
6.881,-3.017,0
6.882,4.49,0
6.883,1.561,0
6.884,6.138,0
6.885,9.068,0
6.886,9.801,0
6.887,13.646,0
6.888,23.9,0
6.889,31.407,0
6.89,51.915,0
6.891,54.844,0
6.892,25.365,0
6.893,-10.158,0
6.894,-33.962,0
6.895,-46.779,0
6.896,-42.934,0
6.897,-39.455,0
6.898,-36.342,0
6.899,-27.553,0
6.9,-24.99,0
6.901,-22.609,0
6.902,-16.017,0
6.903,-5.947,0
6.904,-7.778,0
6.905,-2.834,0
6.906,-1.369,0
6.907,2.659,0
6.908,-0.82,0
6.909,0.279,0
6.91,1.195,0
6.911,3.941,0
6.912,4.674,0
6.913,8.519,0
6.914,7.969,0
6.915,9.801,0
6.916,9.251,0
6.917,7.969,0
6.918,6.688,0
6.919,6.322,0
6.92,9.801,0
6.921,5.589,0
6.922,5.04,0
6.923,5.406,0
6.924,6.688,0
6.925,3.941,0
6.926,1.378,0
6.927,2.476,0
6.928,-0.27,0
6.929,2.293,0
6.93,0.462,0
6.931,0.279,0
6.932,0.462,0
6.933,-0.27,0
6.934,-1.735,0
6.935,-0.27,0
6.936,3.209,0
6.937,1.927,0
6.938,-0.82,0
6.939,4.857,0
6.94,17.308,0
6.941,44.774,0
6.942,25.181,0
6.943,-7.045,0
6.944,-19.863,0
6.945,-23.708,0
6.946,-34.328,0
6.947,-31.215,0
6.948,-22.426,0
6.949,-24.99,0
6.95,-22.609,0
6.951,-16.017,0
6.952,-9.975,0
6.953,-8.144,0
6.954,-9.792,0
6.955,-5.397,0
6.956,-1.369,0
6.957,2.11,0
6.958,1.011,0
6.959,3.941,0
6.96,4.857,0
6.961,5.589,0
6.962,1.744,0
6.963,3.575,0
6.964,3.026,0
6.965,3.575,0
6.966,6.871,0
6.967,6.505,0
6.968,6.871,0
6.969,11.082,0
6.97,12.73,0
6.971,7.237,0
6.972,6.505,0
6.973,7.054,0
6.974,7.603,0
6.975,2.476,0
6.976,-2.101,0
6.977,-1.552,0
6.978,0.096,0
6.979,-2.284,0
6.98,-2.651,0
6.981,-2.284,0
6.982,0.279,0
6.983,-0.82,0
6.984,-1.003,0
6.985,-0.27,0
6.986,3.209,0
6.987,0.279,0
6.988,0.645,0
6.989,6.871,0
6.99,20.787,0
6.991,50.999,0
6.992,46.788,0
6.993,11.265,0
6.994,-12.538,0
6.995,-25.356,0
6.996,-29.201,0
6.997,-25.722,0
6.998,-22.609,0
6.999,-19.679,0
7,-22.243,0
7.001,-19.863,0
7.002,-17.665,0
7.003,-11.623,0
7.004,-9.792,0
7.005,-8.144,0
7.006,-0.636,0
7.007,-4.665,0
7.008,-1.186,0
7.009,-0.087,0
7.01,0.828,0
7.011,3.575,0
7.012,-0.453,0
7.013,6.505,0
7.014,1.927,0
7.015,4.307,0
7.016,5.04,0
7.017,6.871,0
7.018,7.42,0
7.019,3.575,0
7.02,5.955,0
7.021,4.674,0
7.022,6.688,0
7.023,1.011,0
7.024,-1.369,0
7.025,-2.101,0
7.026,1.195,0
7.027,0.645,0
7.028,2.293,0
7.029,5.589,0
7.03,5.223,0
7.031,7.237,0
7.032,7.603,0
7.033,6.505,0
7.034,1.927,0
7.035,3.758,0
7.036,0.645,0
7.037,4.49,0
7.038,7.603,0
7.039,5.223,0
7.04,12.181,0
7.041,27.379,0
7.042,56.126,0
7.043,52.281,0
7.044,20.054,0
7.045,-18.947,0
7.046,-34.511,0
7.047,-29.75,0
7.048,-33.962,0
7.049,-30.116,0
7.05,-26.637,0
7.051,-23.525,0
7.052,-14.736,0
7.053,-6.862,0
7.054,-9.242,0
7.055,-7.045,0
7.056,-5.031,0
7.057,0.462,0
7.058,-1.186,0
7.059,0.279,0
7.06,-3.749,0
7.061,-0.27,0
7.062,3.026,0
7.063,5.955,0
7.064,3.209,0
7.065,5.589,0
7.066,1.744,0
7.067,9.251,0
7.068,4.307,0
7.069,3.392,0
7.07,4.124,0
7.071,3.392,0
7.072,3.941,0
7.073,4.49,0
7.074,2.843,0
7.075,1.561,0
7.076,1.927,0
7.077,2.293,0
7.078,-0.27,0
7.079,-0.636,0
7.08,1.378,0
7.081,-0.453,0
7.082,-3.383,0
7.083,-0.82,0
7.084,0.279,0
7.085,-1.735,0
7.086,0.096,0
7.087,1.927,0
7.088,0.828,0
7.089,3.209,0
7.09,3.392,0
7.091,5.589,0
7.092,4.857,0
7.093,4.674,0
7.094,3.209,0
7.095,0.279,0
7.096,5.955,0
7.097,18.406,0
7.098,16.575,0
7.099,-1.735,0
7.1,0.645,0
7.101,20.604,0
7.102,28.477,0
7.103,35.618,0
7.104,46.605,0
7.105,16.392,0
7.106,-22.609,0
7.107,-48.793,0
7.108,-53.554,0
7.109,-49.343,0
7.11,-53.188,0
7.111,-42.568,0
7.112,-33.046,0
7.113,-24.257,0
7.114,-16.384,0
7.115,-9.242,0
7.116,-7.045,0
7.117,-5.031,0
7.118,0.462,0
7.119,2.11,0
7.12,3.575,0
7.121,10.35,0
7.122,6.871,0
7.123,10.167,0
7.124,9.251,0
7.125,8.336,0
7.126,9.068,0
7.127,9.801,0
7.128,11.632,0
7.129,16.026,0
7.13,12.181,0
7.131,11.815,0
7.132,12.181,0
7.133,14.927,0
7.134,16.759,0
7.135,20.054,0
7.136,21.153,0
7.137,21.519,0
7.138,27.012,0
7.139,29.21,0
7.14,31.773,0
7.141,33.604,0
7.142,40.562,0
7.143,54.478,0
7.144,72.606,0
7.145,65.465,0
7.146,32.323,0
7.147,-1.003,0
7.148,-31.215,0
7.149,-50.807,0
7.15,-61.427,0
7.151,-64.54,0
7.152,-67.47,0
7.153,-70.033,0
7.154,-62.892,0
7.155,-56.301,0
7.156,-46.23,0
7.157,-40.737,0
7.158,-35.793,0
7.159,-40.187,0
7.16,-57.948,0
7.161,-79.921,0
7.162,-94.753,0
7.163,-108.12,0
7.164,-115.26,0
7.165,-121.85,0
7.166,-127.89,0
7.167,-122.4,0
7.168,-110.87,0
7.169,-106.47,0
7.17,-91.457,0
7.171,-77.358,0
7.172,-49.892,0
7.173,9.251,0
7.174,136.33,0
7.175,190.89,0
7.176,174.41,0
7.177,159.4,0
7.178,145.85,0
7.179,108.49,0
7.18,97.325,0
7.181,87.071,0
7.182,59.056,0
7.183,67.479,0
7.184,90.55,0
7.185,125.52,0
7.186,131.75,0
7.187,126.07,0
7.188,120.95,0
7.189,125.71,0
7.19,112.89,0
7.191,107.21,0
7.192,95.494,0
7.193,92.015,0
7.194,82.493,0
7.195,85.423,0
7.196,87.987,0
7.197,71.141,0
7.198,51.182,0
7.199,10.899,0
7.2,-29.384,0
7.201,-44.948,0
7.202,-49.709,0
7.203,-62.526,0
7.204,-66.371,0
7.205,-55.751,0
7.206,-58.864,0
7.207,-61.794,0
7.208,-64.357,0
7.209,-61.977,0
7.21,-55.385,0
7.211,-53.371,0
7.212,-58.864,0
7.213,-60.512,0
7.214,-56.117,0
7.215,-60.146,0
7.216,-61.244,0
7.217,-64.54,0
7.218,-61.611,0
7.219,-58.864,0
7.22,-58.132,0
7.221,-51.174,0
7.222,-50.258,0
7.223,-42.751,0
7.224,-41.835,0
7.225,-40.92,0
7.226,-36.891,0
7.227,-36.159,0
7.228,-28.652,0
7.229,-23.708,0
7.23,-17.299,0
7.231,-14.919,0
7.232,-12.721,0
7.233,-13.271,0
7.234,-10.158,0
7.235,-9.609,0
7.236,-3.017,0
7.237,-0.27,0
7.238,2.11,0
7.239,4.307,0
7.24,3.758,0
7.241,5.589,0
7.242,3.941,0
7.243,4.49,0
7.244,11.998,0
7.245,29.027,0
7.246,50.999,0
7.247,59.788,0
7.248,35.618,0
7.249,-0.087,0
7.25,-23.891,0
7.251,-28.102,0
7.252,-24.257,0
7.253,-27.736,0
7.254,-18.215,0
7.255,-15.285,0
7.256,-12.721,0
7.257,-10.341,0
7.258,-3.749,0
7.259,-1.735,0
7.26,0.096,0
7.261,1.744,0
7.262,6.138,0
7.263,7.42,0
7.264,8.519,0
7.265,9.617,0
7.266,12.547,0
7.267,9.801,0
7.268,15.477,0
7.269,13.28,0
7.27,16.575,0
7.271,12.181,0
7.272,14.927,0
7.273,17.308,0
7.274,13.096,0
7.275,14.744,0
7.276,10.167,0
7.277,9.617,0
7.278,10.167,0
7.279,10.533,0
7.28,10.167,0
7.281,10.533,0
7.282,4.857,0
7.283,0.828,0
7.284,1.561,0
7.285,2.11,0
7.286,2.659,0
7.287,4.307,0
7.288,1.927,0
7.289,4.124,0
7.29,2.11,0
7.291,3.209,0
7.292,1.378,0
7.293,2.476,0
7.294,1.744,0
7.295,5.955,0
7.296,15.477,0
7.297,35.985,0
7.298,44.774,0
7.299,42.21,0
7.3,25.365,0
7.301,31.956,0
7.302,33.97,0
7.303,6.505,0
7.304,-36.891,0
7.305,-54.103,0
7.306,-59.23,0
7.307,-54.469,0
7.308,-41.652,0
7.309,-37.807,0
7.31,-34.328,0
7.311,-24.806,0
7.312,-21.877,0
7.313,-14.003,0
7.314,-11.623,0
7.315,-5.031,0
7.316,-3.017,0
7.317,2.476,0
7.318,7.42,0
7.319,11.815,0
7.32,13.096,0
7.321,14.195,0
7.322,17.491,0
7.323,14.561,0
7.324,15.477,0
7.325,13.096,0
7.326,12.364,0
7.327,11.815,0
7.328,12.364,0
7.329,14.012,0
7.33,11.632,0
7.331,13.829,0
7.332,9.984,0
7.333,7.603,0
7.334,6.322,0
7.335,9.068,0
7.336,6.505,0
7.337,2.476,0
7.338,4.857,0
7.339,0.645,0
7.34,-2.101,0
7.341,0.279,0
7.342,7.237,0
7.343,22.435,0
7.344,-4.115,0
7.345,-10.707,0
7.346,-8.693,0
7.347,-10.524,0
7.348,11.082,0
7.349,31.773,0
7.35,34.337,0
7.351,36.717,0
7.352,30.125,0
7.353,32.139,0
7.354,22.984,0
7.355,-1.918,0
7.356,-48.427,0
7.357,-54.653,0
7.358,-60.329,0
7.359,-55.202,0
7.36,-50.441,0
7.361,-37.624,0
7.362,-33.779,0
7.363,-23.158,0
7.364,-20.046,0
7.365,-11.257,0
7.366,-8.693,0
7.367,3.392,0
7.368,5.589,0
7.369,7.603,0
7.37,9.434,0
7.371,7.786,0
7.372,6.322,0
7.373,10.35,0
7.374,9.251,0
7.375,5.955,0
7.376,6.871,0
7.377,11.448,0
7.378,12.181,0
7.379,9.984,0
7.38,9.434,0
7.381,8.885,0
7.382,6.138,0
7.383,6.505,0
7.384,8.702,0
7.385,9.801,0
7.386,7.237,0
7.387,4.674,0
7.388,3.941,0
7.389,7.054,0
7.39,6.688,0
7.391,8.519,0
7.392,6.688,0
7.393,9.984,0
7.394,8.702,0
7.395,3.209,0
7.396,2.11,0
7.397,7.786,0
7.398,20.238,0
7.399,36.717,0
7.4,52.098,0
7.401,46.055,0
7.402,18.59,0
7.403,-24.806,0
7.404,-30.483,0
7.405,-35.61,0
7.406,-40.37,0
7.407,-36.159,0
7.408,-32.314,0
7.409,-21.694,0
7.41,-18.581,0
7.411,-15.651,0
7.412,-13.088,0
7.413,-5.947,0
7.414,-3.749,0
7.415,-1.735,0
7.416,0.096,0
7.417,1.744,0
7.418,6.138,0
7.419,7.42,0
7.42,6.322,0
7.421,9.617,0
7.422,12.547,0
7.423,9.801,0
7.424,5.772,0
7.425,1.927,0
7.426,0.096,0
7.427,5.772,0
7.428,5.04,0
7.429,6.871,0
7.43,5.04,0
7.431,8.885,0
7.432,4.307,0
7.433,2.476,0
7.434,4.124,0
7.435,3.758,0
7.436,5.04,0
7.437,6.138,0
7.438,4.307,0
7.439,1.744,0
7.44,2.476,0
7.441,-1.735,0
7.442,1.378,0
7.443,0.828,0
7.444,3.209,0
7.445,-1.918,0
7.446,1.011,0
7.447,1.561,0
7.448,11.082,0
7.449,15.111,0
7.45,33.604,0
7.451,63.084,0
7.452,27.562,0
7.453,-15.468,0
7.454,-21.144,0
7.455,-26.271,0
7.456,-31.032,0
7.457,-35.243,0
7.458,-31.398,0
7.459,-20.778,0
7.46,-17.665,0
7.461,-14.736,0
7.462,-12.172,0
7.463,-9.792,0
7.464,-7.594,0
7.465,-1.552,0
7.466,3.941,0
7.467,5.589,0
7.468,1.195,0
7.469,7.969,0
7.47,6.871,0
7.471,7.969,0
7.472,7.054,0
7.473,6.138,0
7.474,3.758,0
7.475,3.026,0
7.476,3.575,0
7.477,9.251,0
7.478,11.448,0
7.479,6.871,0
7.48,5.04,0
7.481,3.392,0
7.482,0.096,0
7.483,-0.27,0
7.484,-0.636,0
7.485,5.04,0
7.486,2.659,0
7.487,3.392,0
7.488,3.941,0
7.489,-1.735,0
7.49,-1.003,0
7.491,0.828,0
7.492,-1.003,0
7.493,-1.552,0
7.494,-1.186,0
7.495,-0.82,0
7.496,0.279,0
7.497,3.941,0
7.498,1.378,0
7.499,6.871,0
7.5,18.406,0
7.501,40.013,0
7.502,48.802,0
7.503,56.676,0
7.504,24.998,0
7.505,-5.214,0
7.506,-32.68,0
7.507,-43.3,0
7.508,-46.413,0
7.509,-43.483,0
7.51,-40.92,0
7.511,-28.835,0
7.512,-22.243,0
7.513,-16.2,0
7.514,-7.045,0
7.515,-8.693,0
7.516,-7.228,0
7.517,-3.2,0
7.518,0.279,0
7.519,3.575,0
7.52,4.49,0
7.521,5.406,0
7.522,7.786,0
7.523,7.054,0
7.524,3.758,0
7.525,4.307,0
7.526,8.153,0
7.527,9.434,0
7.528,7.237,0
7.529,4.49,0
7.53,4.124,0
7.531,5.955,0
7.532,3.209,0
7.533,5.772,0
7.534,3.209,0
7.535,3.941,0
7.536,4.674,0
7.537,5.955,0
7.538,5.406,0
7.539,5.955,0
7.54,7.786,0
7.541,6.688,0
7.542,7.786,0
7.543,4.857,0
7.544,-1.369,0
7.545,-0.453,0
7.546,-2.834,0
7.547,-3.566,0
7.548,-1.918,0
7.549,-0.087,0
7.55,9.434,0
7.551,29.942,0
7.552,50.633,0
7.553,53.197,0
7.554,26.463,0
7.555,-5.763,0
7.556,-27.37,0
7.557,-31.215,0
7.558,-27.736,0
7.559,-24.623,0
7.56,-27.553,0
7.561,-24.99,0
7.562,-22.609,0
7.563,-16.017,0
7.564,-14.003,0
7.565,-12.172,0
7.566,-10.524,0
7.567,-3.017,0
7.568,-4.299,0
7.569,-0.82,0
7.57,2.476,0
7.571,5.406,0
7.572,4.49,0
7.573,5.223,0
7.574,4.49,0
7.575,5.04,0
7.576,4.49,0
7.577,8.336,0
7.578,5.04,0
7.579,6.322,0
7.58,4.307,0
7.581,6.138,0
7.582,5.04,0
7.583,2.293,0
7.584,1.927,0
7.585,3.026,0
7.586,7.603,0
7.587,17.857,0
7.588,31.407,0
7.589,7.603,0
7.59,-1.918,0
7.591,-10.707,0
7.592,-13.271,0
7.593,-10.89,0
7.594,-8.693,0
7.595,-10.707,0
7.596,-5.214,0
7.597,-6.862,0
7.598,-2.468,0
7.599,-4.115,0
7.6,-0.087,0
7.601,16.026,0
7.602,27.012,0
7.603,41.112,0
7.604,53.929,0
7.605,48.985,0
7.606,26.463,0
7.607,-22.243,0
7.608,-29.201,0
7.609,-35.427,0
7.61,-29.75,0
7.611,-24.623,0
7.612,-29.384,0
7.613,-25.173,0
7.614,-21.327,0
7.615,-10.707,0
7.616,-13.82,0
7.617,-5.031,0
7.618,-2.468,0
7.619,-0.087,0
7.62,2.11,0
7.621,4.124,0
7.622,9.617,0
7.623,7.969,0
7.624,6.505,0
7.625,10.533,0
7.626,9.434,0
7.627,8.336,0
7.628,3.392,0
7.629,7.969,0
7.63,5.589,0
7.631,6.322,0
7.632,4.49,0
7.633,7.603,0
7.634,9.251,0
7.635,4.674,0
7.636,1.561,0
7.637,4.307,0
7.638,5.589,0
7.639,7.786,0
7.64,1.561,0
7.641,4.307,0
7.642,3.575,0
7.643,-0.27,0
7.644,-3.566,0
7.645,-5.397,0
7.646,-2.651,0
7.647,-2.284,0
7.648,-1.003,0
7.649,0.096,0
7.65,-1.918,0
7.651,-0.82,0
7.652,4.674,0
7.653,16.209,0
7.654,41.112,0
7.655,44.591,0
7.656,54.112,0
7.657,33.421,0
7.658,-1.552,0
7.659,-34.877,0
7.66,-39.089,0
7.661,-42.934,0
7.662,-39.455,0
7.663,-36.342,0
7.664,-33.412,0
7.665,-25.539,0
7.666,-23.158,0
7.667,-12.172,0
7.668,-6.13,0
7.669,-4.299,0
7.67,-2.651,0
7.671,1.744,0
7.672,3.026,0
7.673,4.124,0
7.674,0.828,0
7.675,1.744,0
7.676,0.828,0
7.677,3.209,0
7.678,5.406,0
7.679,9.984,0
7.68,8.153,0
7.681,6.505,0
7.682,6.138,0
7.683,9.251,0
7.684,11.998,0
7.685,8.519,0
7.686,9.801,0
7.687,11.815,0
7.688,10.716,0
7.689,7.42,0
7.69,2.843,0
7.691,3.392,0
7.692,5.04,0
7.693,1.744,0
7.694,1.378,0
7.695,4.124,0
7.696,2.293,0
7.697,-2.468,0
7.698,-1.918,0
7.699,-2.468,0
7.7,-0.087,0
7.701,-1.186,0
7.702,3.026,0
7.703,11.448,0
7.704,29.942,0
7.705,48.619,0
7.706,55.76,0
7.707,22.618,0
7.708,-10.707,0
7.709,-23.525,0
7.71,-43.117,0
7.711,-39.638,0
7.712,-30.116,0
7.713,-27.187,0
7.714,-19.313,0
7.715,-16.933,0
7.716,-14.736,0
7.717,-8.693,0
7.718,-10.524,0
7.719,-5.58,0
7.72,1.927,0
7.721,5.955,0
7.722,4.857,0
7.723,3.758,0
7.724,0.828,0
7.725,5.406,0
7.726,6.138,0
7.727,8.336,0
7.728,10.167,0
7.729,14.561,0
7.73,7.237,0
7.731,6.322,0
7.732,1.744,0
7.733,2.476,0
7.734,4.674,0
7.735,6.505,0
7.736,2.11,0
7.737,3.758,0
7.738,1.378,0
7.739,-0.82,0
7.74,0.279,0
7.741,0.645,0
7.742,2.476,0
7.743,-0.82,0
7.744,-2.101,0
7.745,-1.003,0
7.746,-1.369,0
7.747,-0.27,0
7.748,-4.848,0
7.749,-3.017,0
7.75,-2.468,0
7.751,-4.115,0
7.752,-2.651,0
7.753,-2.284,0
7.754,4.674,0
7.755,19.871,0
7.756,44.224,0
7.757,47.337,0
7.758,50.267,0
7.759,26.097,0
7.76,-9.609,0
7.761,-33.412,0
7.762,-37.624,0
7.763,-41.469,0
7.764,-37.99,0
7.765,-28.469,0
7.766,-19.679,0
7.767,-17.116,0
7.768,-14.736,0
7.769,-12.538,0
7.77,-10.524,0
7.771,-8.693,0
7.772,-0.453,0
7.773,1.011,0
7.774,-0.27,0
7.775,-1.369,0
7.776,-0.27,0
7.777,-1.186,0
7.778,-2.101,0
7.779,1.927,0
7.78,8.885,0
7.781,9.801,0
7.782,0.645,0
7.783,4.124,0
7.784,3.026,0
7.785,5.955,0
7.786,10.533,0
7.787,11.265,0
7.788,11.998,0
7.789,12.547,0
7.79,6.871,0
7.791,6.138,0
7.792,5.589,0
7.793,3.758,0
7.794,-0.087,0
7.795,3.209,0
7.796,0.096,0
7.797,-1.918,0
7.798,-4.482,0
7.799,-4.848,0
7.8,-0.27,0
7.801,3.026,0
7.802,1.195,0
7.803,5.406,0
7.804,3.758,0
7.805,11.265,0
7.806,28.294,0
7.807,50.267,0
7.808,59.056,0
7.809,24.083,0
7.81,-9.242,0
7.811,-22.06,0
7.812,-25.905,0
7.813,-29.384,0
7.814,-26.271,0
7.815,-23.342,0
7.816,-20.778,0
7.817,-13.637,0
7.818,-7.045,0
7.819,-9.059,0
7.82,-3.566,0
7.821,-1.918,0
7.822,-0.453,0
7.823,3.575,0
7.824,4.674,0
7.825,5.772,0
7.826,2.843,0
7.827,1.927,0
7.828,7.603,0
7.829,3.758,0
7.83,7.054,0
7.831,6.505,0
7.832,10.35,0
7.833,17.857,0
7.834,21.153,0
7.835,5.955,0
7.836,-9.426,0
7.837,-11.44,0
7.838,-13.271,0
7.839,-5.031,0
7.84,-6.496,0
7.841,-7.778,0
7.842,-13.82,0
7.843,-10.524,0
7.844,-5.58,0
7.845,-2.834,0
7.846,-5.214,0
7.847,-4.482,0
7.848,-1.186,0
7.849,0.645,0
7.85,-1.003,0
7.851,3.575,0
7.852,0.462,0
7.853,1.011,0
7.854,3.941,0
7.855,0.645,0
7.856,7.603,0
7.857,12.547,0
7.858,26.463,0
7.859,56.676,0
7.86,35.069,0
7.861,-0.453,0
7.862,-24.257,0
7.863,-28.469,0
7.864,-32.314,0
7.865,-28.835,0
7.866,-31.948,0
7.867,-23.158,0
7.868,-15.285,0
7.869,-12.905,0
7.87,-6.313,0
7.871,-0.27,0
7.872,-2.101,0
7.873,-3.749,0
7.874,-2.284,0
7.875,1.744,0
7.876,0.645,0
7.877,3.941,0
7.878,4.857,0
7.879,7.603,0
7.88,5.223,0
7.881,4.49,0
7.882,5.04,0
7.883,4.49,0
7.884,3.941,0
7.885,7.237,0
7.886,6.871,0
7.887,11.448,0
7.888,10.899,0
7.889,10.35,0
7.89,2.843,0
7.891,1.744,0
7.892,-1.186,0
7.893,-0.27,0
7.894,2.11,0
7.895,2.843,0
7.896,-1.735,0
7.897,3.941,0
7.898,4.674,0
7.899,0.096,0
7.9,-0.453,0
7.901,1.195,0
7.902,3.575,0
7.903,3.941,0
7.904,5.04,0
7.905,5.406,0
7.906,4.307,0
7.907,9.801,0
7.908,21.336,0
7.909,46.239,0
7.91,56.859,0
7.911,72.972,0
7.912,64.183,0
7.913,23.9,0
7.914,-4.848,0
7.915,-20.412,0
7.916,-25.173,0
7.917,-29.384,0
7.918,-25.539,0
7.919,-14.919,0
7.92,-24.44,0
7.921,-33.229,0
7.922,-46.596,0
7.923,-44.216,0
7.924,-50.807,0
7.925,-56.85,0
7.926,-51.357,0
7.927,-43.117,0
7.928,-29.567,0
7.929,-20.412,0
7.93,-28.652,0
7.931,-39.089,0
7.932,-54.103,0
7.933,-84.316,0
7.934,-105.92,0
7.935,-117.64,0
7.936,-121.12,0
7.937,-143.64,0
7.938,-152.43,0
7.939,-144.56,0
7.94,-127.71,0
7.941,-116.72,0
7.942,-106.66,0
7.943,-79.189,0
7.944,-20.046,0
7.945,73.155,0
7.946,135.41,0
7.947,169.1,0
7.948,158.85,0
7.949,149.51,0
7.95,124.24,0
7.951,131.93,0
7.952,124.97,0
7.953,118.75,0
7.954,124.42,0
7.955,139.99,0
7.956,164.34,0
7.957,188.15,0
7.958,209.75,0
7.959,213.6,0
7.96,210.12,0
7.961,207,0
7.962,174.41,0
7.963,118.02,0
7.964,64.183,0
7.965,15.294,0
7.966,-3.566,0
7.967,-9.242,0
7.968,-4.115,0
7.969,-8.876,0
7.97,-13.088,0
7.971,-16.933,0
7.972,-20.412,0
7.973,-29.933,0
7.974,-38.722,0
7.975,-41.286,0
7.976,-43.666,0
7.977,-50.258,0
7.978,-56.301,0
7.979,-58.132,0
7.98,-56.484,0
7.981,-66.921,0
7.982,-65.639,0
7.983,-64.54,0
7.984,-61.244,0
7.985,-64.174,0
7.986,-65.09,0
7.987,-70.766,0
7.988,-68.569,0
7.989,-70.4,0
7.99,-67.287,0
7.991,-68.935,0
7.992,-65.639,0
7.993,-63.442,0
7.994,-60.695,0
7.995,-55.019,0
7.996,-44.216,0
7.997,-36.708,0
7.998,-35.427,0
7.999,-34.328,0
8,-28.652,0
8.001,-23.708,0
8.002,-20.961,0
8.003,-13.454,0
8.004,-8.51,0
8.005,-7.594,0
8.006,-6.862,0
8.007,-5.58,0
8.008,-7.778,0
8.009,2.476,0
8.01,12.913,0
8.011,33.421,0
8.012,60.155,0
8.013,35.252,0
8.014,-0.453,0
8.015,-24.257,0
8.016,-37.074,0
8.017,-33.229,0
8.018,-22.609,0
8.019,-19.496,0
8.02,-16.567,0
8.021,-14.003,0
8.022,-6.862,0
8.023,-0.27,0
8.024,1.744,0
8.025,7.237,0
8.026,5.589,0
8.027,9.984,0
8.028,8.702,0
8.029,12.181,0
8.03,11.082,0
8.031,16.026,0
8.032,15.111,0
8.033,12.73,0
8.034,14.927,0
8.035,10.35,0
8.036,14.744,0
8.037,13.096,0
8.038,15.477,0
8.039,12.364,0
8.04,13.463,0
8.041,10.899,0
8.042,12.73,0
8.043,13.463,0
8.044,9.801,0
8.045,8.519,0
8.046,8.153,0
8.047,7.786,0
8.048,2.11,0
8.049,6.138,0
8.05,3.941,0
8.051,4.49,0
8.052,5.04,0
8.053,8.885,0
8.054,6.505,0
8.055,4.307,0
8.056,7.054,0
8.057,4.49,0
8.058,6.138,0
8.059,11.632,0
8.06,16.942,0
8.061,27.196,0
8.062,46.788,0
8.063,60.155,0
8.064,33.421,0
8.065,1.195,0
8.066,-29.018,0
8.067,-32.863,0
8.068,-43.483,0
8.069,-33.962,0
8.07,-31.032,0
8.071,-23.158,0
8.072,-20.778,0
8.073,-14.186,0
8.074,-12.172,0
8.075,-10.341,0
8.076,-5.397,0
8.077,2.11,0
8.078,14.378,0
8.079,25.914,0
8.08,18.406,0
8.081,3.392,0
8.082,-6.679,0
8.083,-8.51,0
8.084,-3.566,0
8.085,0.828,0
8.086,-0.453,0
8.087,-1.552,0
8.088,-0.453,0
8.089,0.462,0
8.09,3.209,0
8.091,3.941,0
8.092,6.138,0
8.093,1.561,0
8.094,1.011,0
8.095,7.237,0
8.096,6.505,0
8.097,1.195,0
8.098,-3.383,0
8.099,2.293,0
8.1,3.026,0
8.101,1.195,0
8.102,0.645,0
8.103,9.068,0
8.104,3.026,0
8.105,6.322,0
8.106,5.406,0
8.107,4.49,0
8.108,0.462,0
8.109,-0.453,0
8.11,1.744,0
8.111,11.998,0
8.112,25.548,0
8.113,53.013,0
8.114,64.732,0
8.115,39.83,0
8.116,-2.468,0
8.117,-19.679,0
8.118,-24.806,0
8.119,-29.567,0
8.12,-33.779,0
8.121,-29.933,0
8.122,-33.412,0
8.123,-23.891,0
8.124,-26.821,0
8.125,-13.454,0
8.126,-11.073,0
8.127,-8.876,0
8.128,-6.862,0
8.129,-1.369,0
8.13,0.279,0
8.131,1.744,0
8.132,5.772,0
8.133,9.251,0
8.134,8.153,0
8.135,5.223,0
8.136,6.138,0
8.137,6.871,0
8.138,7.603,0
8.139,4.307,0
8.14,4.857,0
8.141,4.307,0
8.142,3.026,0
8.143,4.307,0
8.144,2.293,0
8.145,0.462,0
8.146,-0.636,0
8.147,-2.651,0
8.148,0.462,0
8.149,0.096,0
8.15,-2.468,0
8.151,-2.834,0
8.152,-3.566,0
8.153,0.645,0
8.154,1.195,0
8.155,0.645,0
8.156,-3.932,0
8.157,-0.82,0
8.158,-1.369,0
8.159,-0.087,0
8.16,2.476,0
8.161,5.589,0
8.162,11.815,0
8.163,25.731,0
8.164,43.858,0
8.165,50.999,0
8.166,48.802,0
8.167,26.646,0
8.168,-5.947,0
8.169,-27.553,0
8.17,-39.272,0
8.171,-49.892,0
8.172,-40.37,0
8.173,-37.441,0
8.174,-29.567,0
8.175,-27.187,0
8.176,-20.595,0
8.177,-14.552,0
8.178,-12.721,0
8.179,-11.073,0
8.18,-3.566,0
8.181,-2.284,0
8.182,-1.186,0
8.183,4.49,0
8.184,3.575,0
8.185,9.984,0
8.186,9.251,0
8.187,14.561,0
8.188,14.012,0
8.189,10.899,0
8.19,9.251,0
8.191,6.871,0
8.192,8.153,0
8.193,5.406,0
8.194,10.35,0
8.195,8.519,0
8.196,10.35,0
8.197,3.026,0
8.198,0.096,0
8.199,4.674,0
8.2,8.702,0
8.201,7.969,0
8.202,3.392,0
8.203,1.561,0
8.204,6.688,0
8.205,2.11,0
8.206,3.941,0
8.207,0.096,0
8.208,-3.2,0
8.209,-0.087,0
8.21,-2.101,0
8.211,-1.186,0
8.212,1.378,0
8.213,6.871,0
8.214,18.406,0
8.215,43.309,0
8.216,46.788,0
8.217,56.309,0
8.218,29.576,0
8.219,-9.792,0
