0,-4.961,0
0.001,-3.497,0
0.002,6.025,0
0.003,22.138,0
0.004,42.097,0
0.005,60.773,0
0.006,53.632,0
0.007,20.49,0
0.008,-22.54,0
0.009,-28.216,0
0.01,-43.78,0
0.011,-39.019,0
0.012,-34.808,0
0.013,-23.089,0
0.014,-26.568,0
0.015,-23.455,0
0.016,-14.666,0
0.017,-12.103,0
0.018,-4.961,0
0.019,-2.764,0
0.02,-0.75,0
0.021,1.081,0
0.022,2.729,0
0.023,7.124,0
0.024,5.842,0
0.025,4.743,0
0.026,8.039,0
0.027,8.955,0
0.028,6.208,0
0.029,8.588,0
0.03,9.321,0
0.031,8.771,0
0.032,8.222,0
0.033,8.771,0
0.034,6.391,0
0.035,6.025,0
0.036,4.011,0
0.037,6.574,0
0.038,8.405,0
0.039,4.377,0
0.04,7.124,0
0.041,8.405,0
0.042,8.039,0
0.043,6.025,0
0.044,4.926,0
0.045,0.166,0
0.046,-0.384,0
0.047,-3.13,0
0.048,-1.849,0
0.049,1.264,0
0.05,3.278,0
0.051,0.166,0
0.052,-3.313,0
0.053,3.645,0
0.054,18.842,0
0.055,51.984,0
0.056,56.745,0
0.057,26.533,0
0.058,-16.863,0
0.059,-22.54,0
0.06,-38.104,0
0.061,-42.864,0
0.062,-38.653,0
0.063,-34.808,0
0.064,-31.329,0
0.065,-21.807,0
0.066,-18.877,0
0.067,-11.004,0
0.068,-8.624,0
0.069,-2.032,0
0.07,-4.046,0
0.071,-2.215,0
0.072,-0.567,0
0.073,3.828,0
0.074,5.109,0
0.075,6.208,0
0.076,2.912,0
0.077,3.828,0
0.078,6.574,0
0.079,7.307,0
0.08,6.574,0
0.081,4.743,0
0.082,5.292,0
0.083,5.842,0
0.084,2.546,0
0.085,3.828,0
0.086,4.926,0
0.087,6.025,0
0.088,4.194,0
0.089,4.377,0
0.09,3.095,0
0.091,2.363,0
0.092,5.842,0
0.093,6.208,0
0.094,3.095,0
0.095,-0.75,0
0.096,0.532,0
0.097,1.813,0
0.098,-0.201,0
0.099,-0.567,0
0.1,2.729,0
0.101,0.715,0
0.102,2.363,0
0.103,-1.116,0
0.104,5.842,0
0.105,21.04,0
0.106,49.787,0
0.107,61.506,0
0.108,50.886,0
0.109,15.18,0
0.11,-27.85,0
0.111,-33.526,0
0.112,-38.653,0
0.113,-43.414,0
0.114,-39.202,0
0.115,-27.483,0
0.116,-24.004,0
0.117,-20.892,0
0.118,-17.962,0
0.119,-10.088,0
0.12,-12.469,0
0.121,-5.877,0
0.122,-3.863,0
0.123,-2.032,0
0.124,6.208,0
0.125,4.743,0
0.126,0.715,0
0.127,6.757,0
0.128,3.461,0
0.129,4.377,0
0.13,3.461,0
0.131,5.842,0
0.132,9.687,0
0.133,6.391,0
0.134,5.842,0
0.135,4.194,0
0.136,4.56,0
0.137,4.926,0
0.138,3.828,0
0.139,5.659,0
0.14,5.292,0
0.141,7.307,0
0.142,9.138,0
0.143,5.109,0
0.144,4.56,0
0.145,-0.933,0
0.146,-4.778,0
0.147,2.729,0
0.148,3.645,0
0.149,2.729,0
0.15,3.461,0
0.151,-1.849,0
0.152,1.447,0
0.153,4.56,0
0.154,6.391,0
0.155,14.814,0
0.156,33.308,0
0.157,51.984,0
0.158,64.069,0
0.159,48.688,0
0.16,18.476,0
0.161,-29.131,0
0.162,-35.357,0
0.163,-41.033,0
0.164,-35.906,0
0.165,-31.146,0
0.166,-26.934,0
0.167,-23.089,0
0.168,-19.61,0
0.169,-16.497,0
0.17,-7.708,0
0.171,-5.145,0
0.172,-2.764,0
0.173,-0.567,0
0.174,5.476,0
0.175,7.307,0
0.176,5.659,0
0.177,10.053,0
0.178,3.278,0
0.179,2.18,0
0.18,3.278,0
0.181,2.363,0
0.182,1.447,0
0.183,8.955,0
0.184,1.997,0
0.185,1.081,0
0.186,0.349,0
0.187,5.659,0
0.188,3.828,0
0.189,9.504,0
0.19,8.771,0
0.191,6.94,0
0.192,3.828,0
0.193,4.377,0
0.194,3.095,0
0.195,0.898,0
0.196,-0.201,0
0.197,-2.764,0
0.198,-0.201,0
0.199,-0.018,0
0.2,2.546,0
0.201,-0.018,0
0.202,4.56,0
0.203,-0.018,0
0.204,2.363,0
0.205,0.532,0
0.206,8.955,0
0.207,27.448,0
0.208,40.815,0
0.209,47.956,0
0.21,58.942,0
0.211,36.787,0
0.212,-1.849,0
0.213,-28.033,0
0.214,-51.836,0
0.215,-47.625,0
0.216,-43.78,0
0.217,-40.301,0
0.218,-37.188,0
0.219,-28.399,0
0.22,-20.525,0
0.221,-13.384,0
0.222,-11.187,0
0.223,-5.145,0
0.224,-3.313,0
0.225,4.926,0
0.226,3.461,0
0.227,10.236,0
0.228,6.757,0
0.229,3.461,0
0.23,4.377,0
0.231,8.955,0
0.232,8.222,0
0.233,8.955,0
0.234,19.208,0
0.235,29.646,0
0.236,17.377,0
0.237,2.363,0
0.238,-3.68,0
0.239,-5.511,0
0.24,-10.455,0
0.241,-6.06,0
0.242,-4.778,0
0.243,-10.821,0
0.244,-5.145,0
0.245,-2.215,0
0.246,-3.13,0
0.247,-2.398,0
0.248,-1.666,0
0.249,2.912,0
0.25,-0.201,0
0.251,4.926,0
0.252,9.504,0
0.253,7.673,0
0.254,9.321,0
0.255,8.222,0
0.256,3.645,0
0.257,10.603,0
0.258,24.519,0
0.259,42.646,0
0.26,49.787,0
0.261,65.168,0
0.262,34.956,0
0.263,4.743,0
0.264,-22.723,0
0.265,-26.202,0
0.266,-23.089,0
0.267,-20.159,0
0.268,-6.792,0
0.269,0.349,0
0.27,2.546,0
0.271,0.532,0
0.272,6.025,0
0.273,7.673,0
0.274,9.138,0
0.275,5.109,0
0.276,-11.004,0
0.277,-21.99,0
0.278,-19.976,0
0.279,-29.131,0
0.28,-37.371,0
0.281,-38.836,0
0.282,-37.554,0
0.283,-19.061,0
0.284,-16.497,0
0.285,-23.638,0
0.286,-39.019,0
0.287,-53.118,0
0.288,-73.26,0
0.289,-102.74,0
0.29,-114.46,0
0.291,-117.94,0
0.292,-134.05,0
0.293,-154.74,0
0.294,-157.31,0
0.295,-150.16,0
0.296,-139.18,0
0.297,-121.05,0
0.298,-104.2,0
0.299,-71.063,0
0.3,0.532,0
0.301,93,0
0.302,155.26,0
0.303,166.43,0
0.304,156.17,0
0.305,146.83,0
0.306,128.34,0
0.307,119.92,0
0.308,142.99,0
0.309,163.86,0
0.31,208.17,0
0.311,225.38,0
0.312,209.82,0
0.313,176.5,0
0.314,154.89,0
0.315,135.3,0
0.316,117.54,0
0.317,108.02,0
0.318,87.324,0
0.319,63.154,0
0.32,47.041,0
0.321,32.209,0
0.322,29.646,0
0.323,27.265,0
0.324,25.068,0
0.325,10.969,0
0.326,-1.849,0
0.327,-10.088,0
0.328,-17.596,0
0.329,-27.117,0
0.33,-28.216,0
0.331,-29.314,0
0.332,-44.512,0
0.333,-46.709,0
0.334,-56.78,0
0.335,-65.936,0
0.336,-67.583,0
0.337,-63.189,0
0.338,-61.907,0
0.339,-65.386,0
0.34,-66.485,0
0.341,-71.429,0
0.342,-72.344,0
0.343,-78.021,0
0.344,-75.823,0
0.345,-76.373,0
0.346,-71.978,0
0.347,-66.851,0
0.348,-63.555,0
0.349,-56.597,0
0.35,-52.02,0
0.351,-47.991,0
0.352,-44.146,0
0.353,-40.85,0
0.354,-33.892,0
0.355,-29.314,0
0.356,-26.934,0
0.357,-21.807,0
0.358,-16.497,0
0.359,-6.243,0
0.36,16.279,0
0.361,45.576,0
0.362,49.421,0
0.363,45.942,0
0.364,16.645,0
0.365,-18.877,0
0.366,-33.16,0
0.367,-37.371,0
0.368,-33.526,0
0.369,-30.047,0
0.37,-26.934,0
0.371,-24.004,0
0.372,-10.638,0
0.373,-8.257,0
0.374,-6.06,0
0.375,-0.018,0
0.376,1.813,0
0.377,3.461,0
0.378,10.969,0
0.379,9.687,0
0.38,13.166,0
0.381,14.265,0
0.382,11.335,0
0.383,10.419,0
0.384,11.152,0
0.385,18.11,0
0.386,11.701,0
0.387,14.082,0
0.388,13.349,0
0.389,15.18,0
0.39,13.349,0
0.391,16.096,0
0.392,15.729,0
0.393,17.011,0
0.394,12.434,0
0.395,9.321,0
0.396,7.673,0
0.397,10.053,0
0.398,10.419,0
0.399,10.786,0
0.4,10.419,0
0.401,9.321,0
0.402,9.138,0
0.403,8.405,0
0.404,6.025,0
0.405,8.039,0
0.406,7.307,0
0.407,10.236,0
0.408,4.56,0
0.409,2.729,0
0.41,8.222,0
0.411,19.758,0
0.412,41.364,0
0.413,32.575,0
0.414,45.942,0
0.415,48.322,0
0.416,15.18,0
0.417,-27.85,0
0.418,-33.526,0
0.419,-38.653,0
0.42,-43.414,0
0.421,-30.596,0
0.422,-26.751,0
0.423,-16.131,0
0.424,-13.018,0
0.425,-10.088,0
0.426,-7.525,0
0.427,-9.905,0
0.428,-7.708,0
0.429,-1.666,0
0.43,3.828,0
0.431,5.476,0
0.432,4.011,0
0.433,10.786,0
0.434,7.307,0
0.435,6.208,0
0.436,1.264,0
0.437,5.842,0
0.438,5.109,0
0.439,5.842,0
0.44,5.292,0
0.441,8.405,0
0.442,7.856,0
0.443,6.574,0
0.444,3.461,0
0.445,3.095,0
0.446,5.659,0
0.447,5.292,0
0.448,3.828,0
0.449,6.94,0
0.45,8.039,0
0.451,5.476,0
0.452,4.377,0
0.453,2.912,0
0.454,6.025,0
0.455,8.771,0
0.456,5.292,0
0.457,5.659,0
0.458,6.757,0
0.459,1.63,0
0.46,-0.201,0
0.461,5.292,0
0.462,16.828,0
0.463,38.435,0
0.464,53.266,0
0.465,50.703,0
0.466,19.025,0
0.467,-19.976,0
0.468,-35.54,0
0.469,-40.301,0
0.47,-44.512,0
0.471,-40.667,0
0.472,-30.047,0
0.473,-26.934,0
0.474,-24.004,0
0.475,-21.441,0
0.476,-14.3,0
0.477,-12.103,0
0.478,-6.06,0
0.479,-4.229,0
0.48,20.673,0
0.481,31.293,0
0.482,8.771,0
0.483,-0.018,0
0.484,-2.581,0
0.485,-0.201,0
0.486,-2.398,0
0.487,-4.412,0
0.488,-2.581,0
0.489,-0.933,0
0.49,0.532,0
0.491,1.813,0
0.492,-1.666,0
0.493,-0.567,0
0.494,0.349,0
0.495,-0.567,0
0.496,0.166,0
0.497,2.363,0
0.498,-0.933,0
0.499,6.025,0
0.5,10.603,0
0.501,9.87,0
0.502,10.603,0
0.503,3.095,0
0.504,6.025,0
0.505,5.109,0
0.506,5.842,0
0.507,3.645,0
0.508,1.813,0
0.509,-1.299,0
0.51,-2.764,0
0.511,-5.511,0
0.512,1.997,0
0.513,19.025,0
0.514,35.871,0
0.515,46.857,0
0.516,52.9,0
0.517,25.434,0
0.518,-17.962,0
0.519,-35.174,0
0.52,-40.301,0
0.521,-35.54,0
0.522,-31.329,0
0.523,-27.483,0
0.524,-24.004,0
0.525,-14.483,0
0.526,-11.553,0
0.527,-8.99,0
0.528,-6.609,0
0.529,-4.412,0
0.53,-2.398,0
0.531,-0.567,0
0.532,1.081,0
0.533,2.546,0
0.534,9.321,0
0.535,5.842,0
0.536,6.94,0
0.537,9.87,0
0.538,7.124,0
0.539,4.743,0
0.54,5.476,0
0.541,6.025,0
0.542,7.856,0
0.543,8.405,0
0.544,3.828,0
0.545,4.377,0
0.546,3.828,0
0.547,2.546,0
0.548,2.912,0
0.549,4.926,0
0.55,6.025,0
0.551,6.391,0
0.552,6.208,0
0.553,4.377,0
0.554,2.546,0
0.555,4.011,0
0.556,5.476,0
0.557,4.56,0
0.558,3.645,0
0.559,1.63,0
0.56,-1.666,0
0.561,-0.567,0
0.562,0.532,0
0.563,6.208,0
0.564,18.659,0
0.565,46.125,0
0.566,57.844,0
0.567,18.476,0
0.568,-18.145,0
0.569,-32.427,0
0.57,-36.639,0
0.571,-32.793,0
0.572,-29.314,0
0.573,-26.202,0
0.574,-17.413,0
0.575,-14.849,0
0.576,-17.229,0
0.577,-10.638,0
0.578,-8.624,0
0.579,-3.13,0
0.58,-4.778,0
0.581,-3.313,0
0.582,-2.032,0
0.583,-0.933,0
0.584,-2.032,0
0.585,-1.116,0
0.586,1.63,0
0.587,-0.75,0
0.588,6.208,0
0.589,7.124,0
0.59,11.152,0
0.591,13.349,0
0.592,13.898,0
0.593,12.067,0
0.594,11.518,0
0.595,11.152,0
0.596,8.955,0
0.597,6.208,0
0.598,5.109,0
0.599,4.743,0
0.6,0.166,0
0.601,-1.666,0
0.602,-4.778,0
0.603,-2.032,0
0.604,1.264,0
0.605,-3.863,0
0.606,0.715,0
0.607,2.546,0
0.608,-0.201,0
0.609,-2.581,0
0.61,-3.863,0
0.611,-1.849,0
0.612,-2.032,0
0.613,0.532,0
0.614,6.025,0
0.615,17.561,0
0.616,32.575,0
0.617,38.618,0
0.618,33.125,0
0.619,21.589,0
0.62,29.096,0
0.621,33.125,0
0.622,14.631,0
0.623,-25.652,0
0.624,-54.4,0
0.625,-59.527,0
0.626,-54.766,0
0.627,-50.555,0
0.628,-38.836,0
0.629,-35.357,0
0.63,-32.244,0
0.631,-23.455,0
0.632,-15.582,0
0.633,-8.44,0
0.634,-1.849,0
0.635,4.194,0
0.636,6.025,0
0.637,10.969,0
0.638,12.434,0
0.639,13.715,0
0.64,17.194,0
0.641,18.293,0
0.642,19.208,0
0.643,18.293,0
0.644,14.265,0
0.645,14.997,0
0.646,10.419,0
0.647,7.307,0
0.648,10.053,0
0.649,6.757,0
0.65,3.645,0
0.651,-0.933,0
0.652,-0.384,0
0.653,-0.933,0
0.654,-2.215,0
0.655,-0.933,0
0.656,-2.947,0
0.657,2.729,0
0.658,-1.299,0
0.659,0.898,0
0.66,1.447,0
0.661,0.898,0
0.662,2.546,0
0.663,5.292,0
0.664,-0.201,0
0.665,6.757,0
0.666,20.673,0
0.667,50.886,0
0.668,63.703,0
0.669,44.111,0
0.67,19.208,0
0.671,16.096,0
0.672,7.307,0
0.673,4.743,0
0.674,-2.398,0
0.675,-0.201,0
0.676,9.87,0
0.677,-17.596,0
0.678,-53.118,0
0.679,-67.4,0
0.68,-71.612,0
0.681,-59.893,0
0.682,-49.273,0
0.683,-46.16,0
0.684,-31.329,0
0.685,-28.765,0
0.686,-16.68,0
0.687,-5.694,0
0.688,4.377,0
0.689,6.208,0
0.69,11.152,0
0.691,15.546,0
0.692,14.265,0
0.693,17.744,0
0.694,21.04,0
0.695,18.11,0
0.696,15.363,0
0.697,16.096,0
0.698,15.363,0
0.699,17.194,0
0.7,12.8,0
0.701,12.25,0
0.702,8.955,0
0.703,7.673,0
0.704,10.419,0
0.705,8.588,0
0.706,4.56,0
0.707,5.842,0
0.708,6.208,0
0.709,6.574,0
0.71,4.011,0
0.711,2.912,0
0.712,4.377,0
0.713,6.94,0
0.714,0.898,0
0.715,1.997,0
0.716,6.574,0
0.717,16.828,0
0.718,33.308,0
0.719,53.266,0
0.72,50.703,0
0.721,19.025,0
0.722,-19.976,0
0.723,-35.54,0
0.724,-30.779,0
0.725,-17.962,0
0.726,1.63,0
0.727,5.109,0
0.728,-11.004,0
0.729,-13.934,0
0.73,-21.807,0
0.731,-24.188,0
0.732,-21.99,0
0.733,-15.948,0
0.734,-14.117,0
0.735,-12.469,0
0.736,-8.074,0
0.737,-9.356,0
0.738,-3.313,0
0.739,-0.018,0
0.74,2.912,0
0.741,0.166,0
0.742,2.546,0
0.743,3.278,0
0.744,5.109,0
0.745,5.659,0
0.746,5.109,0
0.747,10.603,0
0.748,14.448,0
0.749,9.87,0
0.75,9.321,0
0.751,3.095,0
0.752,3.828,0
0.753,4.56,0
0.754,5.109,0
0.755,9.504,0
0.756,4.377,0
0.757,6.208,0
0.758,3.095,0
0.759,3.645,0
0.76,-0.933,0
0.761,3.461,0
0.762,2.912,0
0.763,-1.666,0
0.764,-3.497,0
0.765,-4.229,0
0.766,-5.877,0
0.767,1.63,0
0.768,16.462,0
0.769,34.589,0
0.77,36.97,0
0.771,39.167,0
0.772,29.096,0
0.773,38.251,0
0.774,13.349,0
0.775,-18.877,0
0.776,-49.09,0
0.777,-52.935,0
0.778,-49.456,0
0.779,-46.343,0
0.78,-37.554,0
0.781,-34.991,0
0.782,-27.85,0
0.783,-21.258,0
0.784,-11.187,0
0.785,-9.356,0
0.786,-4.412,0
0.787,-2.947,0
0.788,1.081,0
0.789,-0.018,0
0.79,3.278,0
0.791,6.208,0
0.792,7.124,0
0.793,6.391,0
0.794,2.546,0
0.795,4.377,0
0.796,4.926,0
0.797,7.673,0
0.798,13.166,0
0.799,10.969,0
0.8,11.518,0
0.801,5.842,0
0.802,5.109,0
0.803,4.56,0
0.804,7.673,0
0.805,11.518,0
0.806,14.814,0
0.807,12.617,0
0.808,15.363,0
0.809,12.8,0
0.81,7.307,0
0.811,8.039,0
0.812,7.49,0
0.813,10.603,0
0.814,4.377,0
0.815,3.645,0
0.816,2.363,0
0.817,3.095,0
0.818,13.349,0
0.819,20.856,0
0.82,41.364,0
0.821,44.294,0
0.822,36.42,0
0.823,29.279,0
0.824,27.082,0
0.825,4.926,0
0.826,-33.709,0
0.827,-59.893,0
0.828,-55.132,0
0.829,-50.921,0
0.83,-54.766,0
0.831,-44.146,0
0.832,-34.625,0
0.833,-31.695,0
0.834,-23.821,0
0.835,-16.68,0
0.836,-10.088,0
0.837,-4.046,0
0.838,-2.215,0
0.839,-0.567,0
0.84,3.828,0
0.841,2.546,0
0.842,6.025,0
0.843,4.926,0
0.844,5.842,0
0.845,10.419,0
0.846,11.152,0
0.847,11.884,0
0.848,15.18,0
0.849,15.729,0
0.85,17.377,0
0.851,16.096,0
0.852,12.983,0
0.853,12.617,0
0.854,11.518,0
0.855,11.884,0
0.856,13.349,0
0.857,12.067,0
0.858,8.039,0
0.859,1.813,0
0.86,-0.567,0
0.861,0.166,0
0.862,-4.412,0
0.863,-3.863,0
0.864,-5.511,0
0.865,-3.13,0
0.866,-0.933,0
0.867,2.363,0
0.868,5.109,0
0.869,2.546,0
0.87,8.039,0
0.871,19.575,0
0.872,44.477,0
0.873,33.857,0
0.874,-1.849,0
0.875,-25.652,0
0.876,-29.864,0
0.877,-33.709,0
0.878,-30.23,0
0.879,-33.343,0
0.88,-36.272,0
0.881,-28.399,0
0.882,-21.258,0
0.883,-23.455,0
0.884,-13.384,0
0.885,-7.891,0
0.886,0.349,0
0.887,4.743,0
0.888,6.025,0
0.889,7.124,0
0.89,12.8,0
0.891,5.842,0
0.892,10.419,0
0.893,6.391,0
0.894,4.194,0
0.895,4.743,0
0.896,5.292,0
0.897,5.842,0
0.898,8.222,0
0.899,7.856,0
0.9,5.109,0
0.901,3.278,0
0.902,4.377,0
0.903,2.363,0
0.904,3.645,0
0.905,6.025,0
0.906,2.729,0
0.907,7.856,0
0.908,7.307,0
0.909,9.138,0
0.91,5.292,0
0.911,4.926,0
0.912,-0.201,0
0.913,0.349,0
0.914,2.18,0
0.915,-0.567,0
0.916,-2.947,0
0.917,-1.666,0
0.918,-2.032,0
0.919,-3.13,0
0.92,2.546,0
0.921,14.997,0
0.922,35.139,0
0.923,43.012,0
0.924,40.632,0
0.925,47.224,0
0.926,33.125,0
0.927,5.659,0
0.928,-37.737,0
0.929,-54.949,0
0.93,-60.076,0
0.931,-55.315,0
0.932,-42.498,0
0.933,-38.653,0
0.934,-35.174,0
0.935,-25.652,0
0.936,-16.863,0
0.937,-14.3,0
0.938,-7.159,0
0.939,-0.567,0
0.94,1.447,0
0.941,3.278,0
0.942,4.926,0
0.943,6.391,0
0.944,15.913,0
0.945,12.434,0
0.946,13.532,0
0.947,12.617,0
0.948,17.194,0
0.949,13.166,0
0.95,13.898,0
0.951,7.673,0
0.952,6.94,0
0.953,9.138,0
0.954,8.588,0
0.955,5.476,0
0.956,4.926,0
0.957,3.645,0
0.958,3.278,0
0.959,2.912,0
0.96,7.124,0
0.961,5.476,0
0.962,12.067,0
0.963,11.152,0
0.964,10.419,0
0.965,0.349,0
0.966,-3.68,0
0.967,-4.778,0
0.968,-3.68,0
0.969,0.898,0
0.97,3.828,0
0.971,14.082,0
0.972,34.589,0
0.973,25.8,0
0.974,1.63,0
0.975,4.743,0
0.976,31.477,0
0.977,49.238,0
0.978,39.716,0
0.979,1.081,0
0.98,-35.54,0
0.981,-40.301,0
0.982,-44.512,0
0.983,-40.667,0
0.984,-44.146,0
0.985,-34.625,0
0.986,-31.695,0
0.987,-23.821,0
0.988,-21.441,0
0.989,-14.849,0
0.99,-8.807,0
0.991,-3.313,0
0.992,-1.666,0
0.993,2.729,0
0.994,6.757,0
0.995,7.856,0
0.996,11.152,0
0.997,14.082,0
0.998,20.49,0
0.999,24.519,0
1,26.716,0
1.001,24.885,0
1.002,34.406,0
1.003,35.688,0
1.004,36.787,0
1.005,37.885,0
1.006,32.941,0
1.007,26.533,0
1.008,20.856,0
1.009,17.011,0
1.01,13.715,0
1.011,4.194,0
1.012,-10.821,0
1.013,-20.892,0
1.014,-30.047,0
1.015,-41.583,0
1.016,-45.977,0
1.017,-44.695,0
1.018,-33.526,0
1.019,-26.019,0
1.02,-24.737,0
1.021,-20.708,0
1.022,-29.131,0
1.023,-25.835,0
1.024,-24.92,0
1.025,-29.498,0
1.026,-41.949,0
1.027,-69.415,0
1.028,-128.56,0
1.029,-170.85,0
1.03,-178.54,0
1.031,-157.67,0
1.032,-151.45,0
1.033,-122.7,0
1.034,-96.514,0
1.035,-24.92,0
1.036,88.056,0
1.037,133.1,0
1.038,173.93,0
1.039,161.48,0
1.04,127.79,0
1.041,117.54,0
1.042,89.521,0
1.043,81.098,0
1.044,73.408,0
1.045,66.45,0
1.046,85.31,0
1.047,114.06,0
1.048,119.18,0
1.049,133.47,0
1.05,129.25,0
1.051,125.41,0
1.052,114.79,0
1.053,117.9,0
1.054,109.11,0
1.055,101.24,0
1.056,79.267,0
1.057,64.436,0
1.058,56.562,0
1.059,44.477,0
1.06,42.28,0
1.061,32.209,0
1.062,15.729,0
1.063,4.743,0
1.064,-5.328,0
1.065,-18.145,0
1.066,-26.385,0
1.067,-30.779,0
1.068,-32.061,0
1.069,-43.23,0
1.07,-47.625,0
1.071,-50.372,0
1.072,-54.4,0
1.073,-38.287,0
1.074,-27.3,0
1.075,-5.145,0
1.076,9.687,0
1.077,-25.286,0
1.078,-77.837,0
1.079,-98.711,0
1.08,-104.94,0
1.081,-99.261,0
1.082,-104.39,0
1.083,-90.105,0
1.084,-85.894,0
1.085,-74.175,0
1.086,-70.696,0
1.087,-54.583,0
1.088,-51.653,0
1.089,-38.287,0
1.09,-31.146,0
1.091,-28.948,0
1.092,-22.906,0
1.093,-21.075,0
1.094,-16.131,0
1.095,-11.736,0
1.096,-7.708,0
1.097,-11.187,0
1.098,-7.891,0
1.099,-6.976,0
1.1,-7.891,0
1.101,-2.215,0
1.102,3.095,0
1.103,4.926,0
1.104,8.039,0
1.105,4.194,0
1.106,11.701,0
1.107,14.997,0
1.108,12.067,0
1.109,12.983,0
1.11,13.715,0
1.111,12.983,0
1.112,17.561,0
1.113,9.321,0
1.114,8.222,0
1.115,9.138,0
1.116,8.222,0
1.117,8.955,0
1.118,9.687,0
1.119,6.391,0
1.12,10.786,0
1.121,8.039,0
1.122,6.025,0
1.123,6.391,0
1.124,13.349,0
1.125,28.547,0
1.126,52.9,0
1.127,69.013,0
1.128,54.182,0
1.129,19.208,0
1.13,-14.117,0
1.131,-26.934,0
1.132,-30.779,0
1.133,-34.258,0
1.134,-31.146,0
1.135,-22.356,0
1.136,-19.793,0
1.137,-12.652,0
1.138,-10.455,0
1.139,-8.44,0
1.14,-6.609,0
1.141,-1.666,0
1.142,-0.201,0
1.143,3.828,0
1.144,4.926,0
1.145,8.222,0
1.146,5.292,0
1.147,6.208,0
1.148,8.588,0
1.149,9.321,0
1.15,6.025,0
1.151,6.574,0
1.152,8.222,0
1.153,7.856,0
1.154,13.898,0
1.155,11.518,0
1.156,7.673,0
1.157,13.898,0
1.158,11.518,0
1.159,6.208,0
1.16,8.039,0
1.161,8.588,0
1.162,9.138,0
1.163,5.842,0
1.164,6.208,0
1.165,5.842,0
1.166,9.321,0
1.167,2.363,0
1.168,-0.567,0
1.169,0.349,0
1.17,-2.032,0
1.171,0.166,0
1.172,-3.13,0
1.173,-4.961,0
1.174,0.715,0
1.175,12.25,0
1.176,27.265,0
1.177,45.393,0
1.178,47.773,0
1.179,58.759,0
1.18,36.604,0
1.181,-2.032,0
1.182,-28.216,0
1.183,-42.498,0
1.184,-46.709,0
1.185,-42.864,0
1.186,-39.385,0
1.187,-36.272,0
1.188,-27.483,0
1.189,-19.61,0
1.19,-12.469,0
1.191,-5.877,0
1.192,-3.863,0
1.193,1.63,0
1.194,3.278,0
1.195,7.673,0
1.196,3.645,0
1.197,2.546,0
1.198,3.645,0
1.199,2.729,0
1.2,7.307,0
1.201,3.278,0
1.202,8.588,0
1.203,9.138,0
1.204,4.743,0
1.205,4.194,0
1.206,4.56,0
1.207,8.771,0
1.208,2.546,0
1.209,0.166,0
1.21,2.363,0
1.211,4.194,0
1.212,8.588,0
1.213,5.842,0
1.214,6.208,0
1.215,7.49,0
1.216,7.856,0
1.217,13.532,0
1.218,22.688,0
1.219,19.208,0
1.22,2.18,0
1.221,-14.666,0
1.222,-12.469,0
1.223,-10.455,0
1.224,-11.553,0
1.225,-13.384,0
1.226,-5.145,0
1.227,17.377,0
1.228,26.899,0
1.229,47.59,0
1.23,55.463,0
1.231,23.786,0
1.232,-23.821,0
1.233,-42.681,0
1.234,-48.357,0
1.235,-43.23,0
1.236,-38.47,0
1.237,-34.258,0
1.238,-30.413,0
1.239,-19.793,0
1.24,-16.68,0
1.241,-13.75,0
1.242,-11.187,0
1.243,-4.046,0
1.244,-1.849,0
1.245,0.166,0
1.246,1.997,0
1.247,3.645,0
1.248,5.109,0
1.249,11.884,0
1.25,10.786,0
1.251,7.49,0
1.252,10.419,0
1.253,9.504,0
1.254,10.236,0
1.255,9.504,0
1.256,11.335,0
1.257,9.504,0
1.258,6.757,0
1.259,3.461,0
1.26,8.588,0
1.261,6.757,0
1.262,7.307,0
1.263,2.18,0
1.264,2.729,0
1.265,0.898,0
1.266,2.546,0
1.267,-0.75,0
1.268,0.532,0
1.269,0.898,0
1.27,3.461,0
1.271,7.49,0
1.272,4.194,0
1.273,2.912,0
1.274,8.405,0
1.275,3.828,0
1.276,3.095,0
1.277,13.349,0
1.278,29.829,0
1.279,58.576,0
1.28,54.731,0
1.281,22.504,0
1.282,-16.497,0
1.283,-32.061,0
1.284,-36.822,0
1.285,-32.61,0
1.286,-28.765,0
1.287,-25.286,0
1.288,-28.399,0
1.289,-19.61,0
1.29,-11.736,0
1.291,-9.356,0
1.292,-7.159,0
1.293,-1.116,0
1.294,0.715,0
1.295,-0.933,0
1.296,0.532,0
1.297,1.813,0
1.298,0.715,0
1.299,1.813,0
1.3,0.898,0
1.301,1.813,0
1.302,2.546,0
1.303,1.813,0
1.304,3.645,0
1.305,4.194,0
1.306,5.842,0
1.307,3.461,0
1.308,7.673,0
1.309,7.124,0
1.31,4.743,0
1.311,2.546,0
1.312,2.18,0
1.313,6.391,0
1.314,2.546,0
1.315,-0.75,0
1.316,-0.384,0
1.317,-2.398,0
1.318,0.166,0
1.319,-3.13,0
1.32,-0.384,0
1.321,-3.863,0
1.322,2.18,0
1.323,2.912,0
1.324,3.645,0
1.325,3.095,0
1.326,-1.299,0
1.327,0.532,0
1.328,8.955,0
1.329,25.068,0
1.33,45.026,0
1.331,58.393,0
1.332,31.66,0
1.333,-7.708,0
1.334,-33.892,0
1.335,-38.653,0
1.336,-34.441,0
1.337,-30.596,0
1.338,-34.075,0
1.339,-24.554,0
1.34,-21.624,0
1.341,-19.061,0
1.342,-11.919,0
1.343,-9.722,0
1.344,-7.708,0
1.345,-5.877,0
1.346,2.363,0
1.347,6.757,0
1.348,5.476,0
1.349,4.377,0
1.35,10.053,0
1.351,7.124,0
1.352,2.546,0
1.353,6.574,0
1.354,8.771,0
1.355,8.222,0
1.356,8.771,0
1.357,4.926,0
1.358,8.222,0
1.359,5.109,0
1.36,2.363,0
1.361,2.729,0
1.362,5.292,0
1.363,3.278,0
1.364,5.842,0
1.365,3.278,0
1.366,3.095,0
1.367,-1.116,0
1.368,0.715,0
1.369,-0.933,0
1.37,1.447,0
1.371,-3.68,0
1.372,-0.384,0
1.373,-0.933,0
1.374,-2.581,0
1.375,-1.299,0
1.376,0.898,0
1.377,1.63,0
1.378,1.997,0
1.379,7.673,0
1.38,20.124,0
1.381,18.293,0
1.382,33.308,0
1.383,35.322,0
1.384,37.153,0
1.385,32.209,0
1.386,21.772,0
1.387,14.997,0
1.388,6.574,0
1.389,-1.299,0
1.39,7.856,0
1.391,-10.638,0
1.392,-45.611,0
1.393,-69.415,0
1.394,-73.626,0
1.395,-61.907,0
1.396,-58.428,0
1.397,-48.907,0
1.398,-40.118,0
1.399,-32.244,0
1.4,-20.159,0
1.401,-17.962,0
1.402,-11.919,0
1.403,0.898,0
1.404,2.546,0
1.405,12.983,0
1.406,11.701,0
1.407,10.603,0
1.408,18.476,0
1.409,21.406,0
1.41,20.49,0
1.411,18.11,0
1.412,15.913,0
1.413,12.617,0
1.414,15.729,0
1.415,15.18,0
1.416,17.561,0
1.417,14.448,0
1.418,12.434,0
1.419,14.265,0
1.42,13.166,0
1.421,8.588,0
1.422,9.138,0
1.423,8.588,0
1.424,6.94,0
1.425,8.222,0
1.426,5.109,0
1.427,2.363,0
1.428,3.828,0
1.429,1.264,0
1.43,6.757,0
1.431,18.293,0
1.432,43.195,0
1.433,46.674,0
1.434,56.196,0
1.435,23.603,0
1.436,-15.398,0
1.437,-30.962,0
1.438,-35.723,0
1.439,-39.935,0
1.44,-36.089,0
1.441,-32.61,0
1.442,-29.498,0
1.443,-20.708,0
1.444,-18.145,0
1.445,-15.765,0
1.446,-13.567,0
1.447,-15.582,0
1.448,-6.426,0
1.449,-1.482,0
1.45,-0.018,0
1.451,1.264,0
1.452,2.363,0
1.453,5.659,0
1.454,8.588,0
1.455,11.335,0
1.456,10.603,0
1.457,8.405,0
1.458,8.955,0
1.459,10.786,0
1.46,6.94,0
1.461,7.307,0
1.462,6.025,0
1.463,12.25,0
1.464,26.167,0
1.465,12.067,0
1.466,-4.412,0
1.467,-11.004,0
1.468,-13.018,0
1.469,-14.849,0
1.47,-9.905,0
1.471,-5.511,0
1.472,-4.229,0
1.473,-3.13,0
1.474,-4.229,0
1.475,0.715,0
1.476,-3.863,0
1.477,-1.482,0
1.478,-0.75,0
1.479,-2.764,0
1.48,-0.933,0
1.481,8.588,0
1.482,18.11,0
1.483,36.604,0
1.484,55.28,0
1.485,38.435,0
1.486,5.292,0
1.487,-28.033,0
1.488,-32.244,0
1.489,-28.399,0
1.49,-31.878,0
1.491,-28.765,0
1.492,-31.695,0
1.493,-29.131,0
1.494,-26.751,0
1.495,-15.765,0
1.496,-13.75,0
1.497,-4.595,0
1.498,0.349,0
1.499,-1.116,0
1.5,-5.145,0
1.501,0.898,0
1.502,11.152,0
1.503,17.927,0
1.504,19.025,0
1.505,20.124,0
1.506,25.068,0
1.507,25.983,0
1.508,21.955,0
1.509,13.532,0
1.51,5.659,0
1.511,0.715,0
1.512,-3.863,0
1.513,-3.13,0
1.514,-5.328,0
1.515,-2.032,0
1.516,-5.145,0
1.517,-4.595,0
1.518,-1.299,0
1.519,-1.666,0
1.52,0.349,0
1.521,-0.018,0
1.522,2.546,0
1.523,-1.482,0
1.524,1.264,0
1.525,-0.018,0
1.526,-3.13,0
1.527,-5.145,0
1.528,-2.581,0
1.529,-1.482,0
1.53,-1.299,0
1.531,0.166,0
1.532,4.377,0
1.533,13.898,0
1.534,34.406,0
1.535,55.097,0
1.536,47.224,0
1.537,10.786,0
1.538,-25.835,0
1.539,-30.596,0
1.54,-34.808,0
1.541,-38.653,0
1.542,-35.174,0
1.543,-32.061,0
1.544,-29.131,0
1.545,-26.568,0
1.546,-19.427,0
1.547,-12.835,0
1.548,-10.821,0
1.549,-1.666,0
1.55,-3.313,0
1.551,1.081,0
1.552,5.109,0
1.553,8.588,0
1.554,9.687,0
1.555,6.757,0
1.556,11.335,0
1.557,12.067,0
1.558,8.222,0
1.559,1.997,0
1.56,1.264,0
1.561,-0.933,0
1.562,0.898,0
1.563,6.574,0
1.564,7.307,0
1.565,9.138,0
1.566,7.307,0
1.567,6.757,0
1.568,7.124,0
1.569,12.25,0
1.57,11.701,0
1.571,9.87,0
1.572,8.222,0
1.573,3.645,0
1.574,1.813,0
1.575,2.363,0
1.576,2.729,0
1.577,1.447,0
1.578,2.546,0
1.579,0.715,0
1.58,-0.384,0
1.581,3.095,0
1.582,1.081,0
1.583,5.292,0
1.584,14.814,0
1.585,35.322,0
1.586,50.153,0
1.587,58.027,0
1.588,26.35,0
1.589,-12.652,0
1.59,-28.216,0
1.591,-42.498,0
1.592,-46.709,0
1.593,-42.864,0
1.594,-39.385,0
1.595,-36.272,0
1.596,-27.483,0
1.597,-19.61,0
1.598,-17.229,0
1.599,-15.032,0
1.6,-8.99,0
1.601,-3.497,0
1.602,1.447,0
1.603,2.912,0
1.604,1.63,0
1.605,2.729,0
1.606,1.63,0
1.607,8.588,0
1.608,2.18,0
1.609,4.56,0
1.61,5.292,0
1.611,9.87,0
1.612,6.757,0
1.613,8.405,0
1.614,5.109,0
1.615,8.222,0
1.616,5.476,0
1.617,3.645,0
1.618,5.476,0
1.619,2.18,0
1.62,3.461,0
1.621,3.095,0
1.622,3.461,0
1.623,2.363,0
1.624,6.94,0
1.625,6.391,0
1.626,0.715,0
1.627,2.912,0
1.628,1.081,0
1.629,-0.75,0
1.63,-2.398,0
1.631,-3.68,0
1.632,0.898,0
1.633,-1.299,0
1.634,4.926,0
1.635,17.011,0
1.636,41.914,0
1.637,31.293,0
1.638,47.407,0
1.639,50.336,0
1.64,15.363,0
1.641,-27.667,0
1.642,-44.878,0
1.643,-50.005,0
1.644,-45.245,0
1.645,-41.033,0
1.646,-29.314,0
1.647,-25.835,0
1.648,-22.723,0
1.649,-19.793,0
1.65,-17.229,0
1.651,-10.088,0
1.652,-7.891,0
1.653,-5.877,0
1.654,-0.384,0
1.655,7.856,0
1.656,6.391,0
1.657,7.673,0
1.658,6.574,0
1.659,7.673,0
1.66,6.757,0
1.661,11.335,0
1.662,7.307,0
1.663,8.039,0
1.664,8.588,0
1.665,9.138,0
1.666,7.49,0
1.667,7.856,0
1.668,5.659,0
1.669,5.292,0
1.67,3.461,0
1.671,6.025,0
1.672,7.49,0
1.673,11.701,0
1.674,11.152,0
1.675,8.405,0
1.676,5.109,0
1.677,3.828,0
1.678,2.729,0
1.679,5.292,0
1.68,6.391,0
1.681,9.138,0
1.682,14.082,0
1.683,18.476,0
1.684,20.307,0
1.685,28.547,0
1.686,45.576,0
1.687,62.421,0
1.688,69.013,0
1.689,62.971,0
1.69,39.167,0
1.691,3.461,0
1.692,-29.864,0
1.693,-51.47,0
1.694,-63.189,0
1.695,-66.668,0
1.696,-69.781,0
1.697,-66.851,0
1.698,-69.415,0
1.699,-67.034,0
1.7,-51.653,0
1.701,-45.611,0
1.702,-29.131,0
1.703,-18.145,0
1.704,-24.188,0
1.705,-40.667,0
1.706,-56.048,0
1.707,-62.09,0
1.708,-71.246,0
1.709,-82.781,0
1.71,-81.316,0
1.711,-101.82,0
1.712,-128.56,0
1.713,-132.04,0
1.714,-135.15,0
1.715,-114.46,0
1.716,-74.175,0
1.717,12.434,0
1.718,99.592,0
1.719,133.28,0
1.72,143.54,0
1.721,152.88,0
1.722,127.61,0
1.723,119.92,0
1.724,84.943,0
1.725,78.718,0
1.726,61.506,0
1.727,56.379,0
1.728,70.661,0
1.729,83.479,0
1.73,95.197,0
1.731,98.676,0
1.732,101.79,0
1.733,98.859,0
1.734,95.38,0
1.735,92.817,0
1.736,99.958,0
1.737,102.16,0
1.738,112.23,0
1.739,95.747,0
1.74,80.366,0
1.741,74.323,0
1.742,79.816,0
1.743,68.281,0
1.744,45.759,0
1.745,-2.947,0
1.746,-37.92,0
1.747,-56.78,0
1.748,-62.457,0
1.749,-67.583,0
1.75,-53.301,0
1.751,-49.09,0
1.752,-60.809,0
1.753,-64.288,0
1.754,-61.175,0
1.755,-52.386,0
1.756,-49.822,0
1.757,-47.442,0
1.758,-45.245,0
1.759,-39.202,0
1.76,-48.357,0
1.761,-50.005,0
1.762,-54.4,0
1.763,-53.118,0
1.764,-52.02,0
1.765,-48.724,0
1.766,-45.794,0
1.767,-41.216,0
1.768,-40.484,0
1.769,-35.174,0
1.77,-28.948,0
1.771,-28.216,0
1.772,-24.371,0
1.773,-19.793,0
1.774,-15.398,0
1.775,-13.75,0
1.776,-11.37,0
1.777,-7.159,0
1.778,-9.905,0
1.779,-10.271,0
1.78,-9.905,0
1.781,-7.891,0
1.782,-8.99,0
1.783,-7.159,0
1.784,-2.581,0
1.785,2.363,0
1.786,1.813,0
1.787,11.335,0
1.788,29.096,0
1.789,36.237,0
1.79,42.829,0
1.791,36.787,0
1.792,31.293,0
1.793,39.533,0
1.794,32.026,0
1.795,30.744,0
1.796,12.25,0
1.797,-28.033,0
1.798,-45.245,0
1.799,-50.372,0
1.8,-45.611,0
1.801,-41.399,0
1.802,-37.554,0
1.803,-26.934,0
1.804,-23.821,0
1.805,-8.99,0
1.806,-6.426,0
1.807,0.715,0
1.808,11.701,0
1.809,13.715,0
1.81,11.884,0
1.811,13.532,0
1.812,9.138,0
1.813,13.166,0
1.814,12.067,0
1.815,13.166,0
1.816,16.096,0
1.817,18.842,0
1.818,14.814,0
1.819,15.546,0
1.82,10.969,0
1.821,16.645,0
1.822,17.377,0
1.823,17.927,0
1.824,14.814,0
1.825,13.166,0
1.826,9.87,0
1.827,8.588,0
1.828,8.955,0
1.829,10.786,0
1.83,8.222,0
1.831,7.49,0
1.832,6.208,0
1.833,6.94,0
1.834,4.377,0
1.835,9.138,0
1.836,7.49,0
1.837,3.095,0
1.838,4.743,0
1.839,12.25,0
1.84,29.279,0
1.841,46.125,0
1.842,43.928,0
1.843,53.999,0
1.844,30.195,0
1.845,-12.103,0
1.846,-40.85,0
1.847,-45.977,0
1.848,-50.738,0
1.849,-46.526,0
1.85,-42.681,0
1.851,-32.061,0
1.852,-22.54,0
1.853,-19.61,0
1.854,-11.736,0
1.855,-9.356,0
1.856,-7.159,0
1.857,-5.145,0
1.858,0.349,0
1.859,1.997,0
1.86,3.461,0
1.861,4.743,0
1.862,8.222,0
1.863,9.321,0
1.864,8.405,0
1.865,9.321,0
1.866,11.701,0
1.867,13.898,0
1.868,10.603,0
1.869,7.49,0
1.87,6.94,0
1.871,9.321,0
1.872,7.124,0
1.873,9.87,0
1.874,6.391,0
1.875,4.194,0
1.876,3.095,0
1.877,6.574,0
1.878,1.447,0
1.879,1.997,0
1.88,5.109,0
1.881,4.56,0
1.882,1.264,0
1.883,2.546,0
1.884,0.532,0
1.885,-0.567,0
1.886,-2.398,0
1.887,1.63,0
1.888,1.813,0
1.889,6.025,0
1.89,15.546,0
1.891,36.054,0
1.892,44.843,0
1.893,52.717,0
1.894,30.744,0
1.895,-7.891,0
1.896,-34.075,0
1.897,-48.357,0
1.898,-44.146,0
1.899,-40.301,0
1.9,-36.822,0
1.901,-33.709,0
1.902,-24.92,0
1.903,-22.356,0
1.904,-15.215,0
1.905,-8.624,0
1.906,-6.609,0
1.907,-4.778,0
1.908,3.461,0
1.909,1.997,0
1.91,0.715,0
1.911,4.194,0
1.912,5.292,0
1.913,4.377,0
1.914,1.63,0
1.915,4.011,0
1.916,0.166,0
1.917,6.391,0
1.918,10.419,0
1.919,8.222,0
1.92,12.8,0
1.921,14.631,0
1.922,11.884,0
1.923,12.25,0
1.924,12.617,0
1.925,11.518,0
1.926,6.574,0
1.927,4.743,0
1.928,6.574,0
1.929,4.926,0
1.93,-1.666,0
1.931,-0.75,0
1.932,-1.482,0
1.933,-3.68,0
1.934,-0.384,0
1.935,1.447,0
1.936,0.898,0
1.937,2.18,0
1.938,5.292,0
1.939,3.095,0
1.94,9.321,0
1.941,23.237,0
1.942,29.279,0
1.943,49.421,0
1.944,51.984,0
1.945,20.307,0
1.946,-18.694,0
1.947,-34.258,0
1.948,-39.019,0
1.949,-43.23,0
1.95,-39.385,0
1.951,-35.906,0
1.952,-32.793,0
1.953,-17.962,0
1.954,-4.595,0
1.955,17.377,0
1.956,20.307,0
1.957,1.63,0
1.958,-5.511,0
1.959,-12.103,0
1.96,-10.088,0
1.961,-8.257,0
1.962,-3.313,0
1.963,-1.849,0
1.964,-0.567,0
1.965,2.912,0
1.966,8.588,0
1.967,5.659,0
1.968,2.912,0
1.969,6.94,0
1.97,6.208,0
1.971,9.504,0
1.972,7.673,0
1.973,9.321,0
1.974,8.955,0
1.975,9.321,0
1.976,6.574,0
1.977,6.94,0
1.978,6.574,0
1.979,3.828,0
1.98,4.926,0
1.981,3.828,0
1.982,1.813,0
1.983,1.081,0
1.984,0.898,0
1.985,1.081,0
1.986,4.011,0
1.987,1.447,0
1.988,2.546,0
1.989,2.363,0
1.99,4.377,0
1.991,8.588,0
1.992,18.11,0
1.993,38.618,0
1.994,53.449,0
1.995,13.166,0
1.996,-15.582,0
1.997,-31.146,0
1.998,-26.385,0
1.999,-30.596,0
2,-26.751,0
2.001,-23.272,0
2.002,-20.159,0
2.003,-17.229,0
2.004,-14.666,0
2.005,-12.286,0
2.006,-5.694,0
2.007,-3.68,0
2.008,-1.849,0
2.009,-3.497,0
2.01,-2.032,0
2.011,1.997,0
2.012,5.476,0
2.013,4.377,0
2.014,7.307,0
2.015,4.56,0
2.016,5.292,0
2.017,-1.666,0
2.018,-0.75,0
2.019,1.63,0
2.02,3.828,0
2.021,5.659,0
2.022,7.49,0
2.023,5.842,0
2.024,8.222,0
2.025,5.109,0
2.026,7.124,0
2.027,6.757,0
2.028,8.588,0
2.029,9.321,0
2.03,5.109,0
2.031,1.997,0
2.032,4.743,0
2.033,1.447,0
2.034,1.813,0
2.035,0.715,0
2.036,-0.384,0
2.037,1.447,0
2.038,-0.018,0
2.039,4.194,0
2.04,4.56,0
2.041,-1.116,0
2.042,10.419,0
2.043,21.955,0
2.044,26.35,0
2.045,46.857,0
2.046,49.787,0
2.047,20.307,0
2.048,-23.089,0
2.049,-40.301,0
2.05,-45.428,0
2.051,-40.667,0
2.052,-36.456,0
2.053,-32.61,0
2.054,-29.131,0
2.055,-19.61,0
2.056,-16.68,0
2.057,-14.117,0
2.058,-6.976,0
2.059,-4.778,0
2.06,1.264,0
2.061,-0.567,0
2.062,1.081,0
2.063,2.546,0
2.064,1.264,0
2.065,4.743,0
2.066,3.645,0
2.067,8.588,0
2.068,7.673,0
2.069,6.94,0
2.07,9.138,0
2.071,7.307,0
2.072,11.701,0
2.073,7.856,0
2.074,8.222,0
2.075,5.109,0
2.076,3.095,0
2.077,5.659,0
2.078,6.025,0
2.079,6.208,0
2.08,1.997,0
2.081,1.447,0
2.082,3.095,0
2.083,1.813,0
2.084,-2.398,0
2.085,1.447,0
2.086,-0.933,0
2.087,2.18,0
2.088,-1.666,0
2.089,-0.384,0
2.09,0.898,0
2.091,0.898,0
2.092,-0.201,0
2.093,-2.032,0
2.094,3.461,0
2.095,14.997,0
2.096,39.899,0
2.097,50.52,0
2.098,21.223,0
2.099,-14.3,0
2.1,-38.104,0
2.101,-42.315,0
2.102,-46.16,0
2.103,-35.54,0
2.104,-32.427,0
2.105,-29.498,0
2.106,-21.624,0
2.107,-19.244,0
2.108,-12.652,0
2.109,-6.609,0
2.11,-4.778,0
2.111,-3.13,0
2.112,1.264,0
2.113,-0.018,0
2.114,1.081,0
2.115,4.377,0
2.116,5.292,0
2.117,6.208,0
2.118,3.828,0
2.119,6.025,0
2.12,10.603,0
2.121,11.152,0
2.122,10.603,0
2.123,10.236,0
2.124,8.039,0
2.125,8.405,0
2.126,5.842,0
2.127,1.813,0
2.128,4.194,0
2.129,5.476,0
2.13,2.729,0
2.131,3.095,0
2.132,4.194,0
2.133,4.011,0
2.134,0.898,0
2.135,2.912,0
2.136,-0.567,0
2.137,2.546,0
2.138,2.912,0
2.139,5.476,0
2.14,5.109,0
2.141,4.377,0
2.142,5.292,0
2.143,1.63,0
2.144,9.138,0
2.145,26.167,0
2.146,52.9,0
2.147,56.379,0
2.148,20.673,0
2.149,-12.652,0
2.15,-34.258,0
2.151,-30.413,0
2.152,-33.892,0
2.153,-30.779,0
2.154,-21.99,0
2.155,-24.554,0
2.156,-17.413,0
2.157,-19.61,0
2.158,-13.567,0
2.159,-11.736,0
2.16,-6.792,0
2.161,-2.398,0
2.162,-3.68,0
2.163,-0.201,0
2.164,0.898,0
2.165,1.813,0
2.166,4.56,0
2.167,6.94,0
2.168,6.208,0
2.169,5.659,0
2.17,11.335,0
2.171,7.49,0
2.172,8.039,0
2.173,6.208,0
2.174,5.659,0
2.175,6.94,0
2.176,5.659,0
2.177,3.645,0
2.178,4.011,0
2.179,5.109,0
2.18,4.377,0
2.181,2.546,0
2.182,1.813,0
2.183,2.363,0
2.184,3.828,0
2.185,5.109,0
2.186,2.363,0
2.187,1.264,0
2.188,0.166,0
2.189,1.63,0
2.19,-1.482,0
2.191,1.264,0
2.192,-1.299,0
2.193,4.56,0
2.194,0.532,0
2.195,1.813,0
2.196,-2.398,0
2.197,-2.947,0
2.198,-1.666,0
2.199,-0.384,0
2.2,5.842,0
2.201,19.758,0
2.202,13.715,0
2.203,-2.764,0
2.204,8.222,0
2.205,34.406,0
2.206,52.167,0
2.207,42.646,0
2.208,4.011,0
2.209,-32.61,0
2.21,-46.893,0
2.211,-51.104,0
2.212,-39.385,0
2.213,-42.864,0
2.214,-33.343,0
2.215,-30.413,0
2.216,-22.54,0
2.217,-15.398,0
2.218,-8.807,0
2.219,-2.764,0
2.22,2.729,0
2.221,1.081,0
2.222,2.546,0
2.223,6.574,0
2.224,7.673,0
2.225,8.771,0
2.226,11.701,0
2.227,7.124,0
2.228,9.504,0
2.229,10.236,0
2.23,8.405,0
2.231,10.236,0
2.232,6.391,0
2.233,3.095,0
2.234,4.377,0
2.235,7.124,0
2.236,6.025,0
2.237,9.321,0
2.238,13.166,0
2.239,9.87,0
2.24,8.588,0
2.241,9.687,0
2.242,7.124,0
2.243,5.292,0
2.244,-1.299,0
2.245,-0.567,0
2.246,3.645,0
2.247,13.166,0
2.248,33.674,0
2.249,30.744,0
2.25,28.181,0
2.251,25.8,0
2.252,23.603,0
2.253,17.561,0
2.254,12.067,0
2.255,3.828,0
2.256,-0.567,0
2.257,14.448,0
2.258,0.349,0
2.259,-27.117,0
2.26,-62.64,0
2.261,-67.4,0
2.262,-71.612,0
2.263,-59.893,0
2.264,-56.414,0
2.265,-46.893,0
2.266,-32.061,0
2.267,-24.188,0
2.268,-17.046,0
2.269,-6.06,0
2.27,4.011,0
2.271,5.842,0
2.272,10.786,0
2.273,15.18,0
2.274,16.462,0
2.275,12.983,0
2.276,16.279,0
2.277,13.349,0
2.278,16.096,0
2.279,18.476,0
2.28,17.744,0
2.281,19.575,0
2.282,15.18,0
2.283,11.335,0
2.284,13.715,0
2.285,11.518,0
2.286,13.532,0
2.287,11.701,0
2.288,10.603,0
2.289,13.898,0
2.29,13.532,0
2.291,8.955,0
2.292,12.067,0
2.293,3.645,0
2.294,-2.398,0
2.295,-2.764,0
2.296,-1.666,0
2.297,9.504,0
2.298,25.983,0
2.299,41.364,0
2.3,43.378,0
2.301,59.858,0
2.302,35.505,0
2.303,-0.201,0
2.304,-33.526,0
2.305,-37.737,0
2.306,-33.892,0
2.307,-37.371,0
2.308,-40.484,0
2.309,-37.554,0
2.31,-29.681,0
2.311,-22.54,0
2.312,-11.553,0
2.313,-5.511,0
2.314,-7.342,0
2.315,-5.694,0
2.316,-1.299,0
2.317,-0.018,0
2.318,3.461,0
2.319,4.56,0
2.32,9.504,0
2.321,14.082,0
2.322,14.814,0
2.323,15.546,0
2.324,12.25,0
2.325,7.856,0
2.326,6.208,0
2.327,5.842,0
2.328,3.645,0
2.329,4.743,0
2.33,4.377,0
2.331,6.208,0
2.332,6.025,0
2.333,1.813,0
2.334,2.363,0
2.335,5.109,0
2.336,2.729,0
2.337,4.011,0
2.338,1.997,0
2.339,2.363,0
2.34,0.532,0
2.341,1.264,0
2.342,-2.947,0
2.343,-2.398,0
2.344,-0.75,0
2.345,-4.046,0
2.346,-4.961,0
2.347,-4.595,0
2.348,1.63,0
2.349,15.546,0
2.35,45.759,0
2.351,49.97,0
2.352,22.504,0
2.353,-2.398,0
2.354,-24.92,0
2.355,-39.751,0
2.356,-37.188,0
2.357,-30.047,0
2.358,-32.244,0
2.359,-30.23,0
2.36,-24.737,0
2.361,-23.089,0
2.362,-15.582,0
2.363,-11.553,0
2.364,-10.455,0
2.365,-2.581,0
2.366,-1.666,0
2.367,-0.75,0
2.368,-0.018,0
2.369,2.18,0
2.37,6.757,0
2.371,7.307,0
2.372,5.659,0
2.373,6.94,0
2.374,5.659,0
2.375,1.813,0
2.376,6.391,0
2.377,3.278,0
2.378,4.926,0
2.379,4.56,0
2.38,7.673,0
2.381,3.828,0
2.382,2.546,0
2.383,1.264,0
2.384,4.011,0
2.385,0.532,0
2.386,4.743,0
2.387,4.194,0
2.388,3.828,0
2.389,4.194,0
2.39,6.208,0
2.391,5.109,0
2.392,5.476,0
2.393,1.447,0
2.394,-2.398,0
2.395,-2.032,0
2.396,-1.666,0
2.397,-1.299,0
2.398,-2.398,0
2.399,3.278,0
2.4,15.729,0
2.401,43.195,0
2.402,47.041,0
2.403,57.661,0
2.404,41.547,0
2.405,-2.947,0
2.406,-34.625,0
2.407,-40.301,0
2.408,-45.428,0
2.409,-40.667,0
2.41,-36.456,0
2.411,-24.737,0
2.412,-21.258,0
2.413,-11.736,0
2.414,-2.947,0
2.415,4.926,0
2.416,7.307,0
2.417,13.898,0
2.418,19.941,0
2.419,29.096,0
2.42,30.744,0
2.421,26.35,0
2.422,27.631,0
2.423,24.152,0
2.424,18.476,0
2.425,17.561,0
2.426,3.645,0
2.427,-10.455,0
2.428,-15.948,0
2.429,-27.483,0
2.43,-31.878,0
2.431,-38.653,0
2.432,-32.61,0
2.433,-24.737,0
2.434,-13.567,0
2.435,-17.962,0
2.436,-38.47,0
2.437,-53.301,0
2.438,-66.668,0
2.439,-88.641,0
2.44,-103.47,0
2.441,-116.84,0
2.442,-128.92,0
2.443,-144.31,0
2.444,-154.38,0
2.445,-148.88,0
2.446,-123.98,0
2.447,-91.753,0
2.448,-57.696,0
2.449,-1.299,0
2.45,83.479,0
2.451,139.88,0
2.452,191.15,0
2.453,200.48,0
2.454,192.06,0
2.455,153.61,0
2.456,118.64,0
2.457,86.958,0
2.458,81.281,0
2.459,107.47,0
2.46,121.75,0
2.461,134.56,0
2.462,146.28,0
2.463,142.81,0
2.464,133.28,0
2.465,112.59,0
2.466,110.03,0
2.467,102.89,0
2.468,82.929,0
2.469,58.759,0
2.47,42.646,0
2.471,33.857,0
2.472,36.42,0
2.473,29.279,0
2.474,18.293,0
2.475,4.194,0
2.476,-4.961,0
2.477,-13.201,0
2.478,-20.708,0
2.479,-30.23,0
2.48,-33.709,0
2.481,-32.61,0
2.482,-47.808,0
2.483,-54.4,0
2.484,-56.414,0
2.485,-54.583,0
2.486,-56.231,0
2.487,-54.766,0
2.488,-53.484,0
2.489,-56.963,0
2.49,-60.259,0
2.491,-65.203,0
2.492,-67.95,0
2.493,-67.217,0
2.494,-67.95,0
2.495,-67.4,0
2.496,-66.851,0
2.497,-59.527,0
2.498,-50.372,0
2.499,-49.639,0
2.5,-41.216,0
2.501,-24.188,0
2.502,-12.103,0
2.503,7.856,0
2.504,32.026,0
2.505,22.504,0
2.506,-16.131,0
2.507,-42.315,0
2.508,-56.597,0
2.509,-52.386,0
2.51,-48.541,0
2.511,-37.92,0
2.512,-28.399,0
2.513,-25.469,0
2.514,-22.906,0
2.515,-15.765,0
2.516,-13.567,0
2.517,-3.497,0
2.518,1.997,0
2.519,3.645,0
2.52,8.039,0
2.521,12.067,0
2.522,13.166,0
2.523,18.842,0
2.524,13.898,0
2.525,12.983,0
2.526,7.307,0
2.527,8.039,0
2.528,8.588,0
2.529,11.701,0
2.53,11.152,0
2.531,11.518,0
2.532,13.715,0
2.533,12.617,0
2.534,18.293,0
2.535,17.561,0
2.536,16.828,0
2.537,18.659,0
2.538,16.828,0
2.539,10.603,0
2.54,12.983,0
2.541,9.138,0
2.542,9.687,0
2.543,7.856,0
2.544,8.405,0
2.545,6.025,0
2.546,6.391,0
2.547,5.292,0
2.548,6.391,0
2.549,3.095,0
2.55,6.757,0
2.551,7.856,0
2.552,13.532,0
2.553,25.983,0
2.554,53.449,0
2.555,57.294,0
2.556,17.927,0
2.557,-8.257,0
2.558,-22.54,0
2.559,-35.357,0
2.56,-23.638,0
2.561,-27.117,0
2.562,-17.596,0
2.563,-20.525,0
2.564,-17.962,0
2.565,-10.821,0
2.566,-8.624,0
2.567,-6.609,0
2.568,-1.116,0
2.569,-2.764,0
2.57,4.743,0
2.571,8.771,0
2.572,5.292,0
2.573,8.588,0
2.574,9.504,0
2.575,8.588,0
2.576,6.208,0
2.577,6.94,0
2.578,10.236,0
2.579,3.278,0
2.58,2.363,0
2.581,3.095,0
2.582,0.898,0
2.583,2.729,0
2.584,0.898,0
2.585,4.743,0
2.586,-0.75,0
2.587,6.208,0
2.588,-0.201,0
2.589,3.828,0
2.59,1.63,0
2.591,1.081,0
2.592,-2.032,0
2.593,0.715,0
2.594,3.095,0
2.595,-0.018,0
2.596,1.997,0
2.597,-0.567,0
2.598,-1.666,0
2.599,1.081,0
2.6,-2.398,0
2.601,1.63,0
2.602,3.828,0
2.603,10.053,0
2.604,23.969,0
2.605,50.153,0
2.606,60.773,0
2.607,31.477,0
2.608,4.011,0
2.609,-28.216,0
2.61,-41.033,0
2.611,-37.188,0
2.612,-33.709,0
2.613,-36.822,0
2.614,-28.033,0
2.615,-25.469,0
2.616,-18.328,0
2.617,-16.131,0
2.618,-10.088,0
2.619,-8.257,0
2.62,-6.609,0
2.621,-2.215,0
2.622,1.813,0
2.623,2.912,0
2.624,4.011,0
2.625,4.926,0
2.626,2.18,0
2.627,2.912,0
2.628,2.18,0
2.629,4.011,0
2.63,5.842,0
2.631,5.292,0
2.632,2.912,0
2.633,5.109,0
2.634,7.124,0
2.635,2.18,0
2.636,8.405,0
2.637,6.025,0
2.638,5.292,0
2.639,5.842,0
2.64,6.391,0
2.641,6.94,0
2.642,3.645,0
2.643,2.363,0
2.644,-0.384,0
2.645,2.18,0
2.646,0.349,0
2.647,2.363,0
2.648,0.532,0
2.649,-1.849,0
2.65,-0.384,0
2.651,-2.947,0
2.652,0.898,0
2.653,-0.201,0
2.654,4.377,0
2.655,14.631,0
2.656,37.153,0
2.657,59.675,0
2.658,27.082,0
2.659,-3.13,0
2.66,-30.596,0
2.661,-34.075,0
2.662,-37.188,0
2.663,-34.258,0
2.664,-31.695,0
2.665,-29.314,0
2.666,-22.723,0
2.667,-16.68,0
2.668,-11.187,0
2.669,-6.243,0
2.67,-1.849,0
2.671,-3.13,0
2.672,-4.229,0
2.673,1.447,0
2.674,4.377,0
2.675,8.955,0
2.676,9.687,0
2.677,8.955,0
2.678,4.377,0
2.679,1.264,0
2.68,2.912,0
2.681,3.278,0
2.682,2.912,0
2.683,4.926,0
2.684,8.405,0
2.685,7.124,0
2.686,6.757,0
2.687,7.856,0
2.688,4.56,0
2.689,8.405,0
2.69,10.786,0
2.691,17.744,0
2.692,30.927,0
2.693,7.124,0
2.694,-2.398,0
2.695,-11.187,0
2.696,-13.75,0
2.697,-11.37,0
2.698,-13.567,0
2.699,-7.525,0
2.7,-9.356,0
2.701,-4.412,0
2.702,-0.018,0
2.703,3.095,0
2.704,1.813,0
2.705,12.983,0
2.706,29.462,0
2.707,49.421,0
2.708,57.294,0
2.709,30.561,0
2.71,-1.666,0
2.711,-31.878,0
2.712,-35.723,0
2.713,-32.244,0
2.714,-29.131,0
2.715,-32.061,0
2.716,-24.188,0
2.717,-17.046,0
2.718,-14.849,0
2.719,-8.807,0
2.72,-3.313,0
2.721,-4.961,0
2.722,-3.497,0
2.723,0.532,0
2.724,-2.947,0
2.725,-1.849,0
2.726,3.095,0
2.727,5.842,0
2.728,3.461,0
2.729,7.307,0
2.73,7.856,0
2.731,8.405,0
2.732,6.757,0
2.733,7.124,0
2.734,12.25,0
2.735,7.673,0
2.736,8.222,0
2.737,6.574,0
2.738,5.292,0
2.739,7.49,0
2.74,4.743,0
2.741,2.18,0
2.742,3.278,0
2.743,7.307,0
2.744,-0.018,0
2.745,0.898,0
2.746,3.645,0
2.747,1.264,0
2.748,-0.933,0
2.749,-1.482,0
2.75,-2.032,0
2.751,1.813,0
2.752,4.194,0
2.753,1.081,0
2.754,4.56,0
2.755,5.659,0
2.756,11.335,0
2.757,17.011,0
2.758,28.547,0
2.759,40.083,0
2.76,41.547,0
2.761,34.772,0
2.762,43.195,0
2.763,26.167,0
2.764,-10.271,0
2.765,-46.893,0
2.766,-51.653,0
2.767,-55.865,0
2.768,-44.146,0
2.769,-40.667,0
2.77,-31.146,0
2.771,-22.356,0
2.772,-19.793,0
2.773,-12.652,0
2.774,-14.849,0
2.775,-8.807,0
2.776,-3.313,0
2.777,-1.666,0
2.778,-3.13,0
2.779,0.898,0
2.78,4.377,0
2.781,5.476,0
2.782,6.391,0
2.783,9.138,0
2.784,9.87,0
2.785,10.603,0
2.786,13.898,0
2.787,12.067,0
2.788,14.814,0
2.789,16.096,0
2.79,13.898,0
2.791,13.532,0
2.792,7.856,0
2.793,7.124,0
2.794,3.278,0
2.795,2.729,0
2.796,0.898,0
2.797,2.546,0
2.798,1.264,0
2.799,-0.018,0
2.8,2.729,0
2.801,2.363,0
2.802,-0.201,0
2.803,0.532,0
2.804,-2.581,0
2.805,0.166,0
2.806,1.264,0
2.807,6.94,0
2.808,19.392,0
2.809,39.533,0
2.81,58.21,0
2.811,41.364,0
2.812,8.222,0
2.813,-25.103,0
2.814,-37.92,0
2.815,-41.766,0
2.816,-31.146,0
2.817,-34.258,0
2.818,-25.469,0
2.819,-22.906,0
2.82,-15.765,0
2.821,-17.962,0
2.822,-11.919,0
2.823,-10.088,0
2.824,-8.44,0
2.825,-0.933,0
2.826,0.349,0
2.827,6.391,0
2.828,5.292,0
2.829,2.363,0
2.83,5.109,0
2.831,5.842,0
2.832,1.997,0
2.833,2.546,0
2.834,6.94,0
2.835,7.49,0
2.836,8.771,0
2.837,7.49,0
2.838,11.335,0
2.839,6.757,0
2.84,4.926,0
2.841,-0.201,0
2.842,3.095,0
2.843,3.645,0
2.844,3.095,0
2.845,2.729,0
2.846,3.095,0
2.847,4.194,0
2.848,-0.018,0
2.849,0.532,0
2.85,0.166,0
2.851,0.532,0
2.852,1.63,0
2.853,3.461,0
2.854,5.292,0
2.855,0.715,0
2.856,3.095,0
2.857,-0.201,0
2.858,5.476,0
2.859,17.011,0
2.86,41.914,0
2.861,52.534,0
2.862,55.646,0
2.863,17.011,0
2.864,-19.61,0
2.865,-33.892,0
2.866,-38.104,0
2.867,-41.949,0
2.868,-38.47,0
2.869,-35.357,0
2.87,-26.568,0
2.871,-18.694,0
2.872,-11.553,0
2.873,-9.356,0
2.874,-11.37,0
2.875,-5.877,0
2.876,-0.933,0
2.877,0.532,0
2.878,-0.75,0
2.879,2.729,0
2.88,3.828,0
2.881,4.743,0
2.882,7.49,0
2.883,6.757,0
2.884,7.49,0
2.885,8.039,0
2.886,6.208,0
2.887,10.053,0
2.888,11.335,0
2.889,8.222,0
2.89,3.645,0
2.891,1.813,0
2.892,5.659,0
2.893,6.94,0
2.894,3.828,0
2.895,2.729,0
2.896,3.095,0
2.897,7.856,0
2.898,2.18,0
2.899,1.447,0
2.9,-0.384,0
2.901,1.447,0
2.902,-0.201,0
2.903,7.307,0
2.904,6.208,0
2.905,7.124,0
2.906,4.377,0
2.907,1.63,0
2.908,0.898,0
2.909,3.095,0
2.91,13.349,0
2.911,35.871,0
2.912,38.984,0
2.913,53.815,0
2.914,35.139,0
2.915,-1.299,0
2.916,-37.92,0
2.917,-42.681,0
2.918,-38.47,0
2.919,-42.315,0
2.92,-38.836,0
2.921,-29.314,0
2.922,-32.244,0
2.923,-24.371,0
2.924,-17.229,0
2.925,-10.638,0
2.926,-4.595,0
2.927,-6.426,0
2.928,1.813,0
2.929,0.349,0
2.93,4.377,0
2.931,5.476,0
2.932,8.771,0
2.933,7.856,0
2.934,12.434,0
2.935,10.053,0
2.936,18.476,0
2.937,35.505,0
2.938,37.885,0
2.939,13.532,0
2.94,-2.581,0
2.941,-5.511,0
2.942,-8.074,0
2.943,-10.455,0
2.944,-8.257,0
2.945,-2.215,0
2.946,-4.046,0
2.947,-2.398,0
2.948,-0.933,0
2.949,-2.215,0
2.95,-1.116,0
2.951,-0.018,0
2.952,-2.947,0
2.953,1.63,0
2.954,0.898,0
2.955,6.208,0
2.956,5.659,0
2.957,6.208,0
2.958,6.025,0
2.959,6.574,0
2.96,14.082,0
2.961,31.11,0
2.962,57.844,0
2.963,61.323,0
2.964,25.617,0
2.965,-7.708,0
2.966,-29.314,0
2.967,-33.16,0
2.968,-29.681,0
2.969,-32.793,0
2.97,-24.004,0
2.971,-21.441,0
2.972,-19.061,0
2.973,-12.469,0
2.974,-10.455,0
2.975,-8.624,0
2.976,-0.384,0
2.977,1.081,0
2.978,-2.947,0
2.979,0.532,0
2.98,1.63,0
2.981,2.546,0
2.982,3.461,0
2.983,7.49,0
2.984,6.757,0
2.985,10.053,0
2.986,5.659,0
2.987,4.011,0
2.988,8.588,0
2.989,8.039,0
2.99,8.588,0
2.991,7.307,0
2.992,4.194,0
2.993,2.18,0
2.994,1.813,0
2.995,2.18,0
2.996,1.447,0
2.997,0.166,0
2.998,3.095,0
2.999,-2.581,0
3,1.447,0
3.001,-2.398,0
3.002,-1.849,0
3.003,1.264,0
3.004,1.813,0
3.005,0.532,0
3.006,-1.666,0
3.007,0.349,0
3.008,0.715,0
3.009,1.63,0
3.01,-0.201,0
3.011,4.377,0
3.012,14.631,0
3.013,37.153,0
3.014,59.675,0
3.015,50.886,0
3.016,10.603,0
3.017,-29.681,0
3.018,-34.808,0
3.019,-30.047,0
3.02,-34.258,0
3.021,-30.413,0
3.022,-26.934,0
3.023,-30.047,0
3.024,-21.258,0
3.025,-13.384,0
3.026,-11.004,0
3.027,-8.807,0
3.028,-6.792,0
3.029,-4.961,0
3.03,-0.018,0
3.031,1.447,0
3.032,5.476,0
3.033,1.997,0
3.034,5.292,0
3.035,6.208,0
3.036,7.124,0
3.037,11.152,0
3.038,13.349,0
3.039,11.518,0
3.04,7.124,0
3.041,4.377,0
3.042,6.757,0
3.043,7.124,0
3.044,4.377,0
3.045,2.546,0
3.046,2.18,0
3.047,4.194,0
3.048,1.081,0
3.049,4.926,0
3.05,3.645,0
3.051,0.532,0
3.052,0.898,0
3.053,-0.933,0
3.054,1.63,0
3.055,2.363,0
3.056,3.095,0
3.057,5.476,0
3.058,5.292,0
3.059,1.081,0
3.06,-2.764,0
3.061,1.63,0
3.062,10.053,0
3.063,28.547,0
3.064,47.224,0
3.065,64.069,0
3.066,44.111,0
3.067,9.138,0
3.068,-24.188,0
3.069,-37.005,0
3.07,-40.85,0
3.071,-44.329,0
3.072,-41.216,0
3.073,-32.427,0
3.074,-29.864,0
3.075,-17.779,0
3.076,-11.187,0
3.077,-5.145,0
3.078,-3.313,0
3.079,1.63,0
3.08,0.166,0
3.081,4.194,0
3.082,5.292,0
3.083,-0.384,0
3.084,6.574,0
3.085,7.49,0
3.086,9.87,0
3.087,12.067,0
3.088,8.771,0
3.089,8.222,0
3.09,12.067,0
3.091,7.49,0
3.092,8.039,0
3.093,7.49,0
3.094,7.124,0
3.095,6.757,0
3.096,7.856,0
3.097,8.955,0
3.098,7.856,0
3.099,8.039,0
3.1,3.828,0
3.101,-3.13,0
3.102,1.447,0
3.103,-0.933,0
3.104,-4.778,0
3.105,-0.201,0
3.106,0.349,0
3.107,0.898,0
3.108,0.532,0
3.109,-3.68,0
3.11,-6.426,0
3.111,-2.764,0
3.112,-0.384,0
3.113,6.574,0
3.114,21.772,0
3.115,46.125,0
3.116,43.012,0
3.117,63.703,0
3.118,28.73,0
3.119,-4.595,0
3.12,-34.808,0
3.121,-46.526,0
3.122,-43.047,0
3.123,-39.935,0
3.124,-37.005,0
3.125,-34.441,0
3.126,-22.356,0
3.127,-20.159,0
3.128,-14.117,0
3.129,-12.286,0
3.13,-7.342,0
3.131,-5.877,0
3.132,-4.595,0
3.133,-1.116,0
3.134,2.18,0
3.135,-0.75,0
3.136,7.673,0
3.137,8.771,0
3.138,11.701,0
3.139,8.955,0
3.14,8.222,0
3.141,8.955,0
3.142,9.504,0
3.143,10.053,0
3.144,9.504,0
3.145,8.222,0
3.146,10.419,0
3.147,11.518,0
3.148,5.842,0
3.149,5.109,0
3.15,5.842,0
3.151,5.292,0
3.152,3.461,0
3.153,6.208,0
3.154,4.926,0
3.155,4.56,0
3.156,4.926,0
3.157,5.292,0
3.158,3.461,0
3.159,-0.567,0
3.16,-0.018,0
3.161,1.264,0
3.162,-1.299,0
3.163,-0.933,0
3.164,5.292,0
3.165,19.208,0
3.166,45.393,0
3.167,48.872,0
3.168,32.758,0
3.169,0.166,0
3.17,-21.441,0
3.171,-33.16,0
3.172,-36.639,0
3.173,-33.526,0
3.174,-30.596,0
3.175,-28.033,0
3.176,-20.892,0
3.177,-18.694,0
3.178,-16.68,0
3.179,-11.187,0
3.18,-9.539,0
3.181,-5.145,0
3.182,7.124,0
3.183,32.026,0
3.184,28.547,0
3.185,6.025,0
3.186,3.095,0
3.187,0.532,0
3.188,2.912,0
3.189,5.109,0
3.19,7.124,0
3.191,16.279,0
3.192,21.223,0
3.193,25.617,0
3.194,26.899,0
3.195,27.998,0
3.196,26.899,0
3.197,21.955,0
3.198,15.546,0
3.199,9.87,0
3.2,13.715,0
3.201,3.461,0
3.202,-13.018,0
3.203,-24.004,0
3.204,-30.047,0
3.205,-35.54,0
3.206,-37.188,0
3.207,-29.681,0
3.208,-22.906,0
3.209,-16.863,0
3.21,-20.159,0
3.211,-35.357,0
3.212,-59.71,0
3.213,-70.147,0
3.214,-99.444,0
3.215,-95.599,0
3.216,-84.979,0
3.217,-62.457,0
3.218,-83.147,0
3.219,-123.43,0
3.22,-163.71,0
3.221,-158.59,0
3.222,-153.83,0
3.223,-132.22,0
3.224,-80.95,0
3.225,10.236,0
3.226,72.492,0
3.227,128.89,0
3.228,139.14,0
3.229,148.48,0
3.23,123.21,0
3.231,115.52,0
3.232,108.56,0
3.233,114.79,0
3.234,120.47,0
3.235,146.65,0
3.236,160.93,0
3.237,173.75,0
3.238,169.9,0
3.239,166.43,0
3.24,143.9,0
3.241,129.07,0
3.242,126.51,0
3.243,114.42,0
3.244,90.07,0
3.245,60.773,0
3.246,49.055,0
3.247,31.293,0
3.248,34.406,0
3.249,25.617,0
3.25,17.744,0
3.251,0.898,0
3.252,-5.694,0
3.253,-15.765,0
3.254,-24.92,0
3.255,-33.16,0
3.256,-28.765,0
3.257,-41.033,0
3.258,-52.569,0
3.259,-56.963,0
3.26,-55.682,0
3.261,-56.78,0
3.262,-60.076,0
3.263,-59.161,0
3.264,-57.696,0
3.265,-62.273,0
3.266,-49.822,0
3.267,-37.005,0
3.268,-25.469,0
3.269,-2.947,0
3.27,-32.244,0
3.271,-59.71,0
3.272,-91.937,0
3.273,-96.148,0
3.274,-92.303,0
3.275,-88.824,0
3.276,-79.302,0
3.277,-70.513,0
3.278,-62.64,0
3.279,-50.555,0
3.28,-43.963,0
3.281,-33.892,0
3.282,-28.399,0
3.283,-23.455,0
3.284,-15.948,0
3.285,-9.173,0
3.286,-5.694,0
3.287,2.18,0
3.288,3.095,0
3.289,5.842,0
3.29,6.574,0
3.291,7.307,0
3.292,9.138,0
3.293,10.969,0
3.294,8.222,0
3.295,8.588,0
3.296,8.955,0
3.297,10.053,0
3.298,11.152,0
3.299,11.518,0
3.3,13.532,0
3.301,9.87,0
3.302,10.236,0
3.303,11.518,0
3.304,12.617,0
3.305,10.053,0
3.306,13.349,0
3.307,11.335,0
3.308,7.856,0
3.309,13.898,0
3.31,13.166,0
3.311,12.434,0
3.312,9.138,0
3.313,9.687,0
3.314,8.039,0
3.315,5.292,0
3.316,6.574,0
3.317,13.532,0
3.318,28.73,0
3.319,53.083,0
3.32,62.604,0
3.321,53.815,0
3.322,13.532,0
3.323,-15.215,0
3.324,-30.779,0
3.325,-35.54,0
3.326,-31.329,0
3.327,-27.483,0
3.328,-24.004,0
3.329,-20.892,0
3.33,-17.962,0
3.331,-10.088,0
3.332,-2.947,0
3.333,-5.145,0
3.334,0.898,0
3.335,10.053,0
3.336,11.701,0
3.337,7.307,0
3.338,8.588,0
3.339,9.687,0
3.34,6.391,0
3.341,7.307,0
3.342,11.884,0
3.343,7.856,0
3.344,5.659,0
3.345,5.109,0
3.346,1.997,0
3.347,3.645,0
3.348,4.926,0
3.349,3.645,0
3.35,3.278,0
3.351,5.842,0
3.352,7.673,0
3.353,5.659,0
3.354,5.842,0
3.355,6.574,0
3.356,3.095,0
3.357,5.476,0
3.358,2.363,0
3.359,3.461,0
3.36,-0.018,0
3.361,1.264,0
3.362,1.63,0
3.363,1.997,0
3.364,0.898,0
3.365,1.63,0
3.366,-0.567,0
3.367,2.546,0
3.368,8.771,0
3.369,22.688,0
3.37,52.9,0
3.371,57.111,0
3.372,53.266,0
3.373,21.04,0
3.374,-17.962,0
3.375,-33.526,0
3.376,-38.287,0
3.377,-34.075,0
3.378,-37.92,0
3.379,-34.441,0
3.38,-24.92,0
3.381,-21.99,0
3.382,-19.427,0
3.383,-17.046,0
3.384,-6.06,0
3.385,-0.018,0
3.386,1.813,0
3.387,6.757,0
3.388,8.222,0
3.389,6.94,0
3.39,3.461,0
3.391,4.56,0
3.392,1.63,0
3.393,4.377,0
3.394,3.645,0
3.395,4.377,0
3.396,2.546,0
3.397,3.095,0
3.398,6.94,0
3.399,7.307,0
3.4,4.194,0
3.401,6.94,0
3.402,5.109,0
3.403,7.673,0
3.404,4.377,0
3.405,4.011,0
3.406,1.264,0
3.407,1.63,0
3.408,3.461,0
3.409,0.166,0
3.41,1.447,0
3.411,-0.567,0
3.412,-2.398,0
3.413,-2.032,0
3.414,-1.299,0
3.415,-0.018,0
3.416,0.715,0
3.417,-2.764,0
3.418,0.715,0
3.419,3.095,0
3.42,2.729,0
3.421,2.363,0
3.422,-0.201,0
3.423,1.63,0
3.424,-2.947,0
3.425,-1.116,0
3.426,-5.511,0
3.427,-2.764,0
3.428,4.743,0
3.429,21.772,0
3.43,9.687,0
3.431,-5.694,0
3.432,4.377,0
3.433,28.181,0
3.434,50.703,0
3.435,41.914,0
3.436,1.63,0
3.437,-27.117,0
3.438,-42.681,0
3.439,-37.92,0
3.44,-42.132,0
3.441,-30.413,0
3.442,-33.892,0
3.443,-24.371,0
3.444,-21.441,0
3.445,-13.567,0
3.446,-11.187,0
3.447,-8.99,0
3.448,-2.947,0
3.449,-1.116,0
3.45,3.828,0
3.451,2.363,0
3.452,9.138,0
3.453,10.236,0
3.454,9.138,0
3.455,12.067,0
3.456,9.321,0
3.457,10.053,0
3.458,10.786,0
3.459,8.955,0
3.46,7.124,0
3.461,10.969,0
3.462,9.687,0
3.463,6.574,0
3.464,5.476,0
3.465,3.645,0
3.466,4.743,0
3.467,6.757,0
3.468,8.222,0
3.469,6.94,0
3.47,10.969,0
3.471,19.392,0
3.472,37.885,0
3.473,56.562,0
3.474,54.182,0
3.475,21.04,0
3.476,-21.99,0
3.477,-39.202,0
3.478,-44.329,0
3.479,-39.568,0
3.48,-35.357,0
3.481,-31.512,0
3.482,-28.033,0
3.483,-18.511,0
3.484,-15.582,0
3.485,-7.708,0
3.486,-10.088,0
3.487,-3.497,0
3.488,-1.482,0
3.489,0.349,0
3.49,-1.299,0
3.491,6.208,0
3.492,4.926,0
3.493,3.828,0
3.494,7.124,0
3.495,4.194,0
3.496,5.109,0
3.497,7.49,0
3.498,5.292,0
3.499,5.842,0
3.5,5.292,0
3.501,5.842,0
3.502,8.222,0
3.503,6.025,0
3.504,4.926,0
3.505,4.56,0
3.506,7.124,0
3.507,5.109,0
3.508,0.898,0
3.509,1.447,0
3.51,-0.201,0
3.511,1.081,0
3.512,-1.116,0
3.513,-0.018,0
3.514,0.349,0
3.515,-2.947,0
3.516,2.546,0
3.517,-1.299,0
3.518,3.278,0
3.519,4.56,0
3.52,2.729,0
3.521,11.152,0
3.522,29.646,0
3.523,48.322,0
3.524,65.168,0
3.525,32.026,0
3.526,-11.004,0
3.527,-28.216,0
3.528,-33.343,0
3.529,-38.104,0
3.53,-33.892,0
3.531,-30.047,0
3.532,-26.568,0
3.533,-17.046,0
3.534,-19.976,0
3.535,-12.103,0
3.536,-9.722,0
3.537,-3.13,0
3.538,-5.145,0
3.539,0.349,0
3.54,-1.299,0
3.541,3.095,0
3.542,4.377,0
3.543,5.476,0
3.544,6.574,0
3.545,3.645,0
3.546,6.391,0
3.547,4.011,0
3.548,12.434,0
3.549,11.335,0
3.55,6.391,0
3.551,7.307,0
3.552,6.574,0
3.553,8.771,0
3.554,5.476,0
3.555,3.645,0
3.556,4.194,0
3.557,-0.384,0
3.558,0.166,0
3.559,-2.581,0
3.56,1.997,0
3.561,-1.116,0
3.562,-1.666,0
3.563,0.715,0
3.564,3.828,0
3.565,-0.018,0
3.566,2.363,0
3.567,1.997,0
3.568,3.095,0
3.569,1.997,0
3.57,0.166,0
3.571,2.729,0
3.572,4.743,0
3.573,8.955,0
3.574,18.476,0
3.575,38.984,0
3.576,53.815,0
3.577,24.335,0
3.578,-19.061,0
3.579,-36.272,0
3.58,-41.399,0
3.581,-36.639,0
3.582,-40.85,0
3.583,-29.131,0
3.584,-25.652,0
3.585,-22.54,0
3.586,-13.75,0
3.587,-16.314,0
3.588,-9.173,0
3.589,-6.976,0
3.59,-0.933,0
3.591,-2.764,0
3.592,2.18,0
3.593,3.645,0
3.594,2.363,0
3.595,3.461,0
3.596,6.757,0
3.597,3.828,0
3.598,2.912,0
3.599,3.645,0
3.6,5.842,0
3.601,7.673,0
3.602,9.504,0
3.603,12.25,0
3.604,8.955,0
3.605,9.321,0
3.606,6.574,0
3.607,4.743,0
3.608,4.377,0
3.609,5.842,0
3.61,3.278,0
3.611,1.447,0
3.612,2.912,0
3.613,2.18,0
3.614,1.447,0
3.615,-2.032,0
3.616,1.264,0
3.617,-0.933,0
3.618,1.813,0
3.619,0.715,0
3.62,5.476,0
3.621,4.56,0
3.622,5.109,0
3.623,7.856,0
3.624,15.363,0
3.625,32.392,0
3.626,59.125,0
3.627,26.899,0
3.628,-3.313,0
3.629,-30.779,0
3.63,-34.258,0
3.631,-37.371,0
3.632,-28.582,0
3.633,-31.146,0
3.634,-24.004,0
3.635,-21.807,0
3.636,-15.765,0
3.637,-10.271,0
3.638,-8.624,0
3.639,-4.229,0
3.64,-2.947,0
3.641,-1.849,0
3.642,-0.75,0
3.643,2.18,0
3.644,-0.567,0
3.645,1.813,0
3.646,2.546,0
3.647,1.997,0
3.648,3.828,0
3.649,6.574,0
3.65,9.87,0
3.651,7.673,0
3.652,7.307,0
3.653,6.94,0
3.654,7.307,0
3.655,7.49,0
3.656,5.659,0
3.657,4.377,0
3.658,5.842,0
3.659,2.546,0
3.66,2.912,0
3.661,1.813,0
3.662,3.645,0
3.663,4.011,0
3.664,2.546,0
3.665,-1.666,0
3.666,1.447,0
3.667,1.997,0
3.668,3.278,0
3.669,1.997,0
3.67,0.898,0
3.671,-0.201,0
3.672,0.166,0
3.673,2.729,0
3.674,7.307,0
3.675,17.561,0
3.676,4.011,0
3.677,5.842,0
3.678,27.448,0
3.679,30.378,0
3.68,27.814,0
3.681,10.969,0
3.682,-17.779,0
3.683,-37.371,0
3.684,-47.991,0
3.685,-44.878,0
3.686,-36.089,0
3.687,-33.526,0
3.688,-26.385,0
3.689,-24.188,0
3.69,-18.145,0
3.691,-12.652,0
3.692,-11.004,0
3.693,-3.497,0
3.694,-2.215,0
3.695,-1.116,0
3.696,-0.018,0
3.697,9.138,0
3.698,5.659,0
3.699,4.56,0
3.7,7.49,0
3.701,8.405,0
3.702,7.673,0
3.703,9.87,0
3.704,13.166,0
3.705,11.335,0
3.706,6.208,0
3.707,8.039,0
3.708,6.208,0
3.709,6.757,0
3.71,7.124,0
3.711,4.011,0
3.712,1.997,0
3.713,3.095,0
3.714,3.461,0
3.715,2.729,0
3.716,4.56,0
3.717,5.292,0
3.718,3.828,0
3.719,1.447,0
3.72,5.476,0
3.721,1.63,0
3.722,4.926,0
3.723,2.363,0
3.724,0.166,0
3.725,6.391,0
3.726,20.307,0
3.727,42.463,0
3.728,57.294,0
3.729,49.421,0
3.73,12.983,0
3.731,-23.638,0
3.732,-37.92,0
3.733,-42.132,0
3.734,-38.287,0
3.735,-34.808,0
3.736,-25.286,0
3.737,-22.356,0
3.738,-19.793,0
3.739,-17.413,0
3.74,-10.821,0
3.741,-8.807,0
3.742,-3.313,0
3.743,-4.961,0
3.744,-3.497,0
3.745,-2.215,0
3.746,-1.116,0
3.747,2.18,0
3.748,3.095,0
3.749,7.673,0
3.75,8.405,0
3.751,6.208,0
3.752,5.659,0
3.753,6.208,0
3.754,5.659,0
3.755,4.377,0
3.756,2.18,0
3.757,2.546,0
3.758,8.222,0
3.759,7.49,0
3.76,9.687,0
3.761,7.856,0
3.762,4.743,0
3.763,6.391,0
3.764,5.109,0
3.765,9.321,0
3.766,8.771,0
3.767,6.391,0
3.768,4.194,0
3.769,3.828,0
3.77,4.194,0
3.771,0.166,0
3.772,-1.116,0
3.773,-2.398,0
3.774,-3.497,0
3.775,-2.398,0
3.776,3.278,0
3.777,15.729,0
3.778,43.195,0
3.779,47.041,0
3.78,50.52,0
3.781,14.814,0
3.782,-28.216,0
3.783,-33.892,0
3.784,-39.019,0
3.785,-43.78,0
3.786,-30.962,0
3.787,-27.117,0
3.788,-23.638,0
3.789,-20.525,0
3.79,-17.596,0
3.791,-9.722,0
3.792,-12.103,0
3.793,-5.511,0
3.794,0.532,0
3.795,2.363,0
3.796,4.011,0
3.797,2.546,0
3.798,1.264,0
3.799,4.743,0
3.8,3.645,0
3.801,6.574,0
3.802,5.659,0
3.803,6.391,0
3.804,10.236,0
3.805,12.067,0
3.806,10.236,0
3.807,4.011,0
3.808,3.278,0
3.809,5.476,0
3.81,7.307,0
3.811,2.912,0
3.812,2.363,0
3.813,8.955,0
3.814,8.039,0
3.815,4.011,0
3.816,1.813,0
3.817,1.264,0
3.818,4.377,0
3.819,7.124,0
3.82,5.842,0
3.821,4.56,0
3.822,4.926,0
3.823,0.715,0
3.824,2.363,0
3.825,-1.299,0
3.826,-4.595,0
3.827,2.363,0
3.828,13.532,0
3.829,36.054,0
3.83,58.576,0
3.831,25.983,0
3.832,-13.018,0
3.833,-28.582,0
3.834,-33.343,0
3.835,-37.554,0
3.836,-33.709,0
3.837,-23.089,0
3.838,-19.976,0
3.839,-22.906,0
3.84,-15.032,0
3.841,-12.652,0
3.842,-10.455,0
3.843,-8.44,0
3.844,-6.609,0
3.845,-8.257,0
3.846,-3.863,0
3.847,0.166,0
3.848,1.264,0
3.849,4.56,0
3.85,3.645,0
3.851,6.391,0
3.852,10.419,0
3.853,9.687,0
3.854,7.856,0
3.855,12.25,0
3.856,8.405,0
3.857,8.039,0
3.858,5.842,0
3.859,5.476,0
3.86,2.912,0
3.861,4.011,0
3.862,2.546,0
3.863,0.715,0
3.864,-1.116,0
3.865,-0.567,0
3.866,0.898,0
3.867,2.18,0
3.868,2.363,0
3.869,4.377,0
3.87,6.94,0
3.871,6.757,0
3.872,5.476,0
3.873,8.955,0
3.874,3.828,0
3.875,4.377,0
3.876,-0.567,0
3.877,-0.018,0
3.878,7.307,0
3.879,22.504,0
3.88,55.646,0
3.881,50.886,0
3.882,20.673,0
3.883,-14.849,0
3.884,-19.61,0
3.885,-23.821,0
3.886,-27.667,0
3.887,-24.188,0
3.888,-21.075,0
3.889,-18.145,0
3.89,-20.708,0
3.891,-13.567,0
3.892,-6.976,0
3.893,-0.933,0
3.894,-2.764,0
3.895,-1.116,0
3.896,-2.581,0
3.897,-1.299,0
3.898,-0.201,0
3.899,-1.299,0
3.9,3.645,0
3.901,4.56,0
3.902,5.292,0
3.903,9.138,0
3.904,8.588,0
3.905,8.039,0
3.906,6.391,0
3.907,1.813,0
3.908,-0.018,0
3.909,2.729,0
3.91,3.095,0
3.911,3.461,0
3.912,3.095,0
3.913,0.532,0
3.914,3.095,0
3.915,-1.482,0
3.916,-3.313,0
3.917,2.363,0
3.918,6.208,0
3.919,16.462,0
3.92,32.941,0
3.921,30.744,0
3.922,4.56,0
3.923,-6.06,0
3.924,-9.173,0
3.925,-12.103,0
3.926,-14.666,0
3.927,-11.553,0
3.928,-9.173,0
3.929,-2.581,0
3.93,27.631,0
3.931,49.238,0
3.932,53.083,0
3.933,20.856,0
3.934,-9.356,0
3.935,-28.948,0
3.936,-32.427,0
3.937,-29.314,0
3.938,-26.385,0
3.939,-23.821,0
3.94,-21.441,0
3.941,-19.244,0
3.942,-13.201,0
3.943,-7.708,0
3.944,-6.06,0
3.945,-1.666,0
3.946,-2.947,0
3.947,-4.046,0
3.948,-0.75,0
3.949,6.208,0
3.95,5.292,0
3.951,7.673,0
3.952,9.87,0
3.953,8.039,0
3.954,8.588,0
3.955,11.335,0
3.956,10.053,0
3.957,4.926,0
3.958,3.095,0
3.959,4.926,0
3.96,1.081,0
3.961,2.363,0
3.962,1.997,0
3.963,2.363,0
3.964,4.926,0
3.965,6.757,0
3.966,8.222,0
3.967,8.405,0
3.968,5.476,0
3.969,5.842,0
3.97,3.278,0
3.971,3.095,0
3.972,3.828,0
3.973,3.095,0
3.974,1.63,0
3.975,2.18,0
3.976,-0.018,0
3.977,0.166,0
3.978,0.166,0
3.979,-0.567,0
3.98,2.912,0
3.981,10.419,0
3.982,27.448,0
3.983,54.182,0
3.984,50.703,0
3.985,34.589,0
3.986,7.856,0
3.987,-9.905,0
3.988,-13.018,0
3.989,-15.948,0
3.99,-23.821,0
3.991,-21.441,0
3.992,-19.244,0
3.993,-17.229,0
3.994,-15.398,0
3.995,-17.046,0
3.996,-24.554,0
3.997,-28.582,0
3.998,-32.061,0
3.999,-35.357,0
4,-42.315,0
4.001,-37.737,0
4.002,-32.061,0
4.003,-20.525,0
4.004,-15.582,0
4.005,-17.046,0
4.006,-29.314,0
4.007,-47.625,0
4.008,-64.471,0
4.009,-75.457,0
4.01,-89.556,0
4.011,-109.7,0
4.012,-123.06,0
4.013,-120.68,0
4.014,-136.06,0
4.015,-121.97,0
4.016,-112.81,0
4.017,-97.796,0
4.018,-71.612,0
4.019,-17.962,0
4.02,82.197,0
4.021,150.5,0
4.022,162.95,0
4.023,174.12,0
4.024,143.35,0
4.025,115.34,0
4.026,106.92,0
4.027,83.845,0
4.028,90.803,0
4.029,72.675,0
4.03,91.535,0
4.031,120.28,0
4.032,146.47,0
4.033,179.79,0
4.034,184,0
4.035,140.61,0
4.036,100.32,0
4.037,74.14,0
4.038,69.379,0
4.039,65.168,0
4.04,45.576,0
4.041,20.673,0
4.042,4.56,0
4.043,7.49,0
4.044,10.053,0
4.045,17.194,0
4.046,10.603,0
4.047,-3.497,0
4.048,-12.652,0
4.049,-20.892,0
4.05,-22.356,0
4.051,-29.131,0
4.052,-23.089,0
4.053,-30.962,0
4.054,-42.132,0
4.055,-43.597,0
4.056,-47.625,0
4.057,-48.724,0
4.058,-45.428,0
4.059,-48.357,0
4.06,-51.104,0
4.061,-50.372,0
4.062,-55.682,0
4.063,-55.132,0
4.064,-60.809,0
4.065,-60.076,0
4.066,-58.245,0
4.067,-58.794,0
4.068,-53.667,0
4.069,-49.09,0
4.07,-43.414,0
4.071,-39.568,0
4.072,-36.272,0
4.073,-31.878,0
4.074,-30.23,0
4.075,-29.864,0
4.076,-24.737,0
4.077,-21.441,0
4.078,-18.328,0
4.079,-15.582,0
4.08,-13.75,0
4.081,-13.384,0
4.082,-6.426,0
4.083,8.771,0
4.084,41.914,0
4.085,56.196,0
4.086,51.984,0
4.087,16.462,0
4.088,-26.568,0
4.089,-32.244,0
4.09,-37.371,0
4.091,-42.132,0
4.092,-29.314,0
4.093,-25.469,0
4.094,-21.99,0
4.095,-18.877,0
4.096,-10.088,0
4.097,-7.525,0
4.098,-0.384,0
4.099,6.208,0
4.1,8.222,0
4.101,6.391,0
4.102,11.335,0
4.103,15.729,0
4.104,14.448,0
4.105,15.546,0
4.106,16.645,0
4.107,15.729,0
4.108,16.645,0
4.109,20.673,0
4.11,16.828,0
4.111,12.25,0
4.112,9.138,0
4.113,8.588,0
4.114,8.222,0
4.115,8.588,0
4.116,8.222,0
4.117,9.321,0
4.118,7.49,0
4.119,6.757,0
4.12,9.87,0
4.121,14.448,0
4.122,11.335,0
4.123,10.786,0
4.124,6.208,0
4.125,6.757,0
4.126,6.208,0
4.127,4.926,0
4.128,4.56,0
4.129,4.926,0
4.13,-0.018,0
4.131,3.095,0
4.132,3.645,0
4.133,13.166,0
4.134,33.674,0
4.135,48.505,0
4.136,51.069,0
4.137,43.928,0
4.138,23.969,0
4.139,-11.004,0
4.14,-34.808,0
4.141,-39.019,0
4.142,-42.864,0
4.143,-46.343,0
4.144,-36.822,0
4.145,-33.892,0
4.146,-26.019,0
4.147,-23.638,0
4.148,-17.046,0
4.149,-11.004,0
4.15,-1.849,0
4.151,-0.201,0
4.152,1.264,0
4.153,5.292,0
4.154,6.391,0
4.155,9.687,0
4.156,10.603,0
4.157,7.856,0
4.158,10.236,0
4.159,6.391,0
4.16,6.94,0
4.161,8.771,0
4.162,7.124,0
4.163,8.405,0
4.164,7.124,0
4.165,13.349,0
4.166,27.265,0
4.167,29.279,0
4.168,5.476,0
4.169,2.363,0
4.17,-6.426,0
4.171,-8.99,0
4.172,-6.609,0
4.173,-4.412,0
4.174,-10.455,0
4.175,-4.961,0
4.176,-6.609,0
4.177,-2.215,0
4.178,-0.933,0
4.179,0.166,0
4.18,-0.933,0
4.181,-1.849,0
4.182,-0.567,0
4.183,0.349,0
4.184,6.025,0
4.185,17.561,0
4.186,42.463,0
4.187,53.083,0
4.188,62.604,0
4.189,30.012,0
4.19,-17.596,0
4.191,-36.456,0
4.192,-42.132,0
4.193,-47.259,0
4.194,-42.498,0
4.195,-38.287,0
4.196,-26.568,0
4.197,-23.089,0
4.198,-19.976,0
4.199,-11.187,0
4.2,-3.313,0
4.201,-5.694,0
4.202,-3.497,0
4.203,2.546,0
4.204,4.377,0
4.205,6.025,0
4.206,4.56,0
4.207,5.842,0
4.208,4.743,0
4.209,5.842,0
4.21,8.771,0
4.211,6.025,0
4.212,6.757,0
4.213,8.955,0
4.214,7.124,0
4.215,6.574,0
4.216,3.828,0
4.217,7.124,0
4.218,8.405,0
4.219,5.659,0
4.22,5.292,0
4.221,3.461,0
4.222,3.278,0
4.223,2.546,0
4.224,0.715,0
4.225,2.18,0
4.226,2.363,0
4.227,-0.567,0
4.228,0.532,0
4.229,2.363,0
4.23,-1.666,0
4.231,1.63,0
4.232,1.997,0
4.233,4.56,0
4.234,5.659,0
4.235,11.335,0
4.236,17.011,0
4.237,27.082,0
4.238,47.59,0
4.239,56.379,0
4.24,26.899,0
4.241,-16.497,0
4.242,-33.709,0
4.243,-38.836,0
4.244,-43.597,0
4.245,-39.385,0
4.246,-35.54,0
4.247,-32.061,0
4.248,-22.54,0
4.249,-19.61,0
4.25,-11.736,0
4.251,-4.595,0
4.252,-2.398,0
4.253,-4.412,0
4.254,1.081,0
4.255,6.025,0
4.256,4.56,0
4.257,5.842,0
4.258,4.743,0
4.259,8.039,0
4.26,8.955,0
4.261,8.039,0
4.262,5.659,0
4.263,7.856,0
4.264,11.152,0
4.265,6.757,0
4.266,9.504,0
4.267,7.124,0
4.268,8.405,0
4.269,6.391,0
4.27,6.025,0
4.271,4.926,0
4.272,6.94,0
4.273,8.222,0
4.274,4.743,0
4.275,2.546,0
4.276,1.447,0
4.277,1.081,0
4.278,-1.482,0
4.279,-1.299,0
4.28,-0.018,0
4.281,-0.75,0
4.282,-2.215,0
4.283,1.081,0
4.284,2.363,0
4.285,0.166,0
4.286,6.391,0
4.287,20.307,0
4.288,50.52,0
4.289,63.337,0
4.29,27.814,0
4.291,-15.215,0
4.292,-32.427,0
4.293,-37.554,0
4.294,-42.315,0
4.295,-38.104,0
4.296,-26.385,0
4.297,-29.864,0
4.298,-20.342,0
4.299,-17.413,0
4.3,-14.849,0
4.301,-7.708,0
4.302,-5.511,0
4.303,-7.525,0
4.304,1.63,0
4.305,-0.018,0
4.306,4.377,0
4.307,5.659,0
4.308,6.757,0
4.309,3.461,0
4.31,4.377,0
4.311,3.461,0
4.312,7.49,0
4.313,5.292,0
4.314,7.124,0
4.315,6.574,0
4.316,7.124,0
4.317,7.49,0
4.318,7.124,0
4.319,6.757,0
4.32,11.701,0
4.321,7.124,0
4.322,4.011,0
4.323,-1.116,0
4.324,-4.412,0
4.325,-4.961,0
4.326,-1.116,0
4.327,-3.497,0
4.328,-1.299,0
4.329,1.447,0
4.33,-0.384,0
4.331,-2.215,0
4.332,-0.201,0
4.333,4.011,0
4.334,4.56,0
4.335,4.56,0
4.336,6.208,0
4.337,13.715,0
4.338,28.547,0
4.339,50.703,0
4.34,65.534,0
4.341,30.561,0
4.342,-2.764,0
4.343,-24.371,0
4.344,-36.089,0
4.345,-32.61,0
4.346,-29.498,0
4.347,-32.427,0
4.348,-29.864,0
4.349,-22.723,0
4.35,-16.131,0
4.351,-10.088,0
4.352,-8.257,0
4.353,-6.609,0
4.354,0.898,0
4.355,2.18,0
4.356,1.081,0
4.357,-2.215,0
4.358,0.715,0
4.359,-0.201,0
4.36,2.18,0
4.361,-0.018,0
4.362,1.813,0
4.363,3.645,0
4.364,3.095,0
4.365,3.461,0
4.366,5.659,0
4.367,5.292,0
4.368,6.391,0
4.369,7.49,0
4.37,6.025,0
4.371,7.307,0
4.372,6.025,0
4.373,3.828,0
4.374,0.715,0
4.375,1.813,0
4.376,0.715,0
4.377,6.208,0
4.378,2.363,0
4.379,0.532,0
4.38,2.363,0
4.381,-1.482,0
4.382,-0.201,0
4.383,1.081,0
4.384,0.715,0
4.385,1.081,0
4.386,6.025,0
4.387,0.532,0
4.388,10.603,0
4.389,25.617,0
4.39,35.688,0
4.391,37.519,0
4.392,29.279,0
4.393,39.716,0
4.394,38.435,0
4.395,19.941,0
4.396,-20.342,0
4.397,-49.09,0
4.398,-54.217,0
4.399,-49.456,0
4.4,-36.639,0
4.401,-32.793,0
4.402,-29.314,0
4.403,-19.793,0
4.404,-16.863,0
4.405,-14.3,0
4.406,-11.919,0
4.407,-9.722,0
4.408,0.349,0
4.409,2.18,0
4.41,7.124,0
4.411,17.561,0
4.412,29.829,0
4.413,21.589,0
4.414,5.109,0
4.415,-1.482,0
4.416,-3.497,0
4.417,-1.666,0
4.418,-0.018,0
4.419,1.447,0
4.42,5.476,0
4.421,1.997,0
4.422,0.898,0
4.423,1.813,0
4.424,-0.933,0
4.425,-0.201,0
4.426,3.645,0
4.427,3.095,0
4.428,3.645,0
4.429,1.997,0
4.43,3.278,0
4.431,5.476,0
4.432,2.729,0
4.433,4.56,0
4.434,7.856,0
4.435,5.842,0
4.436,4.743,0
4.437,4.56,0
4.438,5.659,0
4.439,10.236,0
4.44,20.49,0
4.441,43.012,0
4.442,46.125,0
4.443,60.957,0
4.444,25.983,0
4.445,-17.046,0
4.446,-34.258,0
4.447,-39.385,0
4.448,-44.146,0
4.449,-39.935,0
4.45,-36.089,0
4.451,-25.469,0
4.452,-22.356,0
4.453,-13.567,0
4.454,-11.004,0
4.455,-3.863,0
4.456,-6.06,0
4.457,-4.046,0
4.458,1.447,0
4.459,3.095,0
4.46,7.49,0
4.461,8.771,0
4.462,5.292,0
4.463,4.194,0
4.464,5.109,0
4.465,2.363,0
4.466,6.391,0
4.467,7.124,0
4.468,7.673,0
4.469,8.222,0
4.47,8.771,0
4.471,6.391,0
4.472,8.588,0
4.473,5.842,0
4.474,6.208,0
4.475,2.912,0
4.476,4.926,0
4.477,3.828,0
4.478,4.926,0
4.479,0.898,0
4.48,3.645,0
4.481,3.278,0
4.482,-1.849,0
4.483,2.729,0
4.484,0.898,0
4.485,-1.849,0
4.486,0.532,0
4.487,0.898,0
4.488,2.363,0
4.489,1.264,0
4.49,6.94,0
4.491,19.392,0
4.492,46.857,0
4.493,43.012,0
4.494,3.645,0
4.495,-11.919,0
4.496,-26.202,0
4.497,-30.413,0
4.498,-26.568,0
4.499,-30.047,0
4.5,-20.525,0
4.501,-17.596,0
4.502,-15.032,0
4.503,-12.652,0
4.504,-6.06,0
4.505,-4.046,0
4.506,-5.877,0
4.507,-0.933,0
4.508,-5.328,0
4.509,-1.299,0
4.51,2.18,0
4.511,1.081,0
4.512,0.166,0
4.513,4.743,0
4.514,2.363,0
4.515,3.095,0
4.516,3.645,0
4.517,5.476,0
4.518,7.124,0
4.519,6.757,0
4.52,7.124,0
4.521,8.222,0
4.522,6.391,0
4.523,2.363,0
4.524,1.997,0
4.525,2.363,0
4.526,3.461,0
4.527,2.363,0
4.528,3.461,0
4.529,0.715,0
4.53,1.813,0
4.531,-3.68,0
4.532,-2.947,0
4.533,-4.778,0
4.534,2.18,0
4.535,3.095,0
4.536,2.363,0
4.537,3.095,0
4.538,-1.482,0
4.539,0.166,0
4.54,0.715,0
4.541,9.138,0
4.542,27.631,0
4.543,57.111,0
4.544,53.266,0
4.545,13.898,0
4.546,-12.286,0
4.547,-26.568,0
4.548,-30.779,0
4.549,-26.934,0
4.55,-23.455,0
4.551,-20.342,0
4.552,-17.413,0
4.553,-14.849,0
4.554,-17.229,0
4.555,-10.638,0
4.556,-8.624,0
4.557,-6.792,0
4.558,-1.849,0
4.559,-0.384,0
4.56,0.898,0
4.561,1.997,0
4.562,3.095,0
4.563,4.011,0
4.564,3.095,0
4.565,3.828,0
4.566,6.025,0
4.567,6.574,0
4.568,8.405,0
4.569,4.56,0
4.57,3.278,0
4.571,6.391,0
4.572,7.49,0
4.573,3.278,0
4.574,3.828,0
4.575,2.546,0
4.576,1.264,0
4.577,5.842,0
4.578,-2.398,0
4.579,0.898,0
4.58,1.813,0
4.581,0.898,0
4.582,1.63,0
4.583,2.363,0
4.584,2.912,0
4.585,1.081,0
4.586,4.926,0
4.587,3.645,0
4.588,2.363,0
4.589,-1.482,0
4.59,-2.032,0
4.591,-1.666,0
4.592,5.292,0
4.593,20.49,0
4.594,44.843,0
4.595,60.957,0
4.596,34.223,0
4.597,9.321,0
4.598,18.842,0
4.599,27.631,0
4.6,19.758,0
4.601,-16.68,0
4.602,-42.864,0
4.603,-57.146,0
4.604,-52.935,0
4.605,-49.09,0
4.606,-45.611,0
4.607,-42.498,0
4.608,-33.709,0
4.609,-25.835,0
4.61,-13.75,0
4.611,-15.948,0
4.612,-5.877,0
4.613,-0.384,0
4.614,-2.032,0
4.615,2.363,0
4.616,6.391,0
4.617,9.87,0
4.618,13.166,0
4.619,16.096,0
4.62,17.011,0
4.621,16.279,0
4.622,14.082,0
4.623,12.25,0
4.624,12.8,0
4.625,10.053,0
4.626,8.771,0
4.627,8.405,0
4.628,8.039,0
4.629,6.208,0
4.63,6.574,0
4.631,6.757,0
4.632,4.926,0
4.633,6.208,0
4.634,6.757,0
4.635,6.94,0
4.636,9.87,0
4.637,6.025,0
4.638,4.743,0
4.639,4.377,0
4.64,2.363,0
4.641,2.363,0
4.642,0.532,0
4.643,6.025,0
4.644,17.561,0
4.645,39.167,0
4.646,42.097,0
4.647,49.97,0
4.648,13.532,0
4.649,-12.652,0
4.65,-26.934,0
4.651,-39.751,0
4.652,-43.597,0
4.653,-40.118,0
4.654,-37.005,0
4.655,-34.075,0
4.656,-26.202,0
4.657,0.532,0
4.658,11.152,0
4.659,-4.961,0
4.66,-13.75,0
4.661,-16.314,0
4.662,-13.934,0
4.663,-11.736,0
4.664,-9.722,0
4.665,-7.891,0
4.666,-6.243,0
4.667,-1.849,0
4.668,2.18,0
4.669,8.222,0
4.67,4.926,0
4.671,9.87,0
4.672,12.617,0
4.673,6.94,0
4.674,9.138,0
4.675,4.56,0
4.676,1.447,0
4.677,1.997,0
4.678,2.363,0
4.679,1.081,0
4.68,2.18,0
4.681,1.813,0
4.682,5.109,0
4.683,7.124,0
4.684,12.8,0
4.685,10.419,0
4.686,9.687,0
4.687,7.856,0
4.688,4.743,0
4.689,6.391,0
4.69,3.095,0
4.691,1.813,0
4.692,2.363,0
4.693,2.729,0
4.694,-1.482,0
4.695,6.94,0
4.696,25.434,0
4.697,49.604,0
4.698,52.717,0
4.699,25.983,0
4.7,-6.243,0
4.701,-27.85,0
4.702,-39.568,0
4.703,-36.089,0
4.704,-32.977,0
4.705,-30.047,0
4.706,-22.173,0
4.707,-19.793,0
4.708,-17.596,0
4.709,-15.582,0
4.71,-13.75,0
4.711,-8.807,0
4.712,-4.412,0
4.713,2.363,0
4.714,-1.116,0
4.715,2.18,0
4.716,3.095,0
4.717,5.842,0
4.718,8.222,0
4.719,6.025,0
4.72,7.856,0
4.721,7.307,0
4.722,4.56,0
4.723,2.18,0
4.724,-0.018,0
4.725,1.081,0
4.726,4.56,0
4.727,0.349,0
4.728,3.095,0
4.729,-0.201,0
4.73,1.997,0
4.731,0.898,0
4.732,1.997,0
4.733,0.166,0
4.734,2.18,0
4.735,5.292,0
4.736,4.194,0
4.737,5.292,0
4.738,1.997,0
4.739,-0.018,0
4.74,3.461,0
4.741,0.349,0
4.742,0.715,0
4.743,0.166,0
4.744,1.264,0
4.745,6.757,0
4.746,18.293,0
4.747,43.195,0
4.748,53.815,0
4.749,24.519,0
4.75,-11.004,0
4.751,-25.286,0
4.752,-29.498,0
4.753,-33.343,0
4.754,-29.864,0
4.755,-26.751,0
4.756,-23.821,0
4.757,-21.258,0
4.758,-14.117,0
4.759,-11.919,0
4.76,-9.905,0
4.761,-4.412,0
4.762,-2.764,0
4.763,1.63,0
4.764,2.912,0
4.765,6.391,0
4.766,0.715,0
4.767,1.63,0
4.768,6.208,0
4.769,11.884,0
4.77,8.039,0
4.771,12.617,0
4.772,8.222,0
4.773,4.377,0
4.774,5.659,0
4.775,-0.384,0
4.776,1.997,0
4.777,2.729,0
4.778,4.56,0
4.779,2.729,0
4.78,4.377,0
4.781,4.743,0
4.782,6.025,0
4.783,7.124,0
4.784,6.025,0
4.785,0.532,0
4.786,4.377,0
4.787,1.081,0
4.788,4.194,0
4.789,0.349,0
4.79,-0.933,0
4.791,-0.567,0
4.792,-0.201,0
4.793,-0.567,0
4.794,4.56,0
4.795,7.856,0
4.796,14.082,0
4.797,26.167,0
4.798,51.069,0
4.799,75.971,0
4.8,53.449,0
4.801,20.856,0
4.802,-0.75,0
4.803,-12.469,0
4.804,-15.948,0
4.805,-19.061,0
4.806,-21.99,0
4.807,-19.427,0
4.808,-26.568,0
4.809,-33.16,0
4.81,-39.202,0
4.811,-44.695,0
4.812,-49.639,0
4.813,-48.174,0
4.814,-44.146,0
4.815,-30.596,0
4.816,-14.117,0
4.817,-16.314,0
4.818,-38.47,0
4.819,-59.161,0
4.82,-72.527,0
4.821,-99.261,0
4.822,-109.88,0
4.823,-112.99,0
4.824,-127.83,0
4.825,-152,0
4.826,-155.11,0
4.827,-140.28,0
4.828,-126.91,0
4.829,-110.06,0
4.83,-90.105,0
4.831,-49.822,0
4.832,13.715,0
4.833,90.07,0
4.834,141.34,0
4.835,169.35,0
4.836,160.93,0
4.837,153.24,0
4.838,132.37,0
4.839,126.14,0
4.84,131.82,0
4.841,147.38,0
4.842,161.66,0
4.843,165.88,0
4.844,177.59,0
4.845,186.93,0
4.846,176.31,0
4.847,166.79,0
4.848,163.86,0
4.849,171.74,0
4.85,164.59,0
4.851,131.45,0
4.852,59.858,0
4.853,8.588,0
4.854,-0.75,0
4.855,-9.173,0
4.856,-32.244,0
4.857,-25.286,0
4.858,-44.146,0
4.859,-38.47,0
4.86,-43.597,0
4.861,-48.357,0
4.862,-52.569,0
4.863,-40.85,0
4.864,-51.47,0
4.865,-60.992,0
4.866,-63.921,0
4.867,-61.358,0
4.868,-58.978,0
4.869,-56.78,0
4.87,-54.766,0
4.871,-52.935,0
4.872,-57.879,0
4.873,-59.344,0
4.874,-63.372,0
4.875,-64.471,0
4.876,-63.372,0
4.877,-68.316,0
4.878,-65.569,0
4.879,-59.893,0
4.88,-60.625,0
4.881,-53.118,0
4.882,-48.174,0
4.883,-39.751,0
4.884,-34.075,0
4.885,-29.131,0
4.886,-28.216,0
4.887,-24.188,0
4.888,-18.877,0
4.889,-18.328,0
4.89,-12.652,0
4.891,-11.919,0
4.892,-11.37,0
4.893,-8.257,0
4.894,-5.511,0
4.895,-4.229,0
4.896,-2.032,0
4.897,-3.313,0
4.898,2.912,0
4.899,1.997,0
4.9,2.729,0
4.901,3.461,0
4.902,13.715,0
4.903,33.308,0
4.904,35.871,0
4.905,13.898,0
4.906,5.109,0
4.907,12.983,0
4.908,34.956,0
4.909,32.026,0
4.91,45.393,0
4.911,52.534,0
4.912,19.392,0
4.913,-23.638,0
4.914,-40.85,0
4.915,-45.977,0
4.916,-50.738,0
4.917,-37.92,0
4.918,-34.075,0
4.919,-23.455,0
4.92,-20.342,0
4.921,-5.511,0
4.922,-2.947,0
4.923,-0.567,0
4.924,6.025,0
4.925,12.067,0
4.926,13.898,0
4.927,15.546,0
4.928,17.011,0
4.929,15.729,0
4.93,16.828,0
4.931,17.927,0
4.932,18.842,0
4.933,17.927,0
4.934,18.659,0
4.935,16.462,0
4.936,19.758,0
4.937,12.8,0
4.938,13.715,0
4.939,11.335,0
4.94,13.532,0
4.941,11.701,0
4.942,12.25,0
4.943,10.603,0
4.944,9.321,0
4.945,5.109,0
4.946,5.659,0
4.947,5.292,0
4.948,-0.201,0
4.949,11.335,0
4.95,29.646,0
4.951,36.787,0
4.952,52.167,0
4.953,62.238,0
4.954,34.772,0
4.955,-16.497,0
4.956,-37.371,0
4.957,-43.597,0
4.958,-37.92,0
4.959,-32.793,0
4.96,-37.554,0
4.961,-24.737,0
4.962,-20.892,0
4.963,-17.413,0
4.964,-14.3,0
4.965,-5.511,0
4.966,-2.947,0
4.967,-0.567,0
4.968,1.63,0
4.969,3.645,0
4.97,5.476,0
4.971,7.124,0
4.972,11.518,0
4.973,7.49,0
4.974,6.391,0
4.975,0.715,0
4.976,9.87,0
4.977,3.828,0
4.978,7.124,0
4.979,8.039,0
4.98,5.292,0
4.981,6.025,0
4.982,3.828,0
4.983,7.124,0
4.984,7.673,0
4.985,8.222,0
4.986,9.504,0
4.987,5.292,0
4.988,8.039,0
4.989,3.461,0
4.99,1.63,0
4.991,-1.116,0
4.992,0.166,0
4.993,-1.116,0
4.994,-1.482,0
4.995,-0.384,0
4.996,-1.482,0
4.997,1.813,0
4.998,-0.567,0
4.999,1.63,0
5,2.729,0
5.001,8.405,0
5.002,20.856,0
5.003,48.322,0
5.004,52.167,0
5.005,48.688,0
5.006,12.983,0
5.007,-30.047,0
5.008,-47.259,0
5.009,-52.386,0
5.01,-47.625,0
5.011,-43.414,0
5.012,-39.568,0
5.013,-28.948,0
5.014,-25.835,0
5.015,-17.046,0
5.016,-14.483,0
5.017,-7.342,0
5.018,-5.145,0
5.019,0.898,0
5.02,2.729,0
5.021,7.673,0
5.022,3.278,0
5.023,7.307,0
5.024,6.208,0
5.025,7.307,0
5.026,8.222,0
5.027,7.307,0
5.028,8.039,0
5.029,4.194,0
5.03,6.025,0
5.031,9.138,0
5.032,6.391,0
5.033,6.757,0
5.034,10.969,0
5.035,10.419,0
5.036,13.715,0
5.037,8.588,0
5.038,8.039,0
5.039,4.926,0
5.04,1.081,0
5.041,2.363,0
5.042,-0.75,0
5.043,0.349,0
5.044,-3.13,0
5.045,-0.018,0
5.046,-2.032,0
5.047,-0.201,0
5.048,0.898,0
5.049,0.166,0
5.05,1.63,0
5.051,5.842,0
5.052,15.363,0
5.053,35.871,0
5.054,56.562,0
5.055,21.589,0
5.056,-11.736,0
5.057,-24.554,0
5.058,-36.272,0
5.059,-32.793,0
5.06,-29.681,0
5.061,-32.61,0
5.062,-24.737,0
5.063,-17.596,0
5.064,-19.793,0
5.065,-9.722,0
5.066,-7.891,0
5.067,-2.947,0
5.068,-1.482,0
5.069,2.546,0
5.07,1.447,0
5.071,4.743,0
5.072,3.828,0
5.073,8.405,0
5.074,9.138,0
5.075,5.292,0
5.076,7.124,0
5.077,6.574,0
5.078,7.124,0
5.079,3.828,0
5.08,6.025,0
5.081,7.124,0
5.082,6.025,0
5.083,7.124,0
5.084,7.307,0
5.085,8.039,0
5.086,6.208,0
5.087,6.025,0
5.088,4.56,0
5.089,2.363,0
5.09,-0.75,0
5.091,0.349,0
5.092,0.715,0
5.093,0.349,0
5.094,1.813,0
5.095,-0.75,0
5.096,-1.849,0
5.097,0.166,0
5.098,0.349,0
5.099,-2.581,0
5.1,-4.229,0
5.101,-5.328,0
5.102,0.166,0
5.103,11.701,0
5.104,36.604,0
5.105,68.83,0
5.106,29.829,0
5.107,-17.413,0
5.108,-23.638,0
5.109,-40.85,0
5.11,-35.723,0
5.111,-30.962,0
5.112,-35.174,0
5.113,-23.455,0
5.114,-19.976,0
5.115,-10.455,0
5.116,-7.525,0
5.117,-4.961,0
5.118,-7.342,0
5.119,-0.75,0
5.12,-2.764,0
5.121,2.729,0
5.122,4.377,0
5.123,2.912,0
5.124,4.194,0
5.125,3.095,0
5.126,-0.201,0
5.127,8.955,0
5.128,7.856,0
5.129,8.955,0
5.13,6.025,0
5.131,3.278,0
5.132,5.659,0
5.133,7.856,0
5.134,8.405,0
5.135,2.729,0
5.136,6.574,0
5.137,4.743,0
5.138,6.574,0
5.139,7.124,0
5.14,4.743,0
5.141,5.109,0
5.142,2.363,0
5.143,0.532,0
5.144,1.63,0
5.145,1.813,0
5.146,1.081,0
5.147,2.912,0
5.148,6.391,0
5.149,13.898,0
5.15,26.35,0
5.151,-2.032,0
5.152,-3.68,0
5.153,-8.074,0
5.154,-9.356,0
5.155,1.813,0
5.156,24.335,0
5.157,40.449,0
5.158,49.238,0
5.159,41.364,0
5.16,4.926,0
5.161,-31.695,0
5.162,-45.977,0
5.163,-50.188,0
5.164,-46.343,0
5.165,-42.864,0
5.166,-33.343,0
5.167,-30.413,0
5.168,-17.046,0
5.169,-14.666,0
5.17,-8.074,0
5.171,-6.06,0
5.172,-4.229,0
5.173,0.715,0
5.174,2.18,0
5.175,3.461,0
5.176,4.56,0
5.177,5.659,0
5.178,6.574,0
5.179,7.49,0
5.18,8.222,0
5.181,8.955,0
5.182,12.25,0
5.183,9.138,0
5.184,8.588,0
5.185,8.222,0
5.186,11.335,0
5.187,7.49,0
5.188,7.856,0
5.189,5.659,0
5.19,6.025,0
5.191,3.461,0
5.192,2.363,0
5.193,5.109,0
5.194,4.743,0
5.195,1.447,0
5.196,1.813,0
5.197,-1.666,0
5.198,1.447,0
5.199,2.546,0
5.2,1.447,0
5.201,-0.384,0
5.202,3.095,0
5.203,3.278,0
5.204,7.49,0
5.205,17.011,0
5.206,32.026,0
5.207,46.125,0
5.208,51.618,0
5.209,26.716,0
5.21,-12.652,0
5.211,-28.216,0
5.212,-42.498,0
5.213,-38.287,0
5.214,-42.132,0
5.215,-38.653,0
5.216,-29.131,0
5.217,-20.342,0
5.218,-22.906,0
5.219,-15.765,0
5.22,-9.173,0
5.221,-7.159,0
5.222,-5.328,0
5.223,-0.384,0
5.224,-1.849,0
5.225,4.926,0
5.226,8.405,0
5.227,7.307,0
5.228,6.391,0
5.229,5.476,0
5.23,6.208,0
5.231,8.405,0
5.232,6.574,0
5.233,10.969,0
5.234,5.842,0
5.235,7.673,0
5.236,7.124,0
5.237,5.476,0
5.238,6.757,0
5.239,5.476,0
5.24,5.109,0
5.241,5.476,0
5.242,4.377,0
5.243,5.109,0
5.244,5.842,0
5.245,4.56,0
5.246,4.011,0
5.247,0.715,0
5.248,-2.398,0
5.249,-2.032,0
5.25,-0.933,0
5.251,2.363,0
5.252,3.461,0
5.253,3.095,0
5.254,1.264,0
5.255,6.757,0
5.256,18.293,0
5.257,43.195,0
5.258,53.815,0
5.259,31.293,0
5.26,-1.299,0
5.261,-31.512,0
5.262,-43.23,0
5.263,-39.751,0
5.264,-36.639,0
5.265,-33.709,0
5.266,-25.835,0
5.267,-18.694,0
5.268,-16.497,0
5.269,-14.483,0
5.27,-5.328,0
5.271,-3.68,0
5.272,-5.145,0
5.273,-3.863,0
5.274,2.18,0
5.275,1.081,0
5.276,0.166,0
5.277,4.743,0
5.278,7.124,0
5.279,7.856,0
5.28,4.56,0
5.281,6.391,0
5.282,2.546,0
5.283,7.124,0
5.284,7.673,0
5.285,11.518,0
5.286,8.222,0
5.287,6.94,0
5.288,4.194,0
5.289,4.56,0
5.29,5.659,0
5.291,3.645,0
5.292,3.828,0
5.293,5.109,0
5.294,2.546,0
5.295,-0.018,0
5.296,-1.482,0
5.297,-1.299,0
5.298,2.18,0
5.299,4.377,0
5.3,6.391,0
5.301,3.828,0
5.302,4.926,0
5.303,2.912,0
5.304,5.292,0
5.305,3.461,0
5.306,7.49,0
5.307,15.913,0
5.308,34.406,0
5.309,47.773,0
5.31,11.335,0
5.311,-14.849,0
5.312,-29.131,0
5.313,-33.343,0
5.314,-29.498,0
5.315,-26.019,0
5.316,-22.906,0
5.317,-19.976,0
5.318,-17.413,0
5.319,-10.271,0
5.32,-8.074,0
5.321,-6.06,0
5.322,-4.229,0
5.323,-2.581,0
5.324,-4.046,0
5.325,-0.018,0
5.326,3.461,0
5.327,2.363,0
5.328,3.278,0
5.329,4.194,0
5.33,1.813,0
5.331,4.011,0
5.332,3.461,0
5.333,6.574,0
5.334,4.926,0
5.335,6.208,0
5.336,4.926,0
5.337,8.771,0
5.338,7.49,0
5.339,5.292,0
5.34,1.447,0
5.341,1.813,0
5.342,-2.398,0
5.343,-0.75,0
5.344,-2.032,0
5.345,1.081,0
5.346,-1.666,0
5.347,-2.764,0
5.348,1.264,0
5.349,3.645,0
5.35,4.926,0
5.351,4.56,0
5.352,8.039,0
5.353,8.405,0
5.354,7.307,0
5.355,3.095,0
5.356,6.574,0
5.357,11.701,0
5.358,21.955,0
5.359,44.477,0
5.36,53.999,0
5.361,21.406,0
5.362,-17.596,0
5.363,-33.16,0
5.364,-37.92,0
5.365,-33.709,0
5.366,-29.864,0
5.367,-26.385,0
5.368,-23.272,0
5.369,-14.483,0
5.37,-11.919,0
5.371,-9.539,0
5.372,-7.342,0
5.373,-5.328,0
5.374,-3.497,0
5.375,-1.849,0
5.376,-0.384,0
5.377,0.898,0
5.378,1.997,0
5.379,0.898,0
5.38,1.813,0
5.381,4.56,0
5.382,3.828,0
5.383,6.025,0
5.384,2.729,0
5.385,7.124,0
5.386,7.673,0
5.387,10.053,0
5.388,7.856,0
5.389,5.842,0
5.39,4.743,0
5.391,6.574,0
5.392,1.997,0
5.393,3.828,0
5.394,12.067,0
5.395,24.519,0
5.396,19.575,0
5.397,-0.018,0
5.398,-7.891,0
5.399,-10.271,0
5.4,-12.469,0
5.401,-10.455,0
5.402,-12.286,0
5.403,-7.342,0
5.404,-5.877,0
5.405,-1.849,0
5.406,-3.497,0
5.407,-2.398,0
5.408,-1.299,0
5.409,13.898,0
5.41,38.251,0
5.411,41.364,0
5.412,56.196,0
5.413,37.519,0
5.414,1.081,0
5.415,-35.54,0
5.416,-40.301,0
5.417,-36.089,0
5.418,-39.935,0
5.419,-36.456,0
5.42,-26.934,0
5.421,-24.004,0
5.422,-21.441,0
5.423,-14.3,0
5.424,-12.103,0
5.425,-6.06,0
5.426,-0.567,0
5.427,-2.215,0
5.428,2.18,0
5.429,3.461,0
5.43,6.94,0
5.431,5.842,0
5.432,2.912,0
5.433,7.49,0
5.434,9.87,0
5.435,10.603,0
5.436,8.771,0
5.437,10.603,0
5.438,7.856,0
5.439,8.222,0
5.44,6.025,0
5.441,4.926,0
5.442,10.603,0
5.443,8.222,0
5.444,6.025,0
5.445,4.194,0
5.446,4.743,0
5.447,4.194,0
5.448,2.912,0
5.449,1.63,0
5.45,1.997,0
5.451,4.56,0
5.452,1.997,0
5.453,1.264,0
5.454,-0.018,0
5.455,2.363,0
5.456,-2.215,0
5.457,-1.299,0
5.458,-1.849,0
5.459,6.391,0
5.46,23.42,0
5.461,30.561,0
5.462,50.52,0
5.463,53.083,0
5.464,26.35,0
5.465,-20.159,0
5.466,-39.019,0
5.467,-44.695,0
5.468,-39.568,0
5.469,-34.808,0
5.47,-30.596,0
5.471,-26.751,0
5.472,-23.272,0
5.473,-20.159,0
5.474,-17.229,0
5.475,-9.356,0
5.476,-6.976,0
5.477,-4.778,0
5.478,1.264,0
5.479,3.095,0
5.48,1.447,0
5.481,5.842,0
5.482,7.124,0
5.483,10.603,0
5.484,7.307,0
5.485,10.236,0
5.486,7.49,0
5.487,8.222,0
5.488,6.025,0
5.489,6.574,0
5.49,3.461,0
5.491,5.109,0
5.492,6.391,0
5.493,6.025,0
5.494,1.447,0
5.495,0.898,0
5.496,1.447,0
5.497,2.729,0
5.498,2.363,0
5.499,2.729,0
5.5,2.363,0
5.501,4.926,0
5.502,4.194,0
5.503,7.307,0
5.504,5.292,0
5.505,2.729,0
5.506,0.166,0
5.507,0.349,0
5.508,0.898,0
5.509,2.729,0
5.51,6.757,0
5.511,15.18,0
5.512,31.293,0
5.513,51.252,0
5.514,53.815,0
5.515,22.138,0
5.516,-16.863,0
5.517,-32.427,0
5.518,-37.188,0
5.519,-41.399,0
5.52,-37.554,0
5.521,-34.075,0
5.522,-24.554,0
5.523,-21.624,0
5.524,-19.061,0
5.525,-16.68,0
5.526,-10.088,0
5.527,-8.074,0
5.528,-2.581,0
5.529,-0.933,0
5.53,-2.398,0
5.531,4.377,0
5.532,7.856,0
5.533,8.955,0
5.534,8.039,0
5.535,7.124,0
5.536,7.856,0
5.537,4.011,0
5.538,5.842,0
5.539,11.518,0
5.54,7.673,0
5.541,7.124,0
5.542,6.574,0
5.543,6.025,0
5.544,3.645,0
5.545,4.011,0
5.546,2.912,0
5.547,2.546,0
5.548,5.109,0
5.549,5.842,0
5.55,3.278,0
5.551,1.447,0
5.552,1.63,0
5.553,0.349,0
5.554,1.081,0
5.555,-2.032,0
5.556,-0.018,0
5.557,1.813,0
5.558,0.715,0
5.559,0.898,0
5.56,2.363,0
5.561,6.574,0
5.562,16.096,0
5.563,36.604,0
5.564,51.435,0
5.565,27.265,0
5.566,-8.44,0
5.567,-32.244,0
5.568,-28.033,0
5.569,-24.188,0
5.57,-27.667,0
5.571,-24.554,0
5.572,-21.624,0
5.573,-19.061,0
5.574,-11.919,0
5.575,-5.328,0
5.576,-3.313,0
5.577,-5.145,0
5.578,-0.201,0
5.579,1.264,0
5.58,2.546,0
5.581,1.447,0
5.582,2.546,0
5.583,-0.384,0
5.584,4.194,0
5.585,8.222,0
5.586,10.419,0
5.587,9.87,0
5.588,9.321,0
5.589,3.095,0
5.59,3.828,0
5.591,1.63,0
5.592,2.18,0
5.593,1.63,0
5.594,4.377,0
5.595,1.997,0
5.596,0.715,0
5.597,-3.13,0
5.598,-4.412,0
5.599,-1.299,0
5.6,-5.877,0
5.601,1.081,0
5.602,0.166,0
5.603,2.546,0
5.604,1.813,0
5.605,1.264,0
5.606,0.715,0
5.607,2.363,0
5.608,2.729,0
5.609,0.532,0
5.61,-2.764,0
5.611,-0.75,0
5.612,4.926,0
5.613,17.377,0
5.614,41.181,0
5.615,44.294,0
5.616,47.224,0
5.617,12.25,0
5.618,-11.553,0
5.619,-33.16,0
5.62,-37.005,0
5.621,-40.484,0
5.622,-43.597,0
5.623,-40.667,0
5.624,-32.793,0
5.625,-30.413,0
5.626,-19.427,0
5.627,-17.413,0
5.628,-8.257,0
5.629,-6.609,0
5.63,-5.145,0
5.631,-3.863,0
5.632,2.18,0
5.633,5.476,0
5.634,8.405,0
5.635,7.49,0
5.636,6.757,0
5.637,8.955,0
5.638,10.786,0
5.639,11.335,0
5.64,19.758,0
5.641,38.251,0
5.642,19.575,0
5.643,2.729,0
5.644,0.532,0
5.645,-5.511,0
5.646,-7.342,0
5.647,-5.694,0
5.648,-4.229,0
5.649,-2.947,0
5.65,-4.046,0
5.651,-0.75,0
5.652,-1.666,0
5.653,2.912,0
5.654,3.645,0
5.655,1.447,0
5.656,-1.849,0
5.657,-1.299,0
5.658,1.447,0
5.659,1.081,0
5.66,-0.201,0
5.661,0.166,0
5.662,1.264,0
5.663,4.743,0
5.664,11.701,0
5.665,26.899,0
5.666,51.252,0
5.667,60.773,0
5.668,34.04,0
5.669,1.813,0
5.67,-19.793,0
5.671,-15.948,0
5.672,-19.427,0
5.673,-16.314,0
5.674,-7.525,0
5.675,0.349,0
5.676,-2.032,0
5.677,0.166,0
5.678,2.18,0
5.679,0.349,0
5.68,1.997,0
5.681,-2.398,0
5.682,-11.919,0
5.683,-25.469,0
5.684,-27.3,0
5.685,-32.244,0
5.686,-33.709,0
5.687,-29.681,0
5.688,-18.511,0
5.689,-8.074,0
5.69,-14.849,0
5.691,-33.343,0
5.692,-57.513,0
5.693,-73.626,0
5.694,-94.317,0
5.695,-112.99,0
5.696,-115.37,0
5.697,-117.57,0
5.698,-139.73,0
5.699,-154.56,0
5.7,-141.19,0
5.701,-134.05,0
5.702,-114.09,0
5.703,-100.73,0
5.704,-64.288,0
5.705,-6.609,0
5.706,62.788,0
5.707,128.16,0
5.708,153.43,0
5.709,161.12,0
5.71,154.16,0
5.711,135.3,0
5.712,132,0
5.713,126.33,0
5.714,152.51,0
5.715,185.83,0
5.716,216.05,0
5.717,243.51,0
5.718,232.89,0
5.719,190.59,0
5.72,138.59,0
5.721,103.62,0
5.722,84.76,0
5.723,79.084,0
5.724,52.9,0
5.725,29.096,0
5.726,16.279,0
5.727,12.434,0
5.728,8.955,0
5.729,5.842,0
5.73,-2.947,0
5.731,-10.821,0
5.732,-17.962,0
5.733,-24.554,0
5.734,-30.596,0
5.735,-36.089,0
5.736,-27.85,0
5.737,-35.357,0
5.738,-53.118,0
5.739,-55.499,0
5.74,-62.09,0
5.741,-60.076,0
5.742,-58.245,0
5.743,-59.893,0
5.744,-64.288,0
5.745,-60.259,0
5.746,-61.358,0
5.747,-67.034,0
5.748,-67.95,0
5.749,-68.865,0
5.75,-63.189,0
5.751,-62.457,0
5.752,-57.879,0
5.753,-52.203,0
5.754,-51.47,0
5.755,-49.639,0
5.756,-46.526,0
5.757,-38.104,0
5.758,-37.005,0
5.759,-35.906,0
5.76,-26.751,0
5.761,-23.272,0
5.762,-22.173,0
5.763,-17.413,0
5.764,-12.469,0
5.765,1.447,0
5.766,19.575,0
5.767,36.42,0
5.768,51.801,0
5.769,49.787,0
5.77,22.321,0
5.771,-21.075,0
5.772,-26.751,0
5.773,-31.878,0
5.774,-36.639,0
5.775,-32.427,0
5.776,-28.582,0
5.777,-25.103,0
5.778,-15.582,0
5.779,-12.652,0
5.78,-4.778,0
5.781,-2.398,0
5.782,4.194,0
5.783,6.208,0
5.784,4.377,0
5.785,9.321,0
5.786,13.715,0
5.787,17.744,0
5.788,16.645,0
5.789,10.969,0
5.79,13.898,0
5.791,14.814,0
5.792,15.546,0
5.793,17.744,0
5.794,15.913,0
5.795,12.8,0
5.796,12.25,0
5.797,11.884,0
5.798,14.082,0
5.799,11.335,0
5.8,11.701,0
5.801,12.067,0
5.802,11.335,0
5.803,10.603,0
5.804,7.673,0
5.805,12.617,0
5.806,12.067,0
5.807,10.236,0
5.808,8.588,0
5.809,7.307,0
5.81,5.109,0
5.811,3.095,0
5.812,-0.384,0
5.813,-0.018,0
5.814,-0.567,0
5.815,5.659,0
5.816,19.575,0
5.817,29.646,0
5.818,53.449,0
5.819,56.562,0
5.82,53.632,0
5.821,24.152,0
5.822,-19.244,0
5.823,-36.456,0
5.824,-41.583,0
5.825,-36.822,0
5.826,-32.61,0
5.827,-36.456,0
5.828,-25.835,0
5.829,-22.723,0
5.83,-19.793,0
5.831,-11.919,0
5.832,-4.778,0
5.833,-2.581,0
5.834,-4.595,0
5.835,0.898,0
5.836,5.842,0
5.837,4.377,0
5.838,8.405,0
5.839,2.363,0
5.84,8.039,0
5.841,7.124,0
5.842,11.701,0
5.843,6.025,0
5.844,11.335,0
5.845,8.039,0
5.846,12.434,0
5.847,8.588,0
5.848,8.222,0
5.849,8.588,0
5.85,14.082,0
5.851,10.236,0
5.852,9.687,0
5.853,7.856,0
5.854,6.208,0
5.855,2.912,0
5.856,0.715,0
5.857,2.729,0
5.858,-2.947,0
5.859,-2.215,0
5.86,1.63,0
5.861,1.081,0
5.862,-2.032,0
5.863,-2.581,0
5.864,-2.947,0
5.865,1.63,0
5.866,0.349,0
5.867,6.574,0
5.868,20.49,0
5.869,42.646,0
5.87,45.576,0
5.871,58.942,0
5.872,22.504,0
5.873,-3.68,0
5.874,-37.005,0
5.875,-41.216,0
5.876,-45.062,0
5.877,-41.583,0
5.878,-38.47,0
5.879,-35.54,0
5.88,-27.667,0
5.881,-20.525,0
5.882,-18.328,0
5.883,-12.286,0
5.884,-6.792,0
5.885,4.743,0
5.886,27.265,0
5.887,30.378,0
5.888,9.687,0
5.889,-3.68,0
5.89,-6.06,0
5.891,-8.257,0
5.892,-6.243,0
5.893,-8.074,0
5.894,-3.13,0
5.895,-1.666,0
5.896,-0.384,0
5.897,0.715,0
5.898,6.391,0
5.899,9.321,0
5.9,6.574,0
5.901,10.603,0
5.902,11.335,0
5.903,10.786,0
5.904,7.673,0
5.905,10.419,0
5.906,7.124,0
5.907,5.842,0
5.908,6.208,0
5.909,3.645,0
5.91,4.011,0
5.911,3.278,0
5.912,0.166,0
5.913,-3.68,0
5.914,1.813,0
5.915,1.081,0
5.916,-2.764,0
5.917,1.813,0
5.918,11.335,0
5.919,31.843,0
5.92,46.674,0
5.921,49.238,0
5.922,32.392,0
5.923,-0.75,0
5.924,-34.075,0
5.925,-38.287,0
5.926,-34.441,0
5.927,-37.92,0
5.928,-28.399,0
5.929,-25.469,0
5.93,-22.906,0
5.931,-15.765,0
5.932,-13.567,0
5.933,-11.553,0
5.934,-9.722,0
5.935,-1.482,0
5.936,2.912,0
5.937,4.194,0
5.938,5.292,0
5.939,1.997,0
5.94,2.912,0
5.941,1.997,0
5.942,2.729,0
5.943,0.532,0
5.944,5.109,0
5.945,9.504,0
5.946,5.659,0
5.947,8.955,0
5.948,9.321,0
5.949,8.955,0
5.95,10.786,0
5.951,6.757,0
5.952,10.053,0
5.953,12.25,0
5.954,8.405,0
5.955,5.109,0
5.956,2.912,0
5.957,2.546,0
5.958,1.447,0
5.959,-0.384,0
5.96,-2.398,0
5.961,-0.567,0
5.962,0.715,0
5.963,0.166,0
5.964,3.095,0
5.965,1.997,0
5.966,0.898,0
5.967,4.56,0
5.968,3.095,0
5.969,7.307,0
5.97,16.828,0
5.971,37.336,0
5.972,58.027,0
5.973,50.153,0
5.974,13.715,0
5.975,-22.906,0
5.976,-37.188,0
5.977,-41.399,0
5.978,-37.554,0
5.979,-41.033,0
5.98,-37.92,0
5.981,-29.131,0
5.982,-21.258,0
5.983,-14.117,0
5.984,-11.919,0
5.985,-9.905,0
5.986,-4.412,0
5.987,-2.764,0
5.988,1.63,0
5.989,2.912,0
5.99,4.011,0
5.991,2.912,0
5.992,5.842,0
5.993,4.926,0
5.994,7.307,0
5.995,6.574,0
5.996,8.405,0
5.997,4.011,0
5.998,5.659,0
5.999,4.377,0
6,8.588,0
6.001,5.842,0
6.002,9.138,0
6.003,8.771,0
6.004,9.138,0
6.005,3.461,0
6.006,4.194,0
6.007,6.391,0
6.008,3.095,0
6.009,4.926,0
6.01,3.278,0
6.011,1.997,0
6.012,-0.201,0
6.013,-2.947,0
6.014,0.532,0
6.015,-1.666,0
6.016,1.081,0
6.017,2.18,0
6.018,0.898,0
6.019,3.461,0
6.02,8.039,0
6.021,18.293,0
6.022,40.815,0
6.023,56.928,0
6.024,53.999,0
6.025,13.715,0
6.026,-26.568,0
6.027,-31.695,0
6.028,-45.977,0
6.029,-41.766,0
6.03,-37.92,0
6.031,-34.441,0
6.032,-24.92,0
6.033,-21.99,0
6.034,-14.117,0
6.035,-11.736,0
6.036,-5.145,0
6.037,-3.13,0
6.038,-1.299,0
6.039,0.349,0
6.04,1.813,0
6.041,3.095,0
6.042,4.194,0
6.043,3.095,0
6.044,8.039,0
6.045,5.292,0
6.046,6.025,0
6.047,5.292,0
6.048,3.461,0
6.049,5.292,0
6.05,3.645,0
6.051,3.278,0
6.052,6.391,0
6.053,5.292,0
6.054,7.856,0
6.055,6.025,0
6.056,4.011,0
6.057,3.828,0
6.058,3.095,0
6.059,2.546,0
6.06,4.56,0
6.061,2.18,0
6.062,1.447,0
6.063,0.715,0
6.064,3.095,0
6.065,1.081,0
6.066,3.645,0
6.067,1.081,0
6.068,3.828,0
6.069,4.56,0
6.07,1.997,0
6.071,7.49,0
6.072,19.025,0
6.073,43.928,0
6.074,47.407,0
6.075,31.293,0
6.076,-1.299,0
6.077,-22.906,0
6.078,-42.498,0
6.079,-39.019,0
6.08,-42.132,0
6.081,-33.343,0
6.082,-25.469,0
6.083,-23.089,0
6.084,-16.497,0
6.085,-10.455,0
6.086,-8.624,0
6.087,-6.976,0
6.088,-2.581,0
6.089,1.447,0
6.09,-2.032,0
6.091,-0.933,0
6.092,-3.863,0
6.093,0.715,0
6.094,3.095,0
6.095,6.94,0
6.096,6.391,0
6.097,8.222,0
6.098,12.067,0
6.099,10.786,0
6.1,10.419,0
6.101,11.518,0
6.102,11.152,0
6.103,8.588,0
6.104,8.405,0
6.105,6.574,0
6.106,4.743,0
6.107,1.264,0
6.108,0.898,0
6.109,3.095,0
6.11,4.194,0
6.111,-1.482,0
6.112,2.546,0
6.113,3.278,0
6.114,-0.018,0
6.115,0.532,0
6.116,-1.116,0
6.117,1.264,0
6.118,-0.933,0
6.119,5.292,0
6.12,0.166,0
6.121,-0.75,0
6.122,-1.482,0
6.123,-3.68,0
6.124,-1.849,0
6.125,-0.018,0
6.126,-3.863,0
6.127,-2.581,0
6.128,-4.778,0
6.129,-0.933,0
6.13,-3.313,0
6.131,3.645,0
6.132,18.842,0
6.133,29.829,0
6.134,-0.384,0
6.135,3.828,0
6.136,23.42,0
6.137,48.322,0
6.138,45.209,0
6.139,18.476,0
6.14,-20.892,0
6.141,-36.456,0
6.142,-41.216,0
6.143,-45.428,0
6.144,-41.583,0
6.145,-30.962,0
6.146,-27.85,0
6.147,-24.92,0
6.148,-17.046,0
6.149,-9.905,0
6.15,-7.708,0
6.151,-1.666,0
6.152,0.166,0
6.153,1.813,0
6.154,6.208,0
6.155,4.926,0
6.156,8.405,0
6.157,5.109,0
6.158,6.025,0
6.159,6.94,0
6.16,9.321,0
6.161,8.588,0
6.162,6.757,0
6.163,6.208,0
6.164,10.053,0
6.165,9.687,0
6.166,13.898,0
6.167,7.673,0
6.168,8.405,0
6.169,6.208,0
6.17,9.504,0
6.171,6.025,0
6.172,4.194,0
6.173,12.617,0
6.174,28.73,0
6.175,48.688,0
6.176,62.055,0
6.177,54.914,0
6.178,21.772,0
6.179,-21.258,0
6.18,-38.47,0
6.181,-43.597,0
6.182,-38.836,0
6.183,-34.625,0
6.184,-30.779,0
6.185,-20.159,0
6.186,-17.046,0
6.187,9.687,0
6.188,27.448,0
6.189,30.561,0
6.19,33.491,0
6.191,30.927,0
6.192,23.786,0
6.193,21.589,0
6.194,27.631,0
6.195,3.828,0
6.196,-31.878,0
6.197,-55.682,0
6.198,-59.893,0
6.199,-56.048,0
6.2,-45.428,0
6.201,-35.906,0
6.202,-27.117,0
6.203,-19.244,0
6.204,-12.103,0
6.205,-9.905,0
6.206,0.166,0
6.207,5.659,0
6.208,4.011,0
6.209,11.518,0
6.21,10.236,0
6.211,11.335,0
6.212,12.434,0
6.213,15.363,0
6.214,18.11,0
6.215,17.377,0
6.216,16.645,0
6.217,13.349,0
6.218,15.18,0
6.219,16.828,0
6.22,15.546,0
6.221,14.265,0
6.222,8.222,0
6.223,1.997,0
6.224,1.081,0
6.225,13.532,0
6.226,40.998,0
6.227,68.464,0
6.228,36.237,0
6.229,-11.37,0
6.23,-30.23,0
6.231,-35.906,0
6.232,-30.779,0
6.233,-26.019,0
6.234,-21.807,0
6.235,-17.962,0
6.236,-14.483,0
6.237,-11.37,0
6.238,-8.44,0
6.239,-11.004,0
6.24,-8.624,0
6.241,-6.426,0
6.242,-0.384,0
6.243,1.447,0
6.244,3.095,0
6.245,7.49,0
6.246,3.461,0
6.247,4.56,0
6.248,5.659,0
6.249,6.574,0
6.25,5.659,0
6.251,3.278,0
6.252,4.011,0
6.253,0.715,0
6.254,6.391,0
6.255,5.659,0
6.256,5.109,0
6.257,1.997,0
6.258,-0.75,0
6.259,5.842,0
6.26,6.757,0
6.261,1.081,0
6.262,0.349,0
6.263,-0.201,0
6.264,0.349,0
6.265,-1.299,0
6.266,1.081,0
6.267,0.715,0
6.268,6.208,0
6.269,4.011,0
6.27,2.18,0
6.271,2.729,0
6.272,1.081,0
6.273,-0.567,0
6.274,-0.201,0
6.275,6.757,0
6.276,21.955,0
6.277,46.308,0
6.278,36.787,0
6.279,33.857,0
6.28,25.983,0
6.281,18.842,0
6.282,21.04,0
6.283,19.025,0
6.284,17.194,0
6.285,-7.708,0
6.286,-54.217,0
6.287,-60.442,0
6.288,-66.119,0
6.289,-60.992,0
6.29,-56.231,0
6.291,-43.414,0
6.292,-39.568,0
6.293,-28.948,0
6.294,-19.427,0
6.295,-10.638,0
6.296,-8.074,0
6.297,-0.933,0
6.298,5.659,0
6.299,11.701,0
6.3,13.532,0
6.301,11.884,0
6.302,16.279,0
6.303,17.561,0
6.304,18.659,0
6.305,15.363,0
6.306,12.434,0
6.307,11.518,0
6.308,12.25,0
6.309,12.983,0
6.31,11.152,0
6.311,12.983,0
6.312,14.631,0
6.313,7.124,0
6.314,3.828,0
6.315,8.771,0
6.316,7.856,0
6.317,10.236,0
6.318,4.926,0
6.319,5.476,0
6.32,7.307,0
6.321,6.757,0
6.322,4.377,0
6.323,1.264,0
6.324,3.095,0
6.325,0.349,0
6.326,6.025,0
6.327,15.18,0
6.328,33.674,0
6.329,63.154,0
6.33,27.631,0
6.331,-15.398,0
6.332,-32.61,0
6.333,-37.737,0
6.334,-32.977,0
6.335,-28.765,0
6.336,-32.61,0
6.337,-21.99,0
6.338,-18.877,0
6.339,-21.807,0
6.34,-13.934,0
6.341,-11.553,0
6.342,-4.961,0
6.343,-6.976,0
6.344,-5.145,0
6.345,-0.201,0
6.346,1.264,0
6.347,2.546,0
6.348,3.645,0
6.349,4.743,0
6.35,5.659,0
6.351,6.574,0
6.352,8.955,0
6.353,8.222,0
6.354,7.673,0
6.355,1.997,0
6.356,5.842,0
6.357,7.673,0
6.358,5.842,0
6.359,1.997,0
6.36,0.715,0
6.361,1.997,0
6.362,-1.849,0
6.363,-1.482,0
6.364,-0.201,0
6.365,-2.215,0
6.366,-0.384,0
6.367,0.715,0
6.368,2.18,0
6.369,2.912,0
6.37,1.63,0
6.371,2.18,0
6.372,1.63,0
6.373,0.715,0
6.374,3.461,0
6.375,3.095,0
6.376,1.264,0
6.377,6.757,0
6.378,18.293,0
6.379,19.941,0
6.38,-2.581,0
6.381,6.94,0
6.382,15.729,0
6.383,45.209,0
6.384,49.055,0
6.385,16.828,0
6.386,-22.173,0
6.387,-37.737,0
6.388,-52.02,0
6.389,-47.808,0
6.39,-43.963,0
6.391,-33.343,0
6.392,-30.23,0
6.393,-21.441,0
6.394,-18.877,0
6.395,-16.497,0
6.396,-9.905,0
6.397,-7.891,0
6.398,1.264,0
6.399,2.912,0
6.4,1.447,0
6.401,5.476,0
6.402,11.518,0
6.403,14.814,0
6.404,9.87,0
6.405,10.786,0
6.406,8.405,0
6.407,7.673,0
6.408,7.124,0
6.409,6.574,0
6.41,3.828,0
6.411,4.194,0
6.412,3.828,0
6.413,1.813,0
6.414,-0.75,0
6.415,4.011,0
6.416,3.461,0
6.417,5.109,0
6.418,5.476,0
6.419,3.278,0
6.42,5.292,0
6.421,2.729,0
6.422,2.363,0
6.423,3.828,0
6.424,2.546,0
6.425,4.377,0
6.426,3.828,0
6.427,4.377,0
6.428,7.673,0
6.429,14.631,0
6.43,29.829,0
6.431,45.209,0
6.432,51.252,0
6.433,23.786,0
6.434,-11.736,0
6.435,-35.54,0
6.436,-48.357,0
6.437,-44.512,0
6.438,-41.033,0
6.439,-37.92,0
6.44,-29.131,0
6.441,-26.568,0
6.442,-19.427,0
6.443,-8.44,0
6.444,-10.455,0
6.445,-4.961,0
6.446,-3.313,0
6.447,-1.849,0
6.448,-0.567,0
6.449,2.912,0
6.45,4.011,0
6.451,10.969,0
6.452,10.053,0
6.453,9.321,0
6.454,8.588,0
6.455,9.138,0
6.456,7.307,0
6.457,8.955,0
6.458,10.236,0
6.459,13.349,0
6.46,9.504,0
6.461,9.87,0
6.462,10.236,0
6.463,9.87,0
6.464,6.391,0
6.465,7.673,0
6.466,5.659,0
6.467,4.56,0
6.468,2.729,0
6.469,1.997,0
6.47,3.828,0
6.471,0.349,0
6.472,0.715,0
6.473,-1.299,0
6.474,-3.863,0
6.475,-2.032,0
6.476,-3.497,0
6.477,-3.497,0
6.478,-2.764,0
6.479,-6.792,0
6.48,1.63,0
6.481,20.124,0
6.482,49.604,0
6.483,53.449,0
6.484,28.547,0
6.485,-7.159,0
6.486,-30.962,0
6.487,-43.78,0
6.488,-47.625,0
6.489,-44.146,0
6.49,-34.625,0
6.491,-25.835,0
6.492,-23.272,0
6.493,-16.131,0
6.494,-18.328,0
6.495,-12.286,0
6.496,-10.455,0
6.497,-5.511,0
6.498,-4.046,0
6.499,-0.018,0
6.5,3.461,0
6.501,6.757,0
6.502,7.673,0
6.503,8.588,0
6.504,9.321,0
6.505,8.588,0
6.506,9.138,0
6.507,4.743,0
6.508,8.588,0
6.509,8.955,0
6.51,2.912,0
6.511,5.292,0
6.512,6.025,0
6.513,4.194,0
6.514,4.743,0
6.515,4.194,0
6.516,4.56,0
6.517,5.842,0
6.518,5.476,0
6.519,5.109,0
6.52,3.278,0
6.521,2.546,0
6.522,3.278,0
6.523,2.546,0
6.524,1.447,0
6.525,-1.482,0
6.526,1.081,0
6.527,-2.947,0
6.528,-2.032,0
6.529,1.264,0
6.53,8.222,0
6.531,23.42,0
6.532,38.801,0
6.533,48.872,0
6.534,58.027,0
6.535,33.125,0
6.536,8.222,0
6.537,5.109,0
6.538,8.039,0
6.539,10.603,0
6.54,8.222,0
6.541,-24.92,0
6.542,-58.245,0
6.543,-62.457,0
6.544,-66.302,0
6.545,-62.823,0
6.546,-53.301,0
6.547,-44.512,0
6.548,-31.146,0
6.549,-19.061,0
6.55,-12.469,0
6.551,1.63,0
6.552,7.124,0
6.553,18.659,0
6.554,23.054,0
6.555,32.575,0
6.556,36.054,0
6.557,39.35,0
6.558,38.435,0
6.559,37.519,0
6.56,31.843,0
6.561,31.11,0
6.562,24.885,0
6.563,24.152,0
6.564,14.082,0
6.565,-0.933,0
6.566,-11.004,0
6.567,-16.497,0
6.568,-24.737,0
6.569,-32.244,0
6.57,-33.526,0
6.571,-25.103,0
6.572,-14.849,0
6.573,-10.821,0
6.574,-24.371,0
6.575,-40.85,0
6.576,-56.231,0
6.577,-74.358,0
6.578,-96.331,0
6.579,-103.11,0
6.58,-111.89,0
6.581,-119.77,0
6.582,-102.92,0
6.583,-78.57,0
6.584,-69.048,0
6.585,-89.739,0
6.586,-113.91,0
6.587,-104.39,0
6.588,-59.893,0
6.589,22.871,0
6.59,101.79,0
6.591,132.55,0
6.592,141.89,0
6.593,133.47,0
6.594,110.39,0
6.595,89.521,0
6.596,95.747,0
6.597,90.07,0
6.598,95.197,0
6.599,109.48,0
6.6,122.3,0
6.601,141.89,0
6.602,145.37,0
6.603,142.25,0
6.604,139.33,0
6.605,115.16,0
6.606,105.63,0
6.607,108.56,0
6.608,89.887,0
6.609,73.042,0
6.61,44.294,0
6.611,40.449,0
6.612,29.829,0
6.613,32.941,0
6.614,30.012,0
6.615,11.335,0
6.616,-0.75,0
6.617,-11.736,0
6.618,-21.807,0
6.619,-34.625,0
6.62,-32.977,0
6.621,-34.441,0
6.622,-46.709,0
6.623,-38.47,0
6.624,-30.962,0
6.625,-45.977,0
6.626,-60.076,0
6.627,-65.569,0
6.628,-70.513,0
6.629,-71.978,0
6.63,-69.415,0
6.631,-73.443,0
6.632,-62.273,0
6.633,-45.794,0
6.634,-21.441,0
6.635,-11.919,0
6.636,-8.99,0
6.637,-38.47,0
6.638,-73.992,0
6.639,-78.753,0
6.64,-82.964,0
6.641,-79.119,0
6.642,-68.499,0
6.643,-65.386,0
6.644,-56.597,0
6.645,-48.724,0
6.646,-36.639,0
6.647,-30.047,0
6.648,-24.004,0
6.649,-18.511,0
6.65,-13.567,0
6.651,-6.06,0
6.652,0.715,0
6.653,4.194,0
6.654,5.292,0
6.655,8.222,0
6.656,9.138,0
6.657,11.518,0
6.658,13.715,0
6.659,13.166,0
6.66,11.335,0
6.661,11.884,0
6.662,10.603,0
6.663,13.715,0
6.664,9.87,0
6.665,11.152,0
6.666,13.349,0
6.667,16.096,0
6.668,14.265,0
6.669,11.701,0
6.67,13.715,0
6.671,12.434,0
6.672,11.152,0
6.673,7.673,0
6.674,10.969,0
6.675,11.335,0
6.676,8.588,0
6.677,8.955,0
6.678,10.053,0
6.679,5.476,0
6.68,4.926,0
6.681,6.757,0
6.682,11.152,0
6.683,17.377,0
6.684,29.829,0
6.685,53.632,0
6.686,69.746,0
6.687,37.153,0
6.688,-1.849,0
6.689,-28.033,0
6.69,-32.793,0
6.691,-28.582,0
6.692,-32.427,0
6.693,-21.807,0
6.694,-18.694,0
6.695,-15.765,0
6.696,-13.201,0
6.697,-10.821,0
6.698,-8.624,0
6.699,-2.581,0
6.7,-0.75,0
6.701,0.898,0
6.702,2.363,0
6.703,6.391,0
6.704,5.292,0
6.705,6.391,0
6.706,5.476,0
6.707,8.222,0
6.708,4.194,0
6.709,4.926,0
6.71,5.476,0
6.711,8.588,0
6.712,6.94,0
6.713,2.363,0
6.714,2.912,0
6.715,6.757,0
6.716,7.124,0
6.717,5.842,0
6.718,6.208,0
6.719,9.687,0
6.72,6.574,0
6.721,3.828,0
6.722,1.264,0
6.723,3.095,0
6.724,3.828,0
6.725,5.659,0
6.726,3.828,0
6.727,3.278,0
6.728,0.898,0
6.729,0.166,0
6.73,-3.497,0
6.731,1.997,0
6.732,0.166,0
6.733,0.898,0
6.734,11.152,0
6.735,30.744,0
6.736,38.618,0
6.737,45.759,0
6.738,34.772,0
6.739,16.645,0
6.74,-15.032,0
6.741,-36.639,0
6.742,-40.484,0
6.743,-43.963,0
6.744,-40.85,0
6.745,-32.061,0
6.746,-29.498,0
6.747,-22.356,0
6.748,-15.765,0
6.749,-9.722,0
6.75,-11.553,0
6.751,-3.313,0
6.752,-1.849,0
6.753,2.18,0
6.754,3.278,0
6.755,4.377,0
6.756,3.461,0
6.757,4.377,0
6.758,1.997,0
6.759,2.729,0
6.76,2.18,0
6.761,7.856,0
6.762,5.659,0
6.763,2.363,0
6.764,4.194,0
6.765,4.743,0
6.766,2.363,0
6.767,7.49,0
6.768,8.039,0
6.769,9.87,0
6.77,7.124,0
6.771,5.842,0
6.772,6.208,0
6.773,3.461,0
6.774,0.898,0
6.775,-2.398,0
6.776,0.349,0
6.777,2.18,0
6.778,1.081,0
6.779,-0.384,0
6.78,0.898,0
6.781,1.081,0
6.782,-1.482,0
6.783,-0.567,0
6.784,1.997,0
6.785,6.574,0
6.786,16.828,0
6.787,39.35,0
6.788,55.463,0
6.789,52.534,0
6.79,17.561,0
6.791,-25.469,0
6.792,-42.681,0
6.793,-47.808,0
6.794,-43.047,0
6.795,-38.836,0
6.796,-34.991,0
6.797,-24.371,0
6.798,-21.258,0
6.799,-18.328,0
6.8,-10.455,0
6.801,-8.074,0
6.802,-5.877,0
6.803,-3.863,0
6.804,-2.032,0
6.805,2.912,0
6.806,10.419,0
6.807,6.391,0
6.808,5.292,0
6.809,6.391,0
6.81,7.307,0
6.811,4.56,0
6.812,5.292,0
6.813,3.095,0
6.814,3.645,0
6.815,6.757,0
6.816,2.912,0
6.817,6.208,0
6.818,7.49,0
6.819,10.236,0
6.82,5.292,0
6.821,3.461,0
6.822,2.912,0
6.823,1.264,0
6.824,0.898,0
6.825,4.011,0
6.826,1.264,0
6.827,0.166,0
6.828,-0.933,0
6.829,1.081,0
6.83,4.743,0
6.831,1.447,0
6.832,2.729,0
6.833,1.63,0
6.834,3.828,0
6.835,0.349,0
6.836,7.307,0
6.837,22.504,0
6.838,42.463,0
6.839,39.899,0
6.84,42.28,0
6.841,22.321,0
6.842,30.195,0
6.843,27.814,0
6.844,-5.328,0
6.845,-38.653,0
6.846,-51.47,0
6.847,-55.315,0
6.848,-51.836,0
6.849,-42.315,0
6.85,-39.385,0
6.851,-31.512,0
6.852,-19.427,0
6.853,-17.229,0
6.854,-7.159,0
6.855,-5.328,0
6.856,-0.384,0
6.857,-1.849,0
6.858,2.18,0
6.859,3.278,0
6.86,6.574,0
6.861,9.504,0
6.862,8.588,0
6.863,7.856,0
6.864,8.588,0
6.865,9.138,0
6.866,8.588,0
6.867,8.039,0
6.868,15.546,0
6.869,32.575,0
6.87,39.716,0
6.871,19.758,0
6.872,6.391,0
6.873,-5.694,0
6.874,-7.891,0
6.875,-5.877,0
6.876,-4.046,0
6.877,-2.398,0
6.878,-3.863,0
6.879,-2.581,0
6.88,-3.68,0
6.881,-2.581,0
6.882,0.349,0
6.883,1.264,0
6.884,3.645,0
6.885,1.63,0
6.886,5.476,0
6.887,8.771,0
6.888,18.293,0
6.889,38.801,0
6.89,53.632,0
6.891,18.659,0
6.892,-14.666,0
6.893,-27.483,0
6.894,-31.329,0
6.895,-27.85,0
6.896,-24.737,0
6.897,-27.667,0
6.898,-25.103,0
6.899,-17.962,0
6.9,-15.765,0
6.901,-9.722,0
6.902,-0.567,0
6.903,1.081,0
6.904,-0.384,0
6.905,0.898,0
6.906,-0.201,0
6.907,3.095,0
6.908,2.18,0
6.909,3.095,0
6.91,8.771,0
6.911,4.926,0
6.912,6.757,0
6.913,6.208,0
6.914,3.461,0
6.915,3.828,0
6.916,4.194,0
6.917,5.292,0
6.918,5.659,0
6.919,3.828,0
6.92,4.56,0
6.921,4.743,0
6.922,2.363,0
6.923,0.898,0
6.924,1.081,0
6.925,2.912,0
6.926,0.715,0
6.927,-0.018,0
6.928,-1.849,0
6.929,-4.412,0
6.93,-0.384,0
6.931,-0.75,0
6.932,0.532,0
6.933,0.898,0
6.934,-1.666,0
6.935,0.898,0
6.936,5.292,0
6.937,4.56,0
6.938,8.771,0
6.939,18.293,0
6.94,38.801,0
6.941,47.59,0
6.942,60.957,0
6.943,24.519,0
6.944,-22.723,0
6.945,-41.583,0
6.946,-47.259,0
6.947,-42.132,0
6.948,-37.371,0
6.949,-33.16,0
6.95,-29.314,0
6.951,-25.835,0
6.952,-16.314,0
6.953,-13.384,0
6.954,-10.821,0
6.955,-8.44,0
6.956,-1.849,0
6.957,0.166,0
6.958,1.997,0
6.959,0.349,0
6.96,4.743,0
6.961,3.461,0
6.962,6.94,0
6.963,8.039,0
6.964,10.969,0
6.965,8.222,0
6.966,8.955,0
6.967,5.109,0
6.968,6.94,0
6.969,10.053,0
6.97,8.405,0
6.971,6.025,0
6.972,9.138,0
6.973,6.391,0
6.974,5.292,0
6.975,5.659,0
6.976,2.363,0
6.977,2.729,0
6.978,-1.116,0
6.979,2.18,0
6.98,4.377,0
6.981,-0.201,0
6.982,-0.75,0
6.983,4.377,0
6.984,4.926,0
6.985,4.377,0
6.986,0.532,0
6.987,0.166,0
6.988,-2.215,0
6.989,4.743,0
6.99,19.941,0
6.991,39.899,0
6.992,42.463,0
6.993,40.083,0
6.994,29.096,0
6.995,14.997,0
6.996,9.504,0
6.997,1.264,0
6.998,5.659,0
6.999,12.434,0
7,6.391,0
7.001,-10.638,0
7.002,-47.076,0
7.003,-73.26,0
7.004,-68.499,0
7.005,-64.288,0
7.006,-52.569,0
7.007,-41.949,0
7.008,-32.427,0
7.009,-23.638,0
7.01,-15.765,0
7.011,-8.624,0
7.012,-2.032,0
7.013,4.011,0
7.014,5.842,0
7.015,10.786,0
7.016,12.25,0
7.017,16.279,0
7.018,19.758,0
7.019,16.462,0
7.02,17.377,0
7.021,14.631,0
7.022,15.363,0
7.023,14.631,0
7.024,15.18,0
7.025,12.067,0
7.026,13.715,0
7.027,12.434,0
7.028,9.321,0
7.029,9.687,0
7.03,7.124,0
7.031,8.222,0
7.032,7.49,0
7.033,11.701,0
7.034,8.588,0
7.035,12.434,0
7.036,4.926,0
7.037,8.222,0
7.038,3.828,0
7.039,2.912,0
7.04,14.997,0
7.041,30.012,0
7.042,48.139,0
7.043,60.224,0
7.044,49.238,0
7.045,19.025,0
7.046,-28.582,0
7.047,-34.808,0
7.048,-40.484,0
7.049,-35.357,0
7.05,-30.596,0
7.051,-34.808,0
7.052,-23.089,0
7.053,-19.61,0
7.054,-16.497,0
7.055,-13.567,0
7.056,-5.694,0
7.057,-8.074,0
7.058,-5.877,0
7.059,-7.891,0
7.06,-2.398,0
7.061,-0.75,0
7.062,6.757,0
7.063,8.039,0
7.064,6.94,0
7.065,3.645,0
7.066,8.588,0
7.067,11.335,0
7.068,8.955,0
7.069,8.222,0
7.07,6.391,0
7.071,6.94,0
7.072,5.292,0
7.073,2.912,0
7.074,2.546,0
7.075,6.391,0
7.076,1.813,0
7.077,-0.018,0
7.078,0.532,0
7.079,0.898,0
7.08,1.264,0
7.081,2.363,0
7.082,4.926,0
7.083,0.898,0
7.084,4.194,0
7.085,1.997,0
7.086,3.095,0
7.087,4.926,0
7.088,-0.567,0
7.089,0.166,0
7.09,-2.032,0
7.091,8.222,0
7.092,24.702,0
7.093,35.688,0
7.094,41.73,0
7.095,39.899,0
7.096,28.364,0
7.097,26.899,0
7.098,17.377,0
7.099,8.955,0
7.1,3.278,0
7.101,-1.666,0
7.102,-2.581,0
7.103,8.222,0
7.104,-14.3,0
7.105,-50.005,0
7.106,-73.809,0
7.107,-78.021,0
7.108,-66.302,0
7.109,-62.823,0
7.11,-46.709,0
7.111,-37.92,0
7.112,-30.047,0
7.113,-22.906,0
7.114,-2.947,0
7.115,26.533,0
7.116,30.378,0
7.117,12.617,0
7.118,9.504,0
7.119,6.574,0
7.12,4.011,0
7.121,1.63,0
7.122,3.828,0
7.123,5.842,0
7.124,7.673,0
7.125,9.321,0
7.126,13.715,0
7.127,9.687,0
7.128,15.729,0
7.129,16.828,0
7.13,11.884,0
7.131,14.631,0
7.132,12.25,0
7.133,12.983,0
7.134,11.152,0
7.135,11.701,0
7.136,14.448,0
7.137,11.152,0
7.138,11.518,0
7.139,11.152,0
7.14,8.955,0
7.141,4.011,0
7.142,5.842,0
7.143,15.363,0
7.144,35.871,0
7.145,44.66,0
7.146,42.097,0
7.147,44.477,0
7.148,46.674,0
7.149,16.462,0
7.15,-22.54,0
7.151,-48.724,0
7.152,-53.484,0
7.153,-57.696,0
7.154,-53.851,0
7.155,-43.23,0
7.156,-40.118,0
7.157,-31.329,0
7.158,-23.455,0
7.159,-16.314,0
7.16,-9.722,0
7.161,-11.736,0
7.162,-6.243,0
7.163,-1.299,0
7.164,0.166,0
7.165,4.194,0
7.166,7.673,0
7.167,13.349,0
7.168,12.434,0
7.169,13.349,0
7.17,9.321,0
7.171,7.124,0
7.172,11.701,0
7.173,8.588,0
7.174,5.842,0
7.175,8.222,0
7.176,11.335,0
7.177,5.842,0
7.178,5.109,0
7.179,3.278,0
7.18,5.109,0
7.181,5.659,0
7.182,6.025,0
7.183,5.659,0
7.184,6.025,0
7.185,3.461,0
7.186,5.292,0
7.187,6.757,0
7.188,3.645,0
7.189,4.011,0
7.19,1.447,0
7.191,1.63,0
7.192,-2.398,0
7.193,5.109,0
7.194,22.138,0
7.195,58.576,0
7.196,53.449,0
7.197,10.419,0
7.198,-18.328,0
7.199,-33.892,0
7.2,-29.131,0
7.201,-33.343,0
7.202,-29.498,0
7.203,-26.019,0
7.204,-22.906,0
7.205,-19.976,0
7.206,-17.413,0
7.207,-15.032,0
7.208,-8.44,0
7.209,-10.455,0
7.21,-4.961,0
7.211,-3.313,0
7.212,-1.849,0
7.213,-3.13,0
7.214,5.292,0
7.215,4.194,0
7.216,3.278,0
7.217,2.363,0
7.218,4.743,0
7.219,6.94,0
7.22,6.391,0
7.221,8.222,0
7.222,8.771,0
7.223,6.391,0
7.224,6.757,0
7.225,7.124,0
7.226,6.025,0
7.227,3.461,0
7.228,2.729,0
7.229,0.898,0
7.23,1.63,0
7.231,1.813,0
7.232,2.363,0
7.233,1.081,0
7.234,3.828,0
7.235,0.349,0
7.236,4.56,0
7.237,5.109,0
7.238,0.532,0
7.239,-0.018,0
7.24,-2.764,0
7.241,-2.398,0
7.242,-1.299,0
7.243,0.898,0
7.244,7.124,0
7.245,21.04,0
7.246,51.252,0
7.247,55.463,0
7.248,19.941,0
7.249,-13.384,0
7.25,-26.202,0
7.251,-30.047,0
7.252,-33.526,0
7.253,-30.413,0
7.254,-33.343,0
7.255,-25.469,0
7.256,-23.089,0
7.257,-16.497,0
7.258,-14.483,0
7.259,-8.99,0
7.26,-4.046,0
7.261,-2.581,0
7.262,1.447,0
7.263,0.349,0
7.264,1.447,0
7.265,4.377,0
7.266,5.292,0
7.267,6.025,0
7.268,8.222,0
7.269,6.391,0
7.27,3.278,0
7.271,-1.849,0
7.272,1.447,0
7.273,3.278,0
7.274,7.124,0
7.275,5.842,0
7.276,7.124,0
7.277,9.138,0
7.278,3.461,0
7.279,4.194,0
7.28,4.926,0
7.281,4.377,0
7.282,8.771,0
7.283,7.124,0
7.284,5.842,0
7.285,6.208,0
7.286,5.842,0
7.287,7.673,0
7.288,3.645,0
7.289,4.926,0
7.29,-1.116,0
7.291,-0.384,0
7.292,0.349,0
7.293,3.828,0
7.294,3.278,0
7.295,-1.116,0
7.296,7.307,0
7.297,25.8,0
7.298,60.773,0
7.299,46.491,0
7.3,7.49,0
7.301,-18.694,0
7.302,-32.977,0
7.303,-37.188,0
7.304,-33.343,0
7.305,-36.822,0
7.306,-27.3,0
7.307,-24.371,0
7.308,-21.807,0
7.309,-19.427,0
7.31,-12.835,0
7.311,-10.821,0
7.312,-5.328,0
7.313,-6.976,0
7.314,-2.581,0
7.315,1.447,0
7.316,2.546,0
7.317,5.842,0
7.318,6.757,0
7.319,7.673,0
7.32,6.94,0
7.321,1.63,0
7.322,2.18,0
7.323,2.729,0
7.324,4.377,0
7.325,4.743,0
7.326,5.109,0
7.327,5.476,0
7.328,4.377,0
7.329,4.011,0
7.33,4.743,0
7.331,4.011,0
7.332,6.94,0
7.333,4.377,0
7.334,4.011,0
7.335,5.476,0
7.336,6.757,0
7.337,2.729,0
7.338,-1.116,0
7.339,2.18,0
7.34,3.461,0
7.341,0.715,0
7.342,0.349,0
7.343,2.18,0
7.344,-0.567,0
7.345,0.166,0
7.346,4.377,0
7.347,13.898,0
7.348,34.406,0
7.349,66.999,0
7.35,36.787,0
7.351,-6.609,0
7.352,-23.821,0
7.353,-28.948,0
7.354,-33.709,0
7.355,-29.498,0
7.356,-33.343,0
7.357,-22.723,0
7.358,-19.61,0
7.359,-16.68,0
7.36,-3.313,0
7.361,23.42,0
7.362,12.8,0
7.363,-9.722,0
7.364,-12.652,0
7.365,-15.215,0
7.366,-8.074,0
7.367,-10.271,0
7.368,-8.257,0
7.369,-2.764,0
7.37,-1.116,0
7.371,0.349,0
7.372,-0.933,0
7.373,0.166,0
7.374,5.842,0
7.375,4.926,0
7.376,5.842,0
7.377,3.461,0
7.378,5.659,0
7.379,5.109,0
7.38,3.278,0
7.381,4.926,0
7.382,4.56,0
7.383,4.926,0
7.384,5.292,0
7.385,10.969,0
7.386,11.701,0
7.387,17.011,0
7.388,18.842,0
7.389,21.955,0
7.39,23.603,0
7.391,29.096,0
7.392,31.293,0
7.393,30.744,0
7.394,27.631,0
7.395,21.406,0
7.396,17.561,0
7.397,25.068,0
7.398,28.364,0
7.399,43.562,0
7.4,50.153,0
7.401,19.941,0
7.402,-36.456,0
7.403,-59.527,0
7.404,-80.401,0
7.405,-74.175,0
7.406,-68.499,0
7.407,-63.372,0
7.408,-49.09,0
7.409,-61.907,0
7.41,-65.752,0
7.411,-83.514,0
7.412,-99.627,0
7.413,-120.32,0
7.414,-128.19,0
7.415,-125.81,0
7.416,-141.19,0
7.417,-147.23,0
7.418,-141.74,0
7.419,-126.73,0
7.42,-104.57,0
7.421,-89.739,0
7.422,-65.569,0
7.423,-16.863,0
7.424,60.224,0
7.425,132,0
7.426,160.02,0
7.427,168.44,0
7.428,160.75,0
7.429,139.88,0
7.43,133.65,0
7.431,127.97,0
7.432,122.85,0
7.433,137.13,0
7.434,149.95,0
7.435,161.66,0
7.436,179.43,0
7.437,176.31,0
7.438,167.52,0
7.439,148.85,0
7.44,126.88,0
7.441,118.08,0
7.442,99.409,0
7.443,77.436,0
7.444,50.703,0
7.445,32.941,0
7.446,25.068,0
7.447,15.546,0
7.448,30.378,0
7.449,22.504,0
7.45,44.477,0
7.451,41.547,0
7.452,1.264,0
7.453,-50.738,0
7.454,-71.612,0
7.455,-77.837,0
7.456,-83.514,0
7.457,-88.641,0
7.458,-93.401,0
7.459,-89.19,0
7.46,-85.345,0
7.461,-81.866,0
7.462,-84.979,0
7.463,-76.189,0
7.464,-73.626,0
7.465,-71.246,0
7.466,-69.048,0
7.467,-67.034,0
7.468,-68.865,0
7.469,-60.625,0
7.47,-59.161,0
7.471,-52.386,0
7.472,-51.287,0
7.473,-43.414,0
7.474,-40.484,0
7.475,-37.737,0
7.476,-32.061,0
7.477,-29.864,0
7.478,-28.033,0
7.479,-23.638,0
7.48,-19.793,0
7.481,-16.497,0
7.482,-13.384,0
7.483,-10.638,0
7.484,-4.961,0
7.485,-2.581,0
7.486,-0.384,0
7.487,-2.215,0
7.488,0.898,0
7.489,2.546,0
7.49,2.912,0
7.491,5.109,0
7.492,5.476,0
7.493,6.574,0
7.494,7.673,0
7.495,8.405,0
7.496,7.673,0
7.497,3.095,0
7.498,6.574,0
7.499,13.532,0
7.5,28.73,0
7.501,57.478,0
7.502,69.196,0
7.503,36.97,0
7.504,-2.032,0
7.505,-17.596,0
7.506,-22.356,0
7.507,-26.568,0
7.508,-30.413,0
7.509,-19.793,0
7.51,-16.68,0
7.511,-13.75,0
7.512,-11.187,0
7.513,-4.046,0
7.514,-1.849,0
7.515,0.166,0
7.516,5.659,0
7.517,7.307,0
7.518,11.701,0
7.519,10.419,0
7.52,9.321,0
7.521,12.617,0
7.522,9.687,0
7.523,6.94,0
7.524,10.969,0
7.525,10.236,0
7.526,10.786,0
7.527,10.236,0
7.528,9.687,0
7.529,10.969,0
7.53,11.335,0
7.531,7.49,0
7.532,4.194,0
7.533,8.405,0
7.534,7.856,0
7.535,4.56,0
7.536,8.771,0
7.537,9.321,0
7.538,8.039,0
7.539,5.842,0
7.54,3.828,0
7.541,6.391,0
7.542,0.898,0
7.543,1.63,0
7.544,4.926,0
7.545,1.813,0
7.546,2.363,0
7.547,2.729,0
7.548,0.898,0
7.549,1.264,0
7.55,7.49,0
7.551,21.406,0
7.552,43.562,0
7.553,46.491,0
7.554,38.618,0
7.555,21.772,0
7.556,-11.37,0
7.557,-35.174,0
7.558,-39.385,0
7.559,-43.23,0
7.56,-39.751,0
7.561,-30.23,0
7.562,-33.16,0
7.563,-25.286,0
7.564,-22.906,0
7.565,-11.919,0
7.566,-13.934,0
7.567,-4.778,0
7.568,-3.13,0
7.569,-1.666,0
7.57,5.109,0
7.571,4.011,0
7.572,9.687,0
7.573,6.757,0
7.574,7.673,0
7.575,8.405,0
7.576,4.56,0
7.577,7.856,0
7.578,7.307,0
7.579,4.56,0
7.58,7.856,0
7.581,6.574,0
7.582,8.588,0
7.583,6.025,0
7.584,6.391,0
7.585,7.124,0
7.586,9.687,0
7.587,5.659,0
7.588,3.278,0
7.589,3.645,0
7.59,3.278,0
7.591,-0.201,0
7.592,-2.398,0
7.593,-4.412,0
7.594,-4.046,0
7.595,0.715,0
7.596,-1.116,0
7.597,2.729,0
7.598,1.447,0
7.599,3.095,0
7.6,3.461,0
7.601,3.095,0
7.602,1.997,0
7.603,0.898,0
7.604,0.166,0
7.605,-1.116,0
7.606,2.912,0
7.607,11.335,0
7.608,10.236,0
7.609,-4.595,0
7.61,5.476,0
7.611,25.617,0
7.612,44.294,0
7.613,32.209,0
7.614,-0.933,0
7.615,-34.258,0
7.616,-38.47,0
7.617,-42.315,0
7.618,-38.836,0
7.619,-35.723,0
7.62,-26.934,0
7.621,-24.371,0
7.622,-17.229,0
7.623,-15.032,0
7.624,-13.018,0
7.625,-3.863,0
7.626,-5.511,0
7.627,-1.116,0
7.628,-2.398,0
7.629,1.081,0
7.63,4.377,0
7.631,7.307,0
7.632,4.56,0
7.633,8.588,0
7.634,12.434,0
7.635,10.603,0
7.636,8.771,0
7.637,6.025,0
7.638,8.405,0
7.639,5.292,0
7.64,5.659,0
7.641,2.18,0
7.642,3.461,0
7.643,0.715,0
7.644,6.391,0
7.645,2.363,0
7.646,1.63,0
7.647,-2.947,0
7.648,0.166,0
7.649,5.292,0
7.65,4.56,0
7.651,1.264,0
7.652,10.786,0
7.653,31.293,0
7.654,40.083,0
7.655,42.646,0
7.656,54.731,0
7.657,21.589,0
7.658,-2.215,0
7.659,-32.427,0
7.66,-44.146,0
7.661,-40.667,0
7.662,-43.78,0
7.663,-34.991,0
7.664,-27.117,0
7.665,-19.976,0
7.666,-13.384,0
7.667,-7.342,0
7.668,-5.511,0
7.669,-3.863,0
7.67,-5.328,0
7.671,-1.299,0
7.672,-0.201,0
7.673,3.095,0
7.674,4.011,0
7.675,8.588,0
7.676,2.912,0
7.677,6.757,0
7.678,6.208,0
7.679,9.321,0
7.68,7.673,0
7.681,10.053,0
7.682,6.94,0
7.683,8.955,0
7.684,9.321,0
7.685,8.222,0
7.686,8.405,0
7.687,9.687,0
7.688,5.659,0
7.689,4.011,0
7.69,3.645,0
7.691,0.532,0
7.692,0.166,0
7.693,-4.046,0
7.694,1.081,0
7.695,-0.75,0
7.696,-0.201,0
7.697,-0.75,0
7.698,0.532,0
7.699,2.729,0
7.7,1.63,0
7.701,3.095,0
7.702,1.997,0
7.703,7.49,0
7.704,19.025,0
7.705,30.561,0
7.706,53.083,0
7.707,49.97,0
7.708,23.237,0
7.709,-16.131,0
7.71,-42.315,0
7.711,-37.554,0
7.712,-41.766,0
7.713,-37.92,0
7.714,-34.441,0
7.715,-31.329,0
7.716,-22.54,0
7.717,-14.666,0
7.718,-12.286,0
7.719,-5.694,0
7.72,-3.68,0
7.721,-1.849,0
7.722,-3.497,0
7.723,4.011,0
7.724,2.729,0
7.725,3.828,0
7.726,7.124,0
7.727,6.208,0
7.728,8.955,0
7.729,9.687,0
7.73,7.49,0
7.731,10.786,0
7.732,8.955,0
7.733,10.603,0
7.734,5.109,0
7.735,7.307,0
7.736,5.476,0
7.737,4.926,0
7.738,6.574,0
7.739,6.208,0
7.74,4.926,0
7.741,2.912,0
7.742,2.546,0
7.743,1.447,0
7.744,4.743,0
7.745,0.532,0
7.746,-1.116,0
7.747,0.166,0
7.748,0.532,0
7.749,3.278,0
7.75,6.757,0
7.751,-0.201,0
7.752,0.898,0
7.753,3.828,0
7.754,15.913,0
7.755,27.448,0
7.756,49.97,0
7.757,53.083,0
7.758,44.294,0
7.759,9.321,0
7.76,-24.004,0
7.761,-36.822,0
7.762,-40.667,0
7.763,-44.146,0
7.764,-41.033,0
7.765,-32.244,0
7.766,-29.681,0
7.767,-22.54,0
7.768,-15.948,0
7.769,-13.934,0
7.77,-8.44,0
7.771,-6.792,0
7.772,-2.398,0
7.773,-1.116,0
7.774,2.363,0
7.775,5.659,0
7.776,2.729,0
7.777,5.476,0
7.778,4.743,0
7.779,5.476,0
7.78,7.307,0
7.781,7.856,0
7.782,6.208,0
7.783,6.574,0
7.784,7.856,0
7.785,7.49,0
7.786,6.391,0
7.787,6.757,0
7.788,4.011,0
7.789,0.532,0
7.79,0.898,0
7.791,1.997,0
7.792,0.166,0
7.793,3.461,0
7.794,1.447,0
7.795,3.278,0
7.796,2.18,0
7.797,3.645,0
7.798,2.912,0
7.799,2.18,0
7.8,-1.299,0
7.801,-1.666,0
7.802,1.447,0
7.803,-0.567,0
7.804,-1.666,0
7.805,4.011,0
7.806,16.462,0
7.807,25.617,0
7.808,47.224,0
7.809,50.153,0
7.81,20.673,0
7.811,-14.849,0
7.812,-29.131,0
7.813,-41.949,0
7.814,-38.104,0
7.815,-34.625,0
7.816,-31.512,0
7.817,-28.582,0
7.818,-26.019,0
7.819,-18.877,0
7.82,-12.286,0
7.821,-6.243,0
7.822,-4.412,0
7.823,-2.764,0
7.824,1.63,0
7.825,0.349,0
7.826,3.828,0
7.827,7.124,0
7.828,8.039,0
7.829,8.955,0
7.83,4.926,0
7.831,8.771,0
7.832,8.222,0
7.833,8.771,0
7.834,7.124,0
7.835,10.419,0
7.836,10.786,0
7.837,11.152,0
7.838,6.94,0
7.839,4.194,0
7.84,2.912,0
7.841,4.194,0
7.842,3.828,0
7.843,-1.849,0
7.844,0.532,0
7.845,2.729,0
7.846,-1.849,0
7.847,1.264,0
7.848,-0.384,0
7.849,0.898,0
7.85,1.264,0
7.851,0.166,0
7.852,5.842,0
7.853,18.293,0
7.854,-4.229,0
7.855,-9.722,0
7.856,-11.37,0
7.857,-3.863,0
7.858,13.898,0
7.859,30.744,0
7.86,41.73,0
7.861,47.773,0
7.862,20.307,0
7.863,-23.089,0
7.864,-40.301,0
7.865,-45.428,0
7.866,-40.667,0
7.867,-36.456,0
7.868,-32.61,0
7.869,-29.131,0
7.87,-19.61,0
7.871,-16.68,0
7.872,-14.117,0
7.873,-6.976,0
7.874,-4.778,0
7.875,-2.764,0
7.876,-0.933,0
7.877,0.715,0
7.878,5.109,0
7.879,9.138,0
7.88,10.236,0
7.881,13.532,0
7.882,10.603,0
7.883,9.687,0
7.884,12.067,0
7.885,12.8,0
7.886,10.969,0
7.887,7.856,0
7.888,10.603,0
7.889,9.321,0
7.89,8.039,0
7.891,6.94,0
7.892,8.771,0
7.893,6.94,0
7.894,3.645,0
7.895,2.363,0
7.896,-0.384,0
7.897,0.715,0
7.898,2.546,0
7.899,3.278,0
7.9,0.715,0
7.901,1.813,0
7.902,-0.201,0
7.903,-0.384,0
7.904,2.546,0
7.905,1.63,0
7.906,-0.933,0
7.907,4.56,0
7.908,16.096,0
7.909,37.702,0
7.91,40.632,0
7.911,38.068,0
7.912,45.209,0
7.913,34.223,0
7.914,4.011,0
7.915,-43.597,0
7.916,-49.822,0
7.917,-44.146,0
7.918,-49.273,0
7.919,-44.512,0
7.92,-40.301,0
7.921,-28.582,0
7.922,-25.103,0
7.923,-15.582,0
7.924,-12.652,0
7.925,-10.088,0
7.926,-2.947,0
7.927,-5.145,0
7.928,0.898,0
7.929,2.729,0
7.93,4.377,0
7.931,5.842,0
7.932,7.124,0
7.933,8.222,0
7.934,9.321,0
7.935,10.236,0
7.936,11.152,0
7.937,11.884,0
7.938,14.082,0
7.939,6.574,0
7.94,9.504,0
7.941,6.757,0
7.942,7.49,0
7.943,5.292,0
7.944,5.842,0
7.945,5.292,0
7.946,5.842,0
7.947,7.124,0
7.948,5.842,0
7.949,6.208,0
7.95,3.645,0
7.951,4.743,0
7.952,4.56,0
7.953,2.729,0
7.954,-1.299,0
7.955,1.447,0
7.956,3.095,0
7.957,0.715,0
7.958,7.673,0
7.959,20.856,0
7.96,48.322,0
7.961,60.041,0
7.962,27.814,0
7.963,-11.187,0
7.964,-26.751,0
7.965,-31.512,0
7.966,-27.3,0
7.967,-31.146,0
7.968,-27.667,0
7.969,-24.554,0
7.97,-27.483,0
7.971,-19.61,0
7.972,-17.229,0
7.973,-6.243,0
7.974,-4.229,0
7.975,-2.398,0
7.976,-4.046,0
7.977,0.349,0
7.978,-0.933,0
7.979,0.166,0
7.98,5.842,0
7.981,4.926,0
7.982,4.011,0
7.983,8.039,0
7.984,11.884,0
7.985,8.588,0
7.986,10.419,0
7.987,6.574,0
7.988,6.208,0
7.989,1.997,0
7.99,3.645,0
7.991,2.363,0
7.992,1.081,0
7.993,5.659,0
7.994,1.264,0
7.995,1.813,0
7.996,1.447,0
7.997,5.659,0
7.998,1.813,0
7.999,2.18,0
8,3.461,0
8.001,2.363,0
8.002,2.729,0
8.003,-1.299,0
8.004,1.997,0
8.005,-0.201,0
8.006,3.645,0
8.007,1.63,0
8.008,0.349,0
8.009,7.307,0
8.01,22.504,0
8.011,51.252,0
8.012,62.971,0
8.013,30.744,0
8.014,-16.863,0
8.015,-23.089,0
8.016,-28.765,0
8.017,-33.892,0
8.018,-29.131,0
8.019,-24.92,0
8.02,-21.075,0
8.021,-17.596,0
8.022,-14.483,0
8.023,-11.553,0
8.024,-14.117,0
8.025,-6.976,0
8.026,-9.173,0
8.027,-3.13,0
8.028,-4.961,0
8.029,-0.018,0
8.03,4.377,0
8.031,5.659,0
8.032,4.56,0
8.033,5.659,0
8.034,4.743,0
8.035,7.49,0
8.036,8.222,0
8.037,6.025,0
8.038,4.194,0
8.039,3.645,0
8.04,4.194,0
8.041,2.912,0
8.042,5.109,0
8.043,0.532,0
8.044,2.363,0
8.045,7.49,0
8.046,4.194,0
8.047,1.081,0
8.048,4.926,0
8.049,5.292,0
8.05,5.659,0
8.051,2.912,0
8.052,3.278,0
8.053,3.645,0
8.054,0.349,0
8.055,-0.933,0
8.056,-2.032,0
8.057,1.447,0
8.058,-0.567,0
8.059,1.63,0
8.06,7.856,0
8.061,21.772,0
8.062,43.928,0
8.063,58.759,0
8.064,50.886,0
8.065,14.448,0
8.066,-22.173,0
8.067,-36.456,0
8.068,-40.667,0
8.069,-36.822,0
8.07,-33.343,0
8.071,-30.23,0
8.072,-27.3,0
8.073,-19.427,0
8.074,-17.046,0
8.075,-14.849,0
8.076,-8.807,0
8.077,-6.976,0
8.078,-5.328,0
8.079,-3.863,0
8.08,0.166,0
8.081,3.645,0
8.082,6.94,0
8.083,7.856,0
8.084,8.771,0
8.085,8.039,0
8.086,10.236,0
8.087,10.786,0
8.088,10.236,0
8.089,6.391,0
8.09,5.109,0
8.091,4.743,0
8.092,6.757,0
8.093,7.124,0
8.094,3.828,0
8.095,4.926,0
8.096,10.603,0
8.097,23.054,0
8.098,32.209,0
8.099,7.307,0
8.1,-3.313,0
8.101,-6.426,0
8.102,-9.356,0
8.103,-11.919,0
8.104,-9.539,0
8.105,-7.342,0
8.106,-5.328,0
8.107,-7.159,0
8.108,4.377,0
8.109,-1.299,0
8.11,-5.694,0
8.111,12.067,0
8.112,24.152,0
8.113,39.533,0
8.114,45.576,0
8.115,51.069,0
8.116,26.167,0
8.117,-6.06,0
8.118,-36.272,0
8.119,-40.118,0
8.12,-43.597,0
8.121,-40.484,0
8.122,-31.695,0
8.123,-29.131,0
8.124,-21.99,0
8.125,-15.398,0
8.126,-13.384,0
8.127,-11.553,0
8.128,-6.609,0
8.129,-5.145,0
8.13,1.63,0
8.131,2.729,0
8.132,1.63,0
8.133,4.56,0
8.134,9.138,0
8.135,6.757,0
8.136,8.955,0
8.137,10.786,0
8.138,8.955,0
8.139,8.405,0
8.14,5.109,0
8.141,6.391,0
8.142,6.025,0
8.143,2.546,0
8.144,2.18,0
8.145,1.813,0
8.146,2.18,0
8.147,7.673,0
8.148,8.405,0
8.149,6.574,0
8.15,4.743,0
8.151,1.997,0
8.152,4.377,0
8.153,5.659,0
8.154,3.645,0
8.155,4.011,0
8.156,1.447,0
8.157,0.715,0
8.158,-1.116,0
8.159,1.813,0
8.16,0.898,0
8.161,-3.313,0
8.162,5.109,0
8.163,18.659,0
8.164,46.125,0
8.165,49.97,0
8.166,53.449,0
8.167,17.744,0
8.168,-15.582,0
8.169,-28.399,0
8.17,-32.244,0
8.171,-35.723,0
8.172,-32.61,0
8.173,-29.681,0
8.174,-27.117,0
8.175,-19.976,0
8.176,-13.384,0
8.177,-11.37,0
8.178,-9.539,0
8.179,-1.299,0
8.18,3.095,0
8.181,1.813,0
8.182,5.292,0
8.183,4.194,0
8.184,9.138,0
8.185,8.222,0
8.186,5.842,0
8.187,8.039,0
8.188,8.588,0
8.189,9.138,0
8.19,12.983,0
8.191,9.687,0
8.192,5.476,0
8.193,3.828,0
8.194,1.447,0
8.195,-0.75,0
8.196,5.476,0
8.197,6.391,0
8.198,5.659,0
8.199,4.926,0
8.2,4.377,0
8.201,4.926,0
8.202,5.476,0
8.203,-0.018,0
8.204,-0.75,0
8.205,1.081,0
8.206,2.912,0
8.207,-2.215,0
8.208,-2.764,0
8.209,-0.933,0
8.21,-1.482,0
8.211,-3.497,0
