0,0.053,0
0.001,-1.045,0
0.002,4.448,0
0.003,15.984,0
0.004,40.886,0
0.005,51.506,0
0.006,22.209,0
0.007,-5.257,0
0.008,-23.018,0
0.009,-32.539,0
0.01,-29.61,0
0.011,-27.046,0
0.012,-24.666,0
0.013,-22.469,0
0.014,-16.426,0
0.015,-14.595,0
0.016,-12.947,0
0.017,-11.482,0
0.018,-7.454,0
0.019,-3.975,0
0.02,-2.876,0
0.021,8.293,0
0.022,3.899,0
0.023,2.617,0
0.024,6.096,0
0.025,4.997,0
0.026,7.927,0
0.027,10.674,0
0.028,13.054,0
0.029,13.786,0
0.03,10.49,0
0.031,6.096,0
0.032,3.349,0
0.033,7.927,0
0.034,6.096,0
0.035,3.349,0
0.036,0.053,0
0.037,2.251,0
0.038,-0.496,0
0.039,-2.327,0
0.04,-3.426,0
0.041,1.152,0
0.042,2.983,0
0.043,3.532,0
0.044,2.983,0
0.045,2.617,0
0.046,1.335,0
0.047,2.434,0
0.048,2.068,0
0.049,0.237,0
0.05,2.251,0
0.051,0.053,0
0.052,4.265,0
0.053,13.786,0
0.054,23.308,0
0.055,4.814,0
0.056,-3.059,0
0.057,13.786,0
0.058,29.167,0
0.059,35.21,0
0.06,48.027,0
0.061,23.125,0
0.062,-9.102,0
0.063,-39.314,0
0.064,-43.159,0
0.065,-46.638,0
0.066,-43.526,0
0.067,-40.596,0
0.068,-32.722,0
0.069,-30.342,0
0.07,-23.75,0
0.071,-17.708,0
0.072,-4.89,0
0.073,-3.242,0
0.074,4.265,0
0.075,5.547,0
0.076,6.645,0
0.077,9.941,0
0.078,9.026,0
0.079,8.11,0
0.08,8.843,0
0.081,6.645,0
0.082,3.349,0
0.083,10.307,0
0.084,7.561,0
0.085,8.293,0
0.086,-0.13,0
0.087,5.547,0
0.088,8.476,0
0.089,7.561,0
0.09,5.18,0
0.091,7.378,0
0.092,7.927,0
0.093,8.476,0
0.094,6.828,0
0.095,3.532,0
0.096,4.814,0
0.097,2.068,0
0.098,4.631,0
0.099,0.603,0
0.1,5.18,0
0.101,4.631,0
0.102,5.18,0
0.103,4.631,0
0.104,12.138,0
0.105,29.167,0
0.106,46.013,0
0.107,61.394,0
0.108,47.295,0
0.109,19.829,0
0.11,-23.567,0
0.111,-29.243,0
0.112,-34.37,0
0.113,-39.131,0
0.114,-26.314,0
0.115,-30.159,0
0.116,-19.539,0
0.117,-22.652,0
0.118,-13.863,0
0.119,-11.299,0
0.12,-8.919,0
0.121,-2.327,0
0.122,-0.313,0
0.123,1.518,0
0.124,3.166,0
0.125,1.701,0
0.126,2.983,0
0.127,4.082,0
0.128,7.378,0
0.129,4.448,0
0.13,5.364,0
0.131,6.096,0
0.132,5.364,0
0.133,5.913,0
0.134,4.082,0
0.135,4.631,0
0.136,-0.862,0
0.137,6.096,0
0.138,5.18,0
0.139,5.913,0
0.14,3.716,0
0.141,7.011,0
0.142,10.124,0
0.143,6.279,0
0.144,5.913,0
0.145,5.547,0
0.146,0.969,0
0.147,1.518,0
0.148,-2.327,0
0.149,4.265,0
0.15,3.349,0
0.151,4.082,0
0.152,-1.228,0
0.153,-1.411,0
0.154,-0.862,0
0.155,8.659,0
0.156,23.674,0
0.157,41.802,0
0.158,48.943,0
0.159,42.351,0
0.16,24.223,0
0.161,-7.454,0
0.162,-37.666,0
0.163,-41.511,0
0.164,-44.99,0
0.165,-41.878,0
0.166,-33.089,0
0.167,-30.525,0
0.168,-23.384,0
0.169,-21.187,0
0.17,-15.144,0
0.171,-9.651,0
0.172,-8.003,0
0.173,-0.496,0
0.174,0.786,0
0.175,4.265,0
0.176,7.561,0
0.177,6.645,0
0.178,5.73,0
0.179,8.11,0
0.18,13.42,0
0.181,7.195,0
0.182,6.462,0
0.183,8.659,0
0.184,5.364,0
0.185,5.913,0
0.186,7.561,0
0.187,9.941,0
0.188,6.828,0
0.189,11.406,0
0.19,5.73,0
0.191,7.927,0
0.192,8.476,0
0.193,5.364,0
0.194,-0.862,0
0.195,-1.594,0
0.196,0.603,0
0.197,2.434,0
0.198,1.885,0
0.199,3.532,0
0.2,3.899,0
0.201,-0.313,0
0.202,-5.44,0
0.203,-2.144,0
0.204,-2.144,0
0.205,-0.313,0
0.206,8.11,0
0.207,26.604,0
0.208,56.084,0
0.209,59.929,0
0.21,27.702,0
0.211,-11.299,0
0.212,-26.863,0
0.213,-31.624,0
0.214,-27.412,0
0.215,-31.258,0
0.216,-27.779,0
0.217,-18.257,0
0.218,-15.327,0
0.219,-17.891,0
0.22,-15.51,0
0.221,-8.919,0
0.222,-6.905,0
0.223,-1.411,0
0.224,0.237,0
0.225,1.701,0
0.226,2.983,0
0.227,6.462,0
0.228,5.364,0
0.229,4.448,0
0.23,7.195,0
0.231,6.462,0
0.232,1.152,0
0.233,2.983,0
0.234,8.659,0
0.235,7.927,0
0.236,4.631,0
0.237,6.462,0
0.238,7.011,0
0.239,6.645,0
0.24,7.011,0
0.241,4.265,0
0.242,8.476,0
0.243,5.73,0
0.244,-0.862,0
0.245,-1.778,0
0.246,-2.51,0
0.247,1.335,0
0.248,0.786,0
0.249,1.335,0
0.25,1.885,0
0.251,3.166,0
0.252,-1.045,0
0.253,4.082,0
0.254,3.532,0
0.255,3.716,0
0.256,4.265,0
0.257,12.688,0
0.258,26.238,0
0.259,42.717,0
0.26,40.52,0
0.261,50.591,0
0.262,23.125,0
0.263,-4.341,0
0.264,-36.568,0
0.265,-32.356,0
0.266,-44.075,0
0.267,-40.596,0
0.268,-37.483,0
0.269,-40.413,0
0.27,-27.046,0
0.271,-24.666,0
0.272,-18.074,0
0.273,-8.003,0
0.274,-6.172,0
0.275,-1.228,0
0.276,3.166,0
0.277,4.448,0
0.278,3.349,0
0.279,9.026,0
0.28,9.941,0
0.281,10.857,0
0.282,10.124,0
0.283,10.857,0
0.284,11.406,0
0.285,8.293,0
0.286,3.166,0
0.287,2.617,0
0.288,7.011,0
0.289,5.364,0
0.29,7.744,0
0.291,5.547,0
0.292,8.293,0
0.293,4.814,0
0.294,7.011,0
0.295,1.518,0
0.296,-0.679,0
0.297,5.547,0
0.298,16.35,0
0.299,38.872,0
0.3,35.759,0
0.301,15.068,0
0.302,-3.609,0
0.303,-5.989,0
0.304,-8.186,0
0.305,-10.2,0
0.306,-6.538,0
0.307,-8.369,0
0.308,-13.313,0
0.309,9.209,0
0.31,31.731,0
0.311,34.66,0
0.312,37.224,0
0.313,44.365,0
0.314,15.617,0
0.315,-19.905,0
0.316,-43.709,0
0.317,-47.92,0
0.318,-44.075,0
0.319,-47.554,0
0.32,-38.032,0
0.321,-35.103,0
0.322,-27.229,0
0.323,-24.849,0
0.324,-13.863,0
0.325,-7.82,0
0.326,-9.651,0
0.327,-4.707,0
0.328,-0.313,0
0.329,3.716,0
0.33,4.814,0
0.331,8.11,0
0.332,9.026,0
0.333,9.941,0
0.334,12.322,0
0.335,11.589,0
0.336,11.04,0
0.337,12.871,0
0.338,11.223,0
0.339,9.941,0
0.34,12.138,0
0.341,15.984,0
0.342,11.406,0
0.343,11.955,0
0.344,11.406,0
0.345,8.11,0
0.346,5.913,0
0.347,3.899,0
0.348,2.8,0
0.349,5.364,0
0.35,0.786,0
0.351,2.617,0
0.352,-0.496,0
0.353,0.053,0
0.354,0.42,0
0.355,0.053,0
0.356,-1.045,0
0.357,1.518,0
0.358,6.462,0
0.359,13.969,0
0.36,29.167,0
0.361,44.548,0
0.362,50.591,0
0.363,59.746,0
0.364,34.844,0
0.365,-11.665,0
0.366,-30.525,0
0.367,-36.201,0
0.368,-41.328,0
0.369,-46.089,0
0.37,-33.272,0
0.371,-29.427,0
0.372,-25.948,0
0.373,-22.835,0
0.374,-14.046,0
0.375,-6.172,0
0.376,0.969,0
0.377,-1.228,0
0.378,0.786,0
0.379,2.617,0
0.38,4.265,0
0.381,5.73,0
0.382,1.701,0
0.383,2.8,0
0.384,6.096,0
0.385,9.026,0
0.386,8.11,0
0.387,13.786,0
0.388,17.632,0
0.389,13.054,0
0.39,13.603,0
0.391,17.448,0
0.392,22.942,0
0.393,28.252,0
0.394,30.083,0
0.395,31.914,0
0.396,33.562,0
0.397,30.266,0
0.398,25.139,0
0.399,23.308,0
0.4,18.913,0
0.401,15.068,0
0.402,12.688,0
0.403,5.73,0
0.404,-9.468,0
0.405,-24.849,0
0.406,-38.948,0
0.407,-40.779,0
0.408,-40.23,0
0.409,-38.582,0
0.41,-18.99,0
0.411,5.18,0
0.412,8.293,0
0.413,11.223,0
0.414,-2.144,0
0.415,-38.582,0
0.416,-117.32,0
0.417,-151.01,0
0.418,-161.26,0
0.419,-170.6,0
0.42,-179.02,0
0.421,-171.33,0
0.422,-150.46,0
0.423,-131.6,0
0.424,-125.92,0
0.425,-99.739,0
0.426,-56.709,0
0.427,18.364,0
0.428,90.141,0
0.429,155.51,0
0.43,180.78,0
0.431,157.71,0
0.432,136.83,0
0.433,117.97,0
0.434,112.3,0
0.435,117.42,0
0.436,103.14,0
0.437,107.35,0
0.438,119.07,0
0.439,136.83,0
0.44,152.95,0
0.441,155.88,0
0.442,158.44,0
0.443,141.59,0
0.444,121.64,0
0.445,119.07,0
0.446,106.99,0
0.447,87.029,0
0.448,57.549,0
0.449,37.956,0
0.45,34.477,0
0.451,24.956,0
0.452,27.885,0
0.453,14.519,0
0.454,2.434,0
0.455,-8.552,0
0.456,-18.623,0
0.457,-31.441,0
0.458,-36.385,0
0.459,-31.441,0
0.46,-35.835,0
0.461,-42.61,0
0.462,-24.116,0
0.463,5.364,0
0.464,1.518,0
0.465,-37.849,0
0.466,-74.47,0
0.467,-88.753,0
0.468,-92.964,0
0.469,-96.809,0
0.47,-93.33,0
0.471,-90.218,0
0.472,-93.147,0
0.473,-90.584,0
0.474,-88.203,0
0.475,-77.217,0
0.476,-75.203,0
0.477,-66.048,0
0.478,-51.033,0
0.479,-44.99,0
0.48,-39.497,0
0.481,-31.258,0
0.482,-23.75,0
0.483,-22.469,0
0.484,-18.99,0
0.485,-15.694,0
0.486,-10.75,0
0.487,-2.327,0
0.488,5.547,0
0.489,6.462,0
0.49,9.209,0
0.491,8.476,0
0.492,9.209,0
0.493,7.378,0
0.494,1.701,0
0.495,2.434,0
0.496,2.983,0
0.497,4.814,0
0.498,3.166,0
0.499,4.448,0
0.5,6.645,0
0.501,7.744,0
0.502,13.42,0
0.503,12.688,0
0.504,11.955,0
0.505,7.378,0
0.506,6.828,0
0.507,4.082,0
0.508,5.364,0
0.509,8.476,0
0.51,5.18,0
0.511,2.434,0
0.512,8.11,0
0.513,20.561,0
0.514,44.365,0
0.515,60.478,0
0.516,63.408,0
0.517,33.928,0
0.518,-1.594,0
0.519,-25.398,0
0.52,-29.61,0
0.521,-33.455,0
0.522,-29.976,0
0.523,-26.863,0
0.524,-23.933,0
0.525,-21.37,0
0.526,-14.229,0
0.527,-7.637,0
0.528,-1.594,0
0.529,0.237,0
0.53,-1.411,0
0.531,0.053,0
0.532,6.828,0
0.533,5.73,0
0.534,9.026,0
0.535,9.941,0
0.536,9.026,0
0.537,9.758,0
0.538,10.49,0
0.539,11.04,0
0.54,12.871,0
0.541,11.223,0
0.542,10.857,0
0.543,12.138,0
0.544,18.364,0
0.545,32.28,0
0.546,30.266,0
0.547,13.786,0
0.548,2.8,0
0.549,4.814,0
0.55,6.645,0
0.551,1.701,0
0.552,0.237,0
0.553,-1.045,0
0.554,-4.524,0
0.555,-1.228,0
0.556,-0.313,0
0.557,-3.059,0
0.558,-0.679,0
0.559,0.053,0
0.56,0.603,0
0.561,-1.411,0
0.562,-3.242,0
0.563,5.18,0
0.564,23.674,0
0.565,42.351,0
0.566,49.492,0
0.567,29.533,0
0.568,0.053,0
0.569,-27.412,0
0.57,-38.032,0
0.571,-34.92,0
0.572,-37.849,0
0.573,-24.483,0
0.574,-22.102,0
0.575,-15.51,0
0.576,-13.496,0
0.577,-8.003,0
0.578,-3.059,0
0.579,1.335,0
0.58,2.617,0
0.581,6.096,0
0.582,2.8,0
0.583,1.885,0
0.584,4.631,0
0.585,-2.876,0
0.586,0.053,0
0.587,-2.693,0
0.588,2.983,0
0.589,8.293,0
0.59,7.744,0
0.591,7.195,0
0.592,13.42,0
0.593,9.392,0
0.594,4.082,0
0.595,2.251,0
0.596,1.701,0
0.597,1.152,0
0.598,0.786,0
0.599,0.42,0
0.6,3.166,0
0.601,2.068,0
0.602,2.434,0
0.603,3.166,0
0.604,4.448,0
0.605,1.518,0
0.606,7.195,0
0.607,6.462,0
0.608,1.152,0
0.609,5.73,0
0.61,5.18,0
0.611,0.053,0
0.612,4.448,0
0.613,4.997,0
0.614,14.519,0
0.615,29.533,0
0.616,59.746,0
0.617,55.534,0
0.618,20.012,0
0.619,-13.313,0
0.62,-26.131,0
0.621,-29.976,0
0.622,-26.497,0
0.623,-23.384,0
0.624,-20.454,0
0.625,-23.018,0
0.626,-25.398,0
0.627,-23.201,0
0.628,-17.158,0
0.629,-15.327,0
0.63,-7.088,0
0.631,-8.552,0
0.632,-7.271,0
0.633,-1.228,0
0.634,2.068,0
0.635,7.011,0
0.636,11.589,0
0.637,10.857,0
0.638,10.124,0
0.639,10.674,0
0.64,8.843,0
0.641,6.096,0
0.642,4.814,0
0.643,5.18,0
0.644,4.082,0
0.645,5.18,0
0.646,8.476,0
0.647,7.378,0
0.648,8.476,0
0.649,2.983,0
0.65,0.786,0
0.651,2.617,0
0.652,-0.496,0
0.653,-2.144,0
0.654,1.152,0
0.655,5.364,0
0.656,8.11,0
0.657,8.476,0
0.658,8.843,0
0.659,7.744,0
0.66,5.18,0
0.661,-0.313,0
0.662,-2.51,0
0.663,-0.679,0
0.664,-3.975,0
0.665,5.547,0
0.666,26.054,0
0.667,34.844,0
0.668,48.21,0
0.669,60.295,0
0.67,27.153,0
0.671,-15.877,0
0.672,-44.624,0
0.673,-39.497,0
0.674,-44.258,0
0.675,-40.047,0
0.676,-36.201,0
0.677,-32.722,0
0.678,-23.201,0
0.679,-14.412,0
0.68,-11.848,0
0.681,-4.707,0
0.682,-2.51,0
0.683,-0.496,0
0.684,4.997,0
0.685,6.645,0
0.686,11.04,0
0.687,15.068,0
0.688,13.969,0
0.689,12.871,0
0.69,11.955,0
0.691,11.04,0
0.692,10.307,0
0.693,4.997,0
0.694,4.448,0
0.695,6.279,0
0.696,1.152,0
0.697,-2.144,0
0.698,-2.693,0
0.699,3.532,0
0.7,2.8,0
0.701,4.997,0
0.702,8.293,0
0.703,6.462,0
0.704,8.11,0
0.705,5.73,0
0.706,2.617,0
0.707,-0.13,0
0.708,4.814,0
0.709,0.237,0
0.71,-0.313,0
0.711,-0.862,0
0.712,1.518,0
0.713,1.885,0
0.714,0.053,0
0.715,1.152,0
0.716,6.828,0
0.717,19.28,0
0.718,35.759,0
0.719,55.718,0
0.72,58.281,0
0.721,21.843,0
0.722,-14.778,0
0.723,-38.582,0
0.724,-42.793,0
0.725,-38.948,0
0.726,-42.427,0
0.727,-32.906,0
0.728,-29.976,0
0.729,-22.102,0
0.73,-19.722,0
0.731,-8.736,0
0.732,1.335,0
0.733,-0.496,0
0.734,4.448,0
0.735,2.983,0
0.736,4.265,0
0.737,7.744,0
0.738,2.068,0
0.739,7.011,0
0.74,9.758,0
0.741,10.49,0
0.742,9.758,0
0.743,6.462,0
0.744,5.913,0
0.745,4.265,0
0.746,0.969,0
0.747,1.335,0
0.748,1.701,0
0.749,-0.13,0
0.75,3.166,0
0.751,2.8,0
0.752,0.969,0
0.753,6.462,0
0.754,10.307,0
0.755,9.758,0
0.756,11.589,0
0.757,9.941,0
0.758,6.645,0
0.759,5.364,0
0.76,4.265,0
0.761,6.828,0
0.762,10.124,0
0.763,9.758,0
0.764,4.814,0
0.765,-0.679,0
0.766,-0.13,0
0.767,5.547,0
0.768,17.082,0
0.769,41.985,0
0.77,45.464,0
0.771,42.351,0
0.772,45.281,0
0.773,37.407,0
0.774,0.969,0
0.775,-35.652,0
0.776,-49.934,0
0.777,-54.146,0
0.778,-57.991,0
0.779,-47.371,0
0.78,-37.849,0
0.781,-29.06,0
0.782,-21.187,0
0.783,-14.046,0
0.784,-11.848,0
0.785,-13.863,0
0.786,-8.369,0
0.787,-3.426,0
0.788,0.969,0
0.789,4.997,0
0.79,23.491,0
0.791,36.858,0
0.792,20.012,0
0.793,4.631,0
0.794,2.617,0
0.795,0.786,0
0.796,-0.862,0
0.797,-2.327,0
0.798,-3.609,0
0.799,2.434,0
0.8,-0.862,0
0.801,-3.792,0
0.802,4.631,0
0.803,3.532,0
0.804,4.448,0
0.805,5.364,0
0.806,9.392,0
0.807,7.195,0
0.808,2.617,0
0.809,2.068,0
0.81,2.617,0
0.811,2.251,0
0.812,-0.862,0
0.813,1.152,0
0.814,2.983,0
0.815,7.744,0
0.816,3.716,0
0.817,5.547,0
0.818,8.293,0
0.819,15.801,0
0.82,32.829,0
0.821,64.507,0
0.822,34.294,0
0.823,-1.228,0
0.824,-25.032,0
0.825,-29.243,0
0.826,-33.089,0
0.827,-29.61,0
0.828,-32.722,0
0.829,-23.933,0
0.83,-21.37,0
0.831,-18.99,0
0.832,-16.792,0
0.833,-10.75,0
0.834,-8.919,0
0.835,-0.679,0
0.836,-5.073,0
0.837,1.701,0
0.838,5.18,0
0.839,6.279,0
0.84,7.195,0
0.841,13.603,0
0.842,12.871,0
0.843,12.138,0
0.844,10.307,0
0.845,7.195,0
0.846,5.547,0
0.847,5.913,0
0.848,6.279,0
0.849,4.265,0
0.85,3.899,0
0.851,-1.594,0
0.852,3.716,0
0.853,5.547,0
0.854,3.716,0
0.855,4.265,0
0.856,4.631,0
0.857,-1.411,0
0.858,-0.679,0
0.859,0.053,0
0.86,0.603,0
0.861,2.434,0
0.862,8.659,0
0.863,-2.144,0
0.864,2.251,0
0.865,-1.778,0
0.866,-0.679,0
0.867,2.251,0
0.868,1.152,0
0.869,2.068,0
0.87,15.984,0
0.871,46.196,0
0.872,41.985,0
0.873,38.139,0
0.874,41.618,0
0.875,44.731,0
0.876,12.138,0
0.877,-26.863,0
0.878,-53.047,0
0.879,-57.808,0
0.88,-53.596,0
0.881,-49.751,0
0.882,-46.272,0
0.883,-36.751,0
0.884,-21.919,0
0.885,-14.046,0
0.886,-11.665,0
0.887,-5.073,0
0.888,-3.059,0
0.889,-1.228,0
0.89,-2.876,0
0.891,4.631,0
0.892,8.659,0
0.893,7.561,0
0.894,10.857,0
0.895,7.927,0
0.896,10.674,0
0.897,8.293,0
0.898,13.603,0
0.899,11.772,0
0.9,4.814,0
0.901,3.899,0
0.902,6.279,0
0.903,7.011,0
0.904,7.561,0
0.905,3.166,0
0.906,9.392,0
0.907,5.364,0
0.908,9.209,0
0.909,18.181,0
0.91,36.675,0
0.911,55.351,0
0.912,62.492,0
0.913,29.35,0
0.914,-13.679,0
0.915,-30.891,0
0.916,-36.018,0
0.917,-31.258,0
0.918,-32.173,0
0.919,-27.962,0
0.92,-8.369,0
0.921,16.533,0
0.922,26.054,0
0.923,34.844,0
0.924,53.52,0
0.925,26.787,0
0.926,-5.44,0
0.927,-35.652,0
0.928,-47.371,0
0.929,-43.892,0
0.93,-34.37,0
0.931,-25.581,0
0.932,-28.145,0
0.933,-25.764,0
0.934,-19.173,0
0.935,-9.102,0
0.936,-10.933,0
0.937,-2.693,0
0.938,1.701,0
0.939,5.73,0
0.94,9.209,0
0.941,12.505,0
0.942,11.589,0
0.943,10.674,0
0.944,9.941,0
0.945,13.786,0
0.946,13.237,0
0.947,6.279,0
0.948,9.026,0
0.949,13.054,0
0.95,12.322,0
0.951,9.026,0
0.952,8.476,0
0.953,2.251,0
0.954,4.631,0
0.955,6.828,0
0.956,10.124,0
0.957,10.674,0
0.958,12.322,0
0.959,9.941,0
0.96,5.73,0
0.961,-0.496,0
0.962,5.18,0
0.963,2.983,0
0.964,3.532,0
0.965,1.701,0
0.966,4.448,0
0.967,-1.045,0
0.968,2.8,0
0.969,2.983,0
0.97,3.532,0
0.971,13.054,0
0.972,25.322,0
0.973,30.266,0
0.974,52.788,0
0.975,55.901,0
0.976,23.308,0
0.977,-15.694,0
0.978,-41.878,0
0.979,-46.638,0
0.98,-42.427,0
0.981,-38.582,0
0.982,-35.103,0
0.983,-31.99,0
0.984,-29.06,0
0.985,-21.187,0
0.986,-18.806,0
0.987,-12.215,0
0.988,-2.144,0
0.989,3.349,0
0.99,4.997,0
0.991,6.462,0
0.992,7.744,0
0.993,8.843,0
0.994,9.941,0
0.995,7.011,0
0.996,7.927,0
0.997,3.899,0
0.998,6.096,0
0.999,5.547,0
1,7.378,0
1.001,5.73,0
1.002,5.364,0
1.003,4.082,0
1.004,5.18,0
1.005,2.617,0
1.006,1.518,0
1.007,4.814,0
1.008,7.011,0
1.009,9.026,0
1.01,7.195,0
1.011,2.434,0
1.012,2.983,0
1.013,-0.862,0
1.014,2.434,0
1.015,1.152,0
1.016,3.166,0
1.017,-2.51,0
1.018,3.166,0
1.019,3.899,0
1.02,4.448,0
1.021,-0.13,0
1.022,2.983,0
1.023,11.406,0
1.024,29.9,0
1.025,64.873,0
1.026,31.548,0
1.027,-16.06,0
1.028,-22.285,0
1.029,-27.962,0
1.03,-33.089,0
1.031,-28.328,0
1.032,-32.539,0
1.033,-20.821,0
1.034,-17.342,0
1.035,-1.228,0
1.036,13.603,0
1.037,21.477,0
1.038,-0.496,0
1.039,-3.426,0
1.04,-5.989,0
1.041,-3.609,0
1.042,-10.2,0
1.043,-4.158,0
1.044,-5.989,0
1.045,2.251,0
1.046,-2.144,0
1.047,-0.862,0
1.048,0.237,0
1.049,8.11,0
1.05,7.195,0
1.051,6.279,0
1.052,8.659,0
1.053,6.462,0
1.054,3.166,0
1.055,7.561,0
1.056,5.913,0
1.057,7.195,0
1.058,4.082,0
1.059,0.237,0
1.06,-1.045,0
1.061,1.152,0
1.062,3.166,0
1.063,1.335,0
1.064,-1.228,0
1.065,0.786,0
1.066,2.617,0
1.067,2.8,0
1.068,0.603,0
1.069,3.716,0
1.07,-2.51,0
1.071,6.645,0
1.072,5.73,0
1.073,18.181,0
1.074,30.998,0
1.075,49.309,0
1.076,61.394,0
1.077,59.197,0
1.078,28.984,0
1.079,-18.623,0
1.08,-37.483,0
1.081,-31.807,0
1.082,-36.934,0
1.083,-41.695,0
1.084,-37.483,0
1.085,-33.638,0
1.086,-23.018,0
1.087,-19.905,0
1.088,-11.116,0
1.089,-8.552,0
1.09,3.532,0
1.091,1.335,0
1.092,-0.679,0
1.093,1.152,0
1.094,6.096,0
1.095,4.631,0
1.096,5.913,0
1.097,9.392,0
1.098,6.096,0
1.099,3.166,0
1.1,0.42,0
1.101,2.8,0
1.102,3.532,0
1.103,5.364,0
1.104,3.532,0
1.105,7.378,0
1.106,7.744,0
1.107,5.547,0
1.108,2.8,0
1.109,8.476,0
1.11,7.744,0
1.111,7.011,0
1.112,6.462,0
1.113,2.068,0
1.114,4.814,0
1.115,6.096,0
1.116,4.814,0
1.117,2.8,0
1.118,4.631,0
1.119,7.927,0
1.12,3.349,0
1.121,0.237,0
1.122,3.716,0
1.123,0.969,0
1.124,8.476,0
1.125,25.505,0
1.126,42.351,0
1.127,44.548,0
1.128,42.534,0
1.129,18.73,0
1.13,-10.567,0
1.131,-38.032,0
1.132,-41.511,0
1.133,-44.624,0
1.134,-41.695,0
1.135,-39.131,0
1.136,-31.99,0
1.137,-21.004,0
1.138,-14.961,0
1.139,-9.468,0
1.14,-4.524,0
1.141,-0.13,0
1.142,-1.411,0
1.143,-0.313,0
1.144,-3.609,0
1.145,-0.679,0
1.146,2.068,0
1.147,4.448,0
1.148,5.18,0
1.149,5.73,0
1.15,3.899,0
1.151,1.152,0
1.152,6.645,0
1.153,5.913,0
1.154,4.082,0
1.155,4.631,0
1.156,8.476,0
1.157,8.11,0
1.158,11.223,0
1.159,10.124,0
1.16,5.18,0
1.161,0.603,0
1.162,4.997,0
1.163,6.645,0
1.164,7.011,0
1.165,9.209,0
1.166,8.11,0
1.167,8.476,0
1.168,6.645,0
1.169,2.068,0
1.17,-4.158,0
1.171,-1.778,0
1.172,2.068,0
1.173,3.716,0
1.174,1.885,0
1.175,11.406,0
1.176,23.674,0
1.177,41.985,0
1.178,63.957,0
1.179,43.266,0
1.18,2.983,0
1.181,-14.229,0
1.182,-29.793,0
1.183,-34.553,0
1.184,-38.765,0
1.185,-42.61,0
1.186,-31.99,0
1.187,-28.877,0
1.188,-20.088,0
1.189,-17.525,0
1.19,-10.384,0
1.191,-3.792,0
1.192,-1.778,0
1.193,-3.609,0
1.194,1.335,0
1.195,2.8,0
1.196,6.828,0
1.197,5.73,0
1.198,0.053,0
1.199,2.983,0
1.2,3.899,0
1.201,7.927,0
1.202,13.237,0
1.203,9.941,0
1.204,9.392,0
1.205,6.645,0
1.206,7.927,0
1.207,11.04,0
1.208,9.941,0
1.209,4.265,0
1.21,8.293,0
1.211,1.335,0
1.212,4.082,0
1.213,4.814,0
1.214,0.969,0
1.215,2.8,0
1.216,4.631,0
1.217,4.082,0
1.218,3.716,0
1.219,0.603,0
1.22,0.237,0
1.221,2.068,0
1.222,2.434,0
1.223,2.251,0
1.224,2.251,0
1.225,2.983,0
1.226,7.011,0
1.227,15.434,0
1.228,33.928,0
1.229,58.098,0
1.23,28.801,0
1.231,-14.595,0
1.232,-31.807,0
1.233,-36.934,0
1.234,-41.695,0
1.235,-37.483,0
1.236,-33.638,0
1.237,-23.018,0
1.238,-13.496,0
1.239,-10.567,0
1.24,-8.003,0
1.241,-5.623,0
1.242,-7.82,0
1.243,-9.834,0
1.244,-0.679,0
1.245,-5.623,0
1.246,-4.158,0
1.247,2.617,0
1.248,3.716,0
1.249,4.814,0
1.25,1.885,0
1.251,8.293,0
1.252,7.561,0
1.253,5.364,0
1.254,4.814,0
1.255,6.645,0
1.256,3.899,0
1.257,11.406,0
1.258,10.307,0
1.259,9.392,0
1.26,6.645,0
1.261,15.801,0
1.262,12.322,0
1.263,6.645,0
1.264,3.716,0
1.265,2.8,0
1.266,-1.228,0
1.267,-0.496,0
1.268,-3.792,0
1.269,1.885,0
1.27,2.617,0
1.271,4.448,0
1.272,1.335,0
1.273,0.786,0
1.274,1.152,0
1.275,3.716,0
1.276,0.603,0
1.277,0.969,0
1.278,2.8,0
1.279,6.828,0
1.28,9.209,0
1.281,9.575,0
1.282,15.801,0
1.283,24.223,0
1.284,7.195,0
1.285,-14.778,0
1.286,17.815,0
1.287,30.632,0
1.288,26.787,0
1.289,30.266,0
1.29,20.744,0
1.291,11.955,0
1.292,4.082,0
1.293,-12.764,0
1.294,7.195,0
1.295,9.758,0
1.296,-16.975,0
1.297,-56.343,0
1.298,-61.47,0
1.299,-66.231,0
1.3,-62.019,0
1.301,-58.174,0
1.302,-47.554,0
1.303,-38.032,0
1.304,-29.243,0
1.305,-21.37,0
1.306,-14.229,0
1.307,-7.637,0
1.308,2.434,0
1.309,7.927,0
1.31,12.871,0
1.311,14.336,0
1.312,15.617,0
1.313,16.716,0
1.314,17.815,0
1.315,16.899,0
1.316,17.815,0
1.317,25.322,0
1.318,18.364,0
1.319,19.28,0
1.32,16.899,0
1.321,19.096,0
1.322,15.801,0
1.323,16.35,0
1.324,14.702,0
1.325,20.195,0
1.326,13.969,0
1.327,8.659,0
1.328,18.913,0
1.329,41.435,0
1.33,63.957,0
1.331,66.887,0
1.332,31.914,0
1.333,-11.116,0
1.334,-28.328,0
1.335,-33.455,0
1.336,-28.694,0
1.337,-32.906,0
1.338,-29.06,0
1.339,-18.44,0
1.34,-15.327,0
1.341,-12.398,0
1.342,-14.961,0
1.343,-7.82,0
1.344,-10.017,0
1.345,-3.975,0
1.346,-2.144,0
1.347,-3.792,0
1.348,0.603,0
1.349,-0.679,0
1.35,5.364,0
1.351,4.265,0
1.352,7.195,0
1.353,8.11,0
1.354,2.434,0
1.355,4.631,0
1.356,5.18,0
1.357,5.73,0
1.358,6.279,0
1.359,4.997,0
1.36,2.8,0
1.361,2.434,0
1.362,2.068,0
1.363,0.969,0
1.364,0.786,0
1.365,4.997,0
1.366,1.885,0
1.367,5.73,0
1.368,9.026,0
1.369,15.984,0
1.37,16.899,0
1.371,19.646,0
1.372,22.026,0
1.373,22.759,0
1.374,26.054,0
1.375,29.167,0
1.376,25.322,0
1.377,20.561,0
1.378,13.054,0
1.379,25.505,0
1.38,27.153,0
1.381,49.675,0
1.382,59.197,0
1.383,14.702,0
1.384,-29.61,0
1.385,-69.893,0
1.386,-75.02,0
1.387,-79.781,0
1.388,-66.963,0
1.389,-55.244,0
1.39,-44.624,0
1.391,-41.511,0
1.392,-56.343,0
1.393,-69.71,0
1.394,-81.795,0
1.395,-101.75,0
1.396,-109.63,0
1.397,-131.6,0
1.398,-140.39,0
1.399,-137.82,0
1.4,-144.97,0
1.401,-142.77,0
1.402,-124.64,0
1.403,-112.56,0
1.404,-83.809,0
1.405,-32.539,0
1.406,44.548,0
1.407,116.33,0
1.408,163.02,0
1.409,171.44,0
1.41,163.75,0
1.411,142.88,0
1.412,124.02,0
1.413,118.34,0
1.414,123.47,0
1.415,109.18,0
1.416,113.4,0
1.417,132.99,0
1.418,157.89,0
1.419,154.78,0
1.42,145.99,0
1.421,132.62,0
1.422,110.65,0
1.423,95.818,0
1.424,93.254,0
1.425,90.874,0
1.426,75.493,0
1.427,45.281,0
1.428,21.294,0
1.429,17.082,0
1.43,36.675,0
1.431,47.295,0
1.432,50.407,0
1.433,59.197,0
1.434,35.027,0
1.435,-13.679,0
1.436,-48.653,0
1.437,-80.33,0
1.438,-74.654,0
1.439,-69.527,0
1.44,-83.809,0
1.441,-88.02,0
1.442,-76.302,0
1.443,-72.823,0
1.444,-69.71,0
1.445,-60.921,0
1.446,-63.484,0
1.447,-56.343,0
1.448,-58.54,0
1.449,-52.498,0
1.45,-54.329,0
1.451,-59.273,0
1.452,-60.738,0
1.453,-53.963,0
1.454,-50.484,0
1.455,-47.188,0
1.456,-42.244,0
1.457,-39.497,0
1.458,-38.765,0
1.459,-34.92,0
1.46,-38.216,0
1.461,-36.385,0
1.462,-29.06,0
1.463,-17.891,0
1.464,-13.496,0
1.465,-14.778,0
1.466,-11.299,0
1.467,-8.003,0
1.468,-3.059,0
1.469,-3.975,0
1.47,-1.594,0
1.471,0.603,0
1.472,1.152,0
1.473,5.547,0
1.474,11.772,0
1.475,4.265,0
1.476,5.18,0
1.477,2.434,0
1.478,4.814,0
1.479,9.575,0
1.48,7.378,0
1.481,17.632,0
1.482,40.154,0
1.483,62.676,0
1.484,65.605,0
1.485,57.732,0
1.486,26.054,0
1.487,-12.947,0
1.488,-28.511,0
1.489,-33.272,0
1.49,-29.06,0
1.491,-25.215,0
1.492,-21.736,0
1.493,-12.215,0
1.494,-15.144,0
1.495,-7.271,0
1.496,-0.13,0
1.497,-2.327,0
1.498,-0.313,0
1.499,1.518,0
1.5,3.166,0
1.501,7.561,0
1.502,8.843,0
1.503,12.322,0
1.504,9.026,0
1.505,11.955,0
1.506,14.702,0
1.507,9.026,0
1.508,8.293,0
1.509,10.124,0
1.51,14.519,0
1.511,15.068,0
1.512,16.35,0
1.513,15.984,0
1.514,16.35,0
1.515,10.674,0
1.516,8.293,0
1.517,9.026,0
1.518,7.195,0
1.519,7.744,0
1.52,6.096,0
1.521,8.476,0
1.522,8.843,0
1.523,9.941,0
1.524,4.265,0
1.525,1.885,0
1.526,-0.313,0
1.527,9.941,0
1.528,32.463,0
1.529,22.942,0
1.53,-1.411,0
1.531,-4.341,0
1.532,-6.905,0
1.533,-4.524,0
1.534,6.462,0
1.535,24.59,0
1.536,46.562,0
1.537,49.492,0
1.538,46.928,0
1.539,10.49,0
1.54,-26.131,0
1.541,-40.413,0
1.542,-44.624,0
1.543,-40.779,0
1.544,-37.3,0
1.545,-34.187,0
1.546,-31.258,0
1.547,-23.384,0
1.548,-21.004,0
1.549,-18.806,0
1.55,-16.792,0
1.551,-3.975,0
1.552,-2.327,0
1.553,-0.862,0
1.554,5.913,0
1.555,9.392,0
1.556,10.49,0
1.557,9.575,0
1.558,12.322,0
1.559,14.702,0
1.56,12.505,0
1.561,11.955,0
1.562,7.561,0
1.563,8.11,0
1.564,9.392,0
1.565,8.11,0
1.566,8.476,0
1.567,5.913,0
1.568,7.011,0
1.569,9.758,0
1.57,11.589,0
1.571,9.758,0
1.572,6.462,0
1.573,7.744,0
1.574,4.997,0
1.575,6.828,0
1.576,2.068,0
1.577,2.617,0
1.578,-1.228,0
1.579,-1.594,0
1.58,0.603,0
1.581,0.053,0
1.582,-1.045,0
1.583,4.631,0
1.584,17.082,0
1.585,44.548,0
1.586,64.14,0
1.587,31.914,0
1.588,-7.088,0
1.589,-22.652,0
1.59,-36.934,0
1.591,-32.722,0
1.592,-36.568,0
1.593,-33.089,0
1.594,-29.976,0
1.595,-21.187,0
1.596,-18.623,0
1.597,-16.243,0
1.598,-9.651,0
1.599,-7.637,0
1.6,-2.144,0
1.601,2.8,0
1.602,-1.594,0
1.603,2.434,0
1.604,3.532,0
1.605,6.828,0
1.606,7.744,0
1.607,10.49,0
1.608,6.462,0
1.609,5.73,0
1.61,6.279,0
1.611,6.828,0
1.612,4.082,0
1.613,5.364,0
1.614,8.476,0
1.615,3.899,0
1.616,5.73,0
1.617,4.082,0
1.618,5.364,0
1.619,-1.594,0
1.62,5.364,0
1.621,6.279,0
1.622,2.251,0
1.623,0.053,0
1.624,-0.496,0
1.625,1.335,0
1.626,-0.313,0
1.627,0.969,0
1.628,0.603,0
1.629,2.617,0
1.63,0.053,0
1.631,-3.975,0
1.632,-2.144,0
1.633,-1.778,0
1.634,5.18,0
1.635,20.378,0
1.636,44.731,0
1.637,54.253,0
1.638,57.182,0
1.639,27.702,0
1.64,0.237,0
1.641,-24.666,0
1.642,-40.779,0
1.643,-49.568,0
1.644,-52.132,0
1.645,-40.047,0
1.646,-29.06,0
1.647,-23.018,0
1.648,-21.187,0
1.649,-19.539,0
1.65,-15.144,0
1.651,-8.369,0
1.652,-4.89,0
1.653,5.364,0
1.654,1.335,0
1.655,4.814,0
1.656,8.11,0
1.657,11.04,0
1.658,15.617,0
1.659,14.885,0
1.66,9.575,0
1.661,9.026,0
1.662,9.575,0
1.663,6.828,0
1.664,10.124,0
1.665,8.843,0
1.666,4.997,0
1.667,2.617,0
1.668,5.73,0
1.669,8.476,0
1.67,8.843,0
1.671,11.406,0
1.672,11.589,0
1.673,7.927,0
1.674,8.293,0
1.675,5.18,0
1.676,6.279,0
1.677,2.8,0
1.678,-1.411,0
1.679,1.335,0
1.68,-4.158,0
1.681,-6.355,0
1.682,-3.059,0
1.683,3.716,0
1.684,1.885,0
1.685,10.307,0
1.686,28.801,0
1.687,42.168,0
1.688,49.309,0
1.689,29.35,0
1.69,5.18,0
1.691,-17.342,0
1.692,-32.173,0
1.693,-34.737,0
1.694,-37.117,0
1.695,-34.92,0
1.696,-32.906,0
1.697,-23.75,0
1.698,-22.102,0
1.699,-26.497,0
1.7,-16.975,0
1.701,-13.496,0
1.702,-10.2,0
1.703,-5.257,0
1.704,-2.51,0
1.705,1.518,0
1.706,5.364,0
1.707,9.941,0
1.708,9.392,0
1.709,8.843,0
1.71,3.349,0
1.711,5.547,0
1.712,7.378,0
1.713,10.49,0
1.714,13.237,0
1.715,7.744,0
1.716,7.011,0
1.717,5.18,0
1.718,7.011,0
1.719,8.659,0
1.72,9.026,0
1.721,5.913,0
1.722,7.011,0
1.723,7.378,0
1.724,4.814,0
1.725,4.631,0
1.726,4.448,0
1.727,3.166,0
1.728,2.983,0
1.729,3.166,0
1.73,2.983,0
1.731,2.068,0
1.732,0.053,0
1.733,-1.045,0
1.734,-2.144,0
1.735,-0.13,0
1.736,4.082,0
1.737,13.603,0
1.738,34.111,0
1.739,48.943,0
1.74,62.309,0
1.741,40.337,0
1.742,-4.158,0
1.743,-35.835,0
1.744,-41.511,0
1.745,-46.638,0
1.746,-41.878,0
1.747,-46.089,0
1.748,-34.37,0
1.749,-30.891,0
1.75,-21.37,0
1.751,-18.44,0
1.752,-15.877,0
1.753,-13.496,0
1.754,-6.905,0
1.755,-0.862,0
1.756,4.631,0
1.757,6.279,0
1.758,10.674,0
1.759,9.392,0
1.76,5.913,0
1.761,4.814,0
1.762,1.885,0
1.763,8.293,0
1.764,10.674,0
1.765,11.406,0
1.766,8.11,0
1.767,11.223,0
1.768,9.575,0
1.769,7.195,0
1.77,5.913,0
1.771,7.927,0
1.772,11.406,0
1.773,18.364,0
1.774,33.562,0
1.775,18.181,0
1.776,0.053,0
1.777,-2.327,0
1.778,-13.313,0
1.779,-15.327,0
1.78,-13.496,0
1.781,-8.552,0
1.782,-10.017,0
1.783,-3.242,0
1.784,-6.721,0
1.785,-1.411,0
1.786,-7.088,0
1.787,2.068,0
1.788,20.561,0
1.789,60.844,0
1.79,66.521,0
1.791,29.9,0
1.792,-13.13,0
1.793,-30.342,0
1.794,-35.469,0
1.795,-30.708,0
1.796,-26.497,0
1.797,-30.342,0
1.798,-19.722,0
1.799,-16.609,0
1.8,-13.679,0
1.801,-11.116,0
1.802,-8.736,0
1.803,-2.144,0
1.804,7.927,0
1.805,6.096,0
1.806,4.448,0
1.807,2.983,0
1.808,4.265,0
1.809,7.744,0
1.81,6.645,0
1.811,9.575,0
1.812,10.49,0
1.813,8.11,0
1.814,4.265,0
1.815,-3.242,0
1.816,1.701,0
1.817,2.617,0
1.818,1.885,0
1.819,2.617,0
1.82,8.843,0
1.821,6.462,0
1.822,8.659,0
1.823,9.209,0
1.824,8.659,0
1.825,5.913,0
1.826,3.532,0
1.827,0.42,0
1.828,-2.327,0
1.829,-1.228,0
1.83,-0.13,0
1.831,-2.876,0
1.832,1.335,0
1.833,-0.313,0
1.834,-1.594,0
1.835,-1.228,0
1.836,0.053,0
1.837,4.631,0
1.838,0.237,0
1.839,8.659,0
1.84,27.153,0
1.841,45.83,0
1.842,43.449,0
1.843,41.252,0
1.844,43.266,0
1.845,15.801,0
1.846,-27.595,0
1.847,-44.807,0
1.848,-49.934,0
1.849,-45.174,0
1.85,-49.385,0
1.851,-45.54,0
1.852,-34.92,0
1.853,-25.398,0
1.854,-22.469,0
1.855,-14.595,0
1.856,-7.454,0
1.857,-0.862,0
1.858,1.152,0
1.859,-0.679,0
1.86,7.561,0
1.861,9.026,0
1.862,10.307,0
1.863,6.828,0
1.864,5.73,0
1.865,12.688,0
1.866,13.603,0
1.867,9.575,0
1.868,7.378,0
1.869,9.209,0
1.87,9.758,0
1.871,9.209,0
1.872,7.927,0
1.873,7.561,0
1.874,4.814,0
1.875,6.645,0
1.876,7.011,0
1.877,4.265,0
1.878,4.631,0
1.879,5.73,0
1.88,7.195,0
1.881,7.927,0
1.882,3.899,0
1.883,1.152,0
1.884,3.532,0
1.885,3.899,0
1.886,4.265,0
1.887,8.11,0
1.888,7.011,0
1.889,12.505,0
1.89,20.927,0
1.891,37.956,0
1.892,40.337,0
1.893,42.534,0
1.894,44.548,0
1.895,39.055,0
1.896,14.153,0
1.897,-32.356,0
1.898,-51.216,0
1.899,-56.892,0
1.9,-41.328,0
1.901,-46.089,0
1.902,-33.272,0
1.903,-29.427,0
1.904,-25.948,0
1.905,-16.426,0
1.906,-13.496,0
1.907,-10.933,0
1.908,-3.792,0
1.909,-1.594,0
1.91,4.448,0
1.911,6.279,0
1.912,7.927,0
1.913,6.462,0
1.914,10.49,0
1.915,11.589,0
1.916,10.49,0
1.917,9.575,0
1.918,10.49,0
1.919,8.11,0
1.92,10.307,0
1.921,8.476,0
1.922,6.645,0
1.923,10.49,0
1.924,9.209,0
1.925,4.082,0
1.926,4.631,0
1.927,9.026,0
1.928,3.899,0
1.929,3.349,0
1.93,3.899,0
1.931,2.251,0
1.932,4.631,0
1.933,0.42,0
1.934,-0.13,0
1.935,3.166,0
1.936,3.532,0
1.937,2.434,0
1.938,1.518,0
1.939,4.997,0
1.94,11.955,0
1.941,27.153,0
1.942,42.534,0
1.943,48.576,0
1.944,43.083,0
1.945,21.477,0
1.946,-11.116,0
1.947,-32.722,0
1.948,-44.441,0
1.949,-47.92,0
1.95,-44.807,0
1.951,-36.018,0
1.952,-33.455,0
1.953,-26.314,0
1.954,-15.327,0
1.955,-13.313,0
1.956,-7.82,0
1.957,-6.172,0
1.958,-4.707,0
1.959,-0.679,0
1.96,-1.778,0
1.961,3.899,0
1.962,2.983,0
1.963,3.899,0
1.964,6.279,0
1.965,4.082,0
1.966,5.913,0
1.967,7.744,0
1.968,8.293,0
1.969,8.659,0
1.97,9.026,0
1.971,4.448,0
1.972,6.279,0
1.973,10.124,0
1.974,8.843,0
1.975,1.885,0
1.976,4.814,0
1.977,5.73,0
1.978,6.462,0
1.979,5.73,0
1.98,6.279,0
1.981,8.11,0
1.982,5.364,0
1.983,-0.13,0
1.984,3.716,0
1.985,-3.792,0
1.986,3.166,0
1.987,2.251,0
1.988,1.518,0
1.989,2.251,0
1.99,4.448,0
1.991,14.702,0
1.992,37.224,0
1.993,59.746,0
1.994,62.676,0
1.995,33.196,0
1.996,-10.2,0
1.997,-27.412,0
1.998,-42.976,0
1.999,-38.216,0
2,-34.004,0
2.001,-30.159,0
2.002,-26.68,0
2.003,-23.567,0
2.004,-20.637,0
2.005,-7.271,0
2.006,-9.651,0
2.007,-7.454,0
2.008,-5.44,0
2.009,0.053,0
2.01,-1.594,0
2.011,-0.13,0
2.012,3.899,0
2.013,0.42,0
2.014,1.518,0
2.015,4.448,0
2.016,7.195,0
2.017,3.166,0
2.018,14.702,0
2.019,33.012,0
2.02,40.154,0
2.021,15.801,0
2.022,6.279,0
2.023,-8.552,0
2.024,-5.989,0
2.025,-8.369,0
2.026,-6.172,0
2.027,-8.186,0
2.028,-6.355,0
2.029,-4.707,0
2.03,2.8,0
2.031,1.518,0
2.032,-4.524,0
2.033,1.152,0
2.034,0.237,0
2.035,4.814,0
2.036,4.082,0
2.037,0.237,0
2.038,6.462,0
2.039,4.082,0
2.04,5.18,0
2.041,1.335,0
2.042,8.843,0
2.043,24.04,0
2.044,39.421,0
2.045,45.464,0
2.046,50.957,0
2.047,26.054,0
2.048,-6.172,0
2.049,-27.779,0
2.05,-39.497,0
2.051,-36.018,0
2.052,-39.131,0
2.053,-36.201,0
2.054,-22.835,0
2.055,-20.454,0
2.056,-18.257,0
2.057,-12.215,0
2.058,-6.721,0
2.059,-8.369,0
2.06,-6.905,0
2.061,2.617,0
2.062,3.716,0
2.063,2.617,0
2.064,3.532,0
2.065,8.11,0
2.066,4.082,0
2.067,9.392,0
2.068,9.941,0
2.069,9.392,0
2.07,7.744,0
2.071,8.11,0
2.072,10.307,0
2.073,8.293,0
2.074,6.462,0
2.075,4.631,0
2.076,6.096,0
2.077,5.913,0
2.078,7.195,0
2.079,3.716,0
2.08,9.209,0
2.081,7.011,0
2.082,3.716,0
2.083,0.603,0
2.084,5.73,0
2.085,7.561,0
2.086,5.73,0
2.087,8.476,0
2.088,3.899,0
2.089,5.73,0
2.09,4.082,0
2.091,4.448,0
2.092,1.152,0
2.093,8.11,0
2.094,21.294,0
2.095,34.111,0
2.096,49.126,0
2.097,55.168,0
2.098,27.702,0
2.099,-23.567,0
2.1,-30.525,0
2.101,-49.385,0
2.102,-43.709,0
2.103,-38.582,0
2.104,-33.821,0
2.105,-29.61,0
2.106,-17.891,0
2.107,-21.37,0
2.108,-11.848,0
2.109,-8.919,0
2.11,-6.355,0
2.111,0.786,0
2.112,2.983,0
2.113,4.997,0
2.114,6.828,0
2.115,8.476,0
2.116,4.082,0
2.117,5.364,0
2.118,1.885,0
2.119,5.18,0
2.12,4.265,0
2.121,3.349,0
2.122,4.082,0
2.123,3.349,0
2.124,5.18,0
2.125,3.349,0
2.126,7.195,0
2.127,7.561,0
2.128,9.758,0
2.129,7.011,0
2.13,6.645,0
2.131,2.617,0
2.132,4.997,0
2.133,-1.045,0
2.134,1.335,0
2.135,2.068,0
2.136,8.293,0
2.137,7.561,0
2.138,9.758,0
2.139,7.927,0
2.14,4.814,0
2.141,0.969,0
2.142,-5.806,0
2.143,-3.426,0
2.144,3.532,0
2.145,18.73,0
2.146,51.872,0
2.147,66.155,0
2.148,27.153,0
2.149,-20.088,0
2.15,-26.314,0
2.151,-31.99,0
2.152,-37.117,0
2.153,-32.356,0
2.154,-28.145,0
2.155,-16.426,0
2.156,-19.905,0
2.157,-16.792,0
2.158,-8.003,0
2.159,-5.44,0
2.16,-3.059,0
2.161,-5.257,0
2.162,-3.242,0
2.163,-5.073,0
2.164,-0.13,0
2.165,-1.594,0
2.166,-0.313,0
2.167,3.166,0
2.168,2.068,0
2.169,4.997,0
2.17,5.913,0
2.171,8.293,0
2.172,10.49,0
2.173,9.941,0
2.174,8.11,0
2.175,8.659,0
2.176,9.941,0
2.177,3.899,0
2.178,4.631,0
2.179,8.476,0
2.18,7.927,0
2.181,3.532,0
2.182,2.983,0
2.183,-0.313,0
2.184,3.899,0
2.185,3.349,0
2.186,2.068,0
2.187,-1.045,0
2.188,3.532,0
2.189,1.701,0
2.19,-1.045,0
2.191,-3.426,0
2.192,-3.792,0
2.193,-0.679,0
2.194,1.335,0
2.195,7.011,0
2.196,19.463,0
2.197,46.928,0
2.198,58.647,0
2.199,55.168,0
2.2,19.463,0
2.201,-23.567,0
2.202,-29.243,0
2.203,-34.37,0
2.204,-39.131,0
2.205,-26.314,0
2.206,-22.469,0
2.207,-25.948,0
2.208,-22.835,0
2.209,-19.905,0
2.21,-17.342,0
2.211,-10.2,0
2.212,-3.609,0
2.213,-1.594,0
2.214,0.237,0
2.215,1.885,0
2.216,3.349,0
2.217,2.068,0
2.218,5.547,0
2.219,11.223,0
2.22,10.307,0
2.221,11.223,0
2.222,10.49,0
2.223,9.758,0
2.224,6.462,0
2.225,4.631,0
2.226,8.476,0
2.227,5.18,0
2.228,2.068,0
2.229,4.082,0
2.23,5.18,0
2.231,3.349,0
2.232,0.053,0
2.233,3.166,0
2.234,-3.059,0
2.235,-2.144,0
2.236,3.532,0
2.237,-0.313,0
2.238,4.265,0
2.239,1.152,0
2.24,9.575,0
2.241,8.476,0
2.242,9.575,0
2.243,6.645,0
2.244,6.645,0
2.245,2.068,0
2.246,14.519,0
2.247,27.336,0
2.248,45.647,0
2.249,52.788,0
2.25,54.985,0
2.251,24.773,0
2.252,-14.229,0
2.253,-29.793,0
2.254,-44.075,0
2.255,-39.864,0
2.256,-36.018,0
2.257,-32.539,0
2.258,-29.427,0
2.259,-20.637,0
2.26,-18.074,0
2.261,-15.694,0
2.262,-13.496,0
2.263,-11.482,0
2.264,4.997,0
2.265,29.35,0
2.266,26.238,0
2.267,11.406,0
2.268,3.532,0
2.269,5.913,0
2.27,-0.679,0
2.271,-2.693,0
2.272,-4.524,0
2.273,-6.172,0
2.274,-7.637,0
2.275,-6.355,0
2.276,-2.876,0
2.277,-1.778,0
2.278,1.152,0
2.279,2.068,0
2.28,4.448,0
2.281,5.18,0
2.282,5.73,0
2.283,8.843,0
2.284,11.589,0
2.285,10.307,0
2.286,9.026,0
2.287,7.011,0
2.288,7.378,0
2.289,4.082,0
2.29,9.575,0
2.291,5.73,0
2.292,6.279,0
2.293,1.885,0
2.294,2.434,0
2.295,-0.679,0
2.296,2.617,0
2.297,9.575,0
2.298,24.773,0
2.299,49.126,0
2.3,52.239,0
2.301,49.309,0
2.302,14.336,0
2.303,-18.99,0
2.304,-31.807,0
2.305,-35.652,0
2.306,-39.131,0
2.307,-36.018,0
2.308,-27.229,0
2.309,-24.666,0
2.31,-22.285,0
2.311,-20.088,0
2.312,-18.074,0
2.313,-8.919,0
2.314,-3.975,0
2.315,-2.51,0
2.316,-1.228,0
2.317,-0.13,0
2.318,-1.228,0
2.319,1.701,0
2.32,4.448,0
2.321,5.18,0
2.322,7.378,0
2.323,11.955,0
2.324,10.124,0
2.325,9.575,0
2.326,8.293,0
2.327,10.49,0
2.328,8.476,0
2.329,7.378,0
2.33,4.814,0
2.331,2.8,0
2.332,5.913,0
2.333,4.814,0
2.334,3.716,0
2.335,6.279,0
2.336,10.307,0
2.337,8.659,0
2.338,8.293,0
2.339,6.096,0
2.34,3.349,0
2.341,1.518,0
2.342,3.349,0
2.343,0.603,0
2.344,-1.961,0
2.345,1.335,0
2.346,-2.144,0
2.347,0.603,0
2.348,6.279,0
2.349,18.73,0
2.35,46.196,0
2.351,57.915,0
2.352,61.394,0
2.353,25.688,0
2.354,-7.637,0
2.355,-20.454,0
2.356,-16.609,0
2.357,-20.088,0
2.358,-10.567,0
2.359,-7.637,0
2.36,-5.073,0
2.361,-2.693,0
2.362,-4.89,0
2.363,-2.876,0
2.364,-1.045,0
2.365,-5.989,0
2.366,-13.496,0
2.367,-23.018,0
2.368,-29.06,0
2.369,-32.356,0
2.37,-37.3,0
2.371,-34.553,0
2.372,-27.046,0
2.373,-20.088,0
2.374,-9.834,0
2.375,-16.609,0
2.376,-27.779,0
2.377,-44.258,0
2.378,-59.639,0
2.379,-81.795,0
2.38,-96.626,0
2.381,-115.3,0
2.382,-132.15,0
2.383,-129.95,0
2.384,-140.02,0
2.385,-130.87,0
2.386,-112.56,0
2.387,-105.42,0
2.388,-72.273,0
2.389,-29.243,0
2.39,57.365,0
2.391,119.62,0
2.392,153.31,0
2.393,163.57,0
2.394,154.23,0
2.395,128.96,0
2.396,105.89,0
2.397,98.93,0
2.398,105.89,0
2.399,99.663,0
2.4,116.88,0
2.401,153.5,0
2.402,196.53,0
2.403,190.85,0
2.404,143.61,0
2.405,99.297,0
2.406,70.549,0
2.407,54.985,0
2.408,50.224,0
2.409,46.013,0
2.41,42.168,0
2.411,31.548,0
2.412,9.026,0
2.413,6.096,0
2.414,8.659,0
2.415,20.744,0
2.416,18.547,0
2.417,8.476,0
2.418,-4.341,0
2.419,-12.581,0
2.42,-20.088,0
2.421,-29.61,0
2.422,-28.511,0
2.423,-22.835,0
2.424,-36.018,0
2.425,-45.174,0
2.426,-43.526,0
2.427,-44.99,0
2.428,-43.709,0
2.429,-42.61,0
2.43,-48.286,0
2.431,-47.371,0
2.432,-50.117,0
2.433,-54.146,0
2.434,-54.878,0
2.435,-55.427,0
2.436,-58.54,0
2.437,-53.413,0
2.438,-51.582,0
2.439,-48.469,0
2.44,-43.343,0
2.441,-42.793,0
2.442,-43.343,0
2.443,-40.596,0
2.444,-37.3,0
2.445,-30.342,0
2.446,-29.427,0
2.447,-24.849,0
2.448,-19.722,0
2.449,-18.99,0
2.45,-7.454,0
2.451,17.448,0
2.452,42.351,0
2.453,64.873,0
2.454,32.28,0
2.455,2.068,0
2.456,-17.525,0
2.457,-28.145,0
2.458,-37.666,0
2.459,-34.737,0
2.46,-32.173,0
2.461,-25.032,0
2.462,-22.835,0
2.463,-16.792,0
2.464,-14.961,0
2.465,-6.721,0
2.466,-5.257,0
2.467,1.518,0
2.468,2.617,0
2.469,10.49,0
2.47,11.406,0
2.471,15.984,0
2.472,11.955,0
2.473,17.265,0
2.474,15.434,0
2.475,17.265,0
2.476,15.617,0
2.477,14.336,0
2.478,13.054,0
2.479,13.42,0
2.48,12.322,0
2.481,14.153,0
2.482,13.969,0
2.483,14.702,0
2.484,15.984,0
2.485,14.519,0
2.486,12.505,0
2.487,9.575,0
2.488,11.406,0
2.489,11.772,0
2.49,7.195,0
2.491,5.364,0
2.492,7.195,0
2.493,5.547,0
2.494,3.166,0
2.495,6.279,0
2.496,5.18,0
2.497,8.659,0
2.498,7.378,0
2.499,5.913,0
2.5,4.814,0
2.501,5.913,0
2.502,6.279,0
2.503,5.547,0
2.504,5.364,0
2.505,5.18,0
2.506,2.983,0
2.507,4.814,0
2.508,7.195,0
2.509,3.899,0
2.51,9.941,0
2.511,22.392,0
2.512,20.561,0
2.513,2.251,0
2.514,9.392,0
2.515,38.139,0
2.516,49.858,0
2.517,46.379,0
2.518,10.674,0
2.519,-22.652,0
2.52,-35.469,0
2.521,-47.188,0
2.522,-43.709,0
2.523,-40.596,0
2.524,-31.807,0
2.525,-29.243,0
2.526,-22.102,0
2.527,-19.905,0
2.528,-13.863,0
2.529,-8.369,0
2.53,-3.426,0
2.531,4.082,0
2.532,0.053,0
2.533,1.152,0
2.534,4.448,0
2.535,7.378,0
2.536,10.124,0
2.537,12.505,0
2.538,8.659,0
2.539,13.237,0
2.54,12.688,0
2.541,12.138,0
2.542,10.857,0
2.543,12.138,0
2.544,12.505,0
2.545,12.871,0
2.546,11.772,0
2.547,9.026,0
2.548,8.659,0
2.549,8.293,0
2.55,6.645,0
2.551,5.18,0
2.552,9.392,0
2.553,18.913,0
2.554,39.421,0
2.555,42.351,0
2.556,44.914,0
2.557,32.829,0
2.558,30.632,0
2.559,20.561,0
2.56,15.068,0
2.561,3.532,0
2.562,4.997,0
2.563,6.279,0
2.564,5.18,0
2.565,-11.848,0
2.566,-48.286,0
2.567,-74.47,0
2.568,-69.71,0
2.569,-65.498,0
2.57,-53.78,0
2.571,-43.159,0
2.572,-33.638,0
2.573,-24.849,0
2.574,-16.975,0
2.575,-9.834,0
2.576,-3.242,0
2.577,-5.257,0
2.578,3.899,0
2.579,12.138,0
2.58,13.603,0
2.581,17.632,0
2.582,18.73,0
2.583,17.632,0
2.584,18.547,0
2.585,19.463,0
2.586,21.843,0
2.587,21.111,0
2.588,19.28,0
2.589,19.829,0
2.59,17.082,0
2.591,11.589,0
2.592,15.434,0
2.593,14.885,0
2.594,14.336,0
2.595,12.688,0
2.596,12.322,0
2.597,9.209,0
2.598,6.462,0
2.599,3.899,0
2.6,2.8,0
2.601,2.983,0
2.602,3.716,0
2.603,7.927,0
2.604,17.448,0
2.605,37.956,0
2.606,52.788,0
2.607,55.351,0
2.608,28.618,0
2.609,-10.75,0
2.61,-26.314,0
2.611,-40.596,0
2.612,-44.807,0
2.613,-40.962,0
2.614,-37.483,0
2.615,-34.37,0
2.616,-25.581,0
2.617,-23.018,0
2.618,-15.877,0
2.619,-9.285,0
2.62,-7.271,0
2.621,-1.778,0
2.622,-0.13,0
2.623,1.335,0
2.624,2.617,0
2.625,3.716,0
2.626,7.011,0
2.627,11.955,0
2.628,5.547,0
2.629,6.279,0
2.63,5.547,0
2.631,10.124,0
2.632,5.73,0
2.633,10.857,0
2.634,7.561,0
2.635,5.73,0
2.636,6.279,0
2.637,5.913,0
2.638,6.279,0
2.639,3.532,0
2.64,7.011,0
2.641,9.209,0
2.642,9.575,0
2.643,9.941,0
2.644,9.575,0
2.645,6.279,0
2.646,0.237,0
2.647,0.969,0
2.648,0.237,0
2.649,3.532,0
2.65,4.082,0
2.651,2.434,0
2.652,-2.144,0
2.653,-1.778,0
2.654,5.18,0
2.655,20.378,0
2.656,53.52,0
2.657,58.281,0
2.658,19.28,0
2.659,-17.342,0
2.66,-31.624,0
2.661,-35.835,0
2.662,-31.99,0
2.663,-35.469,0
2.664,-32.356,0
2.665,-23.567,0
2.666,-21.004,0
2.667,-18.623,0
2.668,-12.031,0
2.669,-5.989,0
2.67,-0.496,0
2.671,-2.144,0
2.672,2.251,0
2.673,3.532,0
2.674,4.631,0
2.675,3.532,0
2.676,2.617,0
2.677,5.364,0
2.678,2.983,0
2.679,6.828,0
2.68,6.279,0
2.681,8.11,0
2.682,5.364,0
2.683,5.73,0
2.684,0.603,0
2.685,3.899,0
2.686,3.349,0
2.687,7.195,0
2.688,3.899,0
2.689,7.011,0
2.69,6.645,0
2.691,3.166,0
2.692,2.8,0
2.693,0.786,0
2.694,1.152,0
2.695,3.716,0
2.696,1.701,0
2.697,-2.51,0
2.698,-1.961,0
2.699,4.265,0
2.7,4.997,0
2.701,2.8,0
2.702,3.349,0
2.703,5.18,0
2.704,5.73,0
2.705,14.153,0
2.706,32.646,0
2.707,56.816,0
2.708,72.929,0
2.709,40.337,0
2.71,1.335,0
2.711,-24.849,0
2.712,-39.131,0
2.713,-34.92,0
2.714,-38.765,0
2.715,-35.286,0
2.716,-32.173,0
2.717,-23.384,0
2.718,-20.821,0
2.719,-13.679,0
2.72,-11.482,0
2.721,-5.44,0
2.722,-3.609,0
2.723,1.335,0
2.724,-3.059,0
2.725,-1.778,0
2.726,1.701,0
2.727,0.603,0
2.728,3.532,0
2.729,6.279,0
2.73,8.659,0
2.731,13.969,0
2.732,10.674,0
2.733,10.124,0
2.734,8.476,0
2.735,9.758,0
2.736,8.476,0
2.737,8.11,0
2.738,7.011,0
2.739,8.843,0
2.74,9.575,0
2.741,6.462,0
2.742,3.716,0
2.743,1.152,0
2.744,0.053,0
2.745,1.518,0
2.746,1.701,0
2.747,0.969,0
2.748,-0.496,0
2.749,0.053,0
2.75,-0.862,0
2.751,-1.411,0
2.752,-1.411,0
2.753,0.603,0
2.754,1.518,0
2.755,-1.045,0
2.756,3.532,0
2.757,13.786,0
2.758,18.181,0
2.759,8.659,0
2.76,27.153,0
2.761,51.323,0
2.762,41.802,0
2.763,3.166,0
2.764,-33.455,0
2.765,-47.737,0
2.766,-43.526,0
2.767,-47.371,0
2.768,-43.892,0
2.769,-34.37,0
2.77,-25.581,0
2.771,-23.018,0
2.772,-10.933,0
2.773,-8.736,0
2.774,-6.721,0
2.775,-4.89,0
2.776,0.053,0
2.777,1.518,0
2.778,2.8,0
2.779,3.899,0
2.78,2.8,0
2.781,5.73,0
2.782,6.645,0
2.783,12.322,0
2.784,8.476,0
2.785,5.18,0
2.786,8.293,0
2.787,8.843,0
2.788,9.209,0
2.789,11.406,0
2.79,10.307,0
2.791,8.476,0
2.792,4.448,0
2.793,4.814,0
2.794,5.18,0
2.795,3.166,0
2.796,2.8,0
2.797,3.899,0
2.798,2.434,0
2.799,3.716,0
2.8,4.997,0
2.801,2.8,0
2.802,5.364,0
2.803,2.068,0
2.804,5.913,0
2.805,6.645,0
2.806,3.349,0
2.807,10.307,0
2.808,25.505,0
2.809,58.647,0
2.81,53.886,0
2.811,58.098,0
2.812,22.575,0
2.813,-20.454,0
2.814,-37.666,0
2.815,-42.793,0
2.816,-47.554,0
2.817,-34.737,0
2.818,-30.891,0
2.819,-27.412,0
2.82,-24.3,0
2.821,-15.51,0
2.822,-12.947,0
2.823,-10.567,0
2.824,-8.369,0
2.825,-6.355,0
2.826,-0.862,0
2.827,0.786,0
2.828,5.18,0
2.829,3.899,0
2.83,4.997,0
2.831,6.096,0
2.832,7.011,0
2.833,9.758,0
2.834,13.786,0
2.835,9.941,0
2.836,9.392,0
2.837,9.941,0
2.838,6.096,0
2.839,9.392,0
2.84,10.674,0
2.841,6.096,0
2.842,4.265,0
2.843,7.011,0
2.844,7.378,0
2.845,4.265,0
2.846,8.11,0
2.847,6.828,0
2.848,1.701,0
2.849,1.152,0
2.85,-1.961,0
2.851,-0.313,0
2.852,-1.594,0
2.853,1.518,0
2.854,0.42,0
2.855,0.053,0
2.856,1.518,0
2.857,0.42,0
2.858,4.997,0
2.859,15.251,0
2.86,37.773,0
2.861,47.295,0
2.862,56.084,0
2.863,15.801,0
2.864,-1.411,0
2.865,-38.032,0
2.866,-42.793,0
2.867,-47.005,0
2.868,-43.159,0
2.869,-39.68,0
2.87,-30.159,0
2.871,-21.37,0
2.872,-18.806,0
2.873,-11.665,0
2.874,-9.468,0
2.875,-7.454,0
2.876,-1.961,0
2.877,2.983,0
2.878,1.518,0
2.879,2.8,0
2.88,3.899,0
2.881,4.997,0
2.882,7.927,0
2.883,8.843,0
2.884,9.575,0
2.885,10.307,0
2.886,12.138,0
2.887,11.589,0
2.888,6.462,0
2.889,7.011,0
2.89,10.124,0
2.891,6.279,0
2.892,2.983,0
2.893,3.349,0
2.894,2.251,0
2.895,4.814,0
2.896,3.716,0
2.897,6.462,0
2.898,2.251,0
2.899,4.997,0
2.9,2.617,0
2.901,2.983,0
2.902,5.73,0
2.903,6.096,0
2.904,4.997,0
2.905,2.983,0
2.906,2.251,0
2.907,-0.679,0
2.908,0.603,0
2.909,-1.961,0
2.91,3.532,0
2.911,15.068,0
2.912,39.97,0
2.913,50.591,0
2.914,47.478,0
2.915,14.885,0
2.916,-24.116,0
2.917,-50.301,0
2.918,-45.54,0
2.919,-41.328,0
2.92,-37.483,0
2.921,-34.004,0
2.922,-30.891,0
2.923,-27.962,0
2.924,-20.088,0
2.925,-17.708,0
2.926,-15.51,0
2.927,-9.468,0
2.928,-3.975,0
2.929,-5.623,0
2.93,1.885,0
2.931,3.166,0
2.932,4.265,0
2.933,7.561,0
2.934,10.49,0
2.935,5.913,0
2.936,11.589,0
2.937,10.857,0
2.938,11.406,0
2.939,11.955,0
2.94,13.603,0
2.941,13.969,0
2.942,14.336,0
2.943,13.237,0
2.944,10.674,0
2.945,5.913,0
2.946,6.462,0
2.947,4.814,0
2.948,3.532,0
2.949,5.73,0
2.95,1.885,0
2.951,2.251,0
2.952,1.885,0
2.953,6.462,0
2.954,2.068,0
2.955,1.518,0
2.956,1.152,0
2.957,-5.806,0
2.958,-2.144,0
2.959,-1.228,0
2.96,7.195,0
2.961,24.223,0
2.962,41.069,0
2.963,47.661,0
2.964,61.76,0
2.965,34.294,0
2.966,-16.975,0
2.967,-37.849,0
2.968,-44.075,0
2.969,-38.399,0
2.97,-43.526,0
2.971,-38.765,0
2.972,-25.948,0
2.973,-22.102,0
2.974,-18.623,0
2.975,-15.51,0
2.976,-12.581,0
2.977,-4.707,0
2.978,-7.088,0
2.979,-0.496,0
2.98,1.518,0
2.981,-0.313,0
2.982,1.335,0
2.983,5.73,0
2.984,7.011,0
2.985,10.49,0
2.986,9.392,0
2.987,10.307,0
2.988,9.392,0
2.989,8.659,0
2.99,9.392,0
2.991,8.843,0
2.992,10.674,0
2.993,11.223,0
2.994,6.645,0
2.995,6.096,0
2.996,3.349,0
2.997,4.631,0
2.998,1.518,0
2.999,2.617,0
3,1.518,0
3.001,5.547,0
3.002,13.054,0
3.003,30.083,0
3.004,8.11,0
3.005,-0.679,0
3.006,-8.552,0
3.007,-10.933,0
3.008,-13.13,0
3.009,-12.398,0
3.01,-10.384,0
3.011,6.096,0
3.012,21.477,0
3.013,27.519,0
3.014,47.661,0
3.015,50.224,0
3.016,23.491,0
3.017,-15.877,0
3.018,-42.061,0
3.019,-46.822,0
3.02,-42.61,0
3.021,-38.765,0
3.022,-35.286,0
3.023,-25.764,0
3.024,-22.835,0
3.025,-20.271,0
3.026,-13.13,0
3.027,-10.933,0
3.028,-4.89,0
3.029,0.603,0
3.03,2.251,0
3.031,3.716,0
3.032,7.744,0
3.033,4.265,0
3.034,7.561,0
3.035,12.505,0
3.036,11.589,0
3.037,15.617,0
3.038,10.307,0
3.039,13.603,0
3.04,9.209,0
3.041,9.758,0
3.042,8.476,0
3.043,6.279,0
3.044,4.265,0
3.045,3.166,0
3.046,2.068,0
3.047,6.096,0
3.048,7.744,0
3.049,3.166,0
3.05,7.561,0
3.051,2.434,0
3.052,2.983,0
3.053,-0.13,0
3.054,0.42,0
3.055,1.701,0
3.056,2.068,0
3.057,1.701,0
3.058,0.603,0
3.059,2.434,0
3.06,4.448,0
3.061,-0.13,0
3.062,-3.426,0
3.063,6.096,0
3.064,26.604,0
3.065,41.435,0
3.066,33.562,0
3.067,35.942,0
3.068,46.928,0
3.069,16.716,0
3.07,-22.285,0
3.071,-48.469,0
3.072,-53.23,0
3.073,-49.019,0
3.074,-52.864,0
3.075,-42.244,0
3.076,-32.722,0
3.077,-29.793,0
3.078,-21.919,0
3.079,-14.778,0
3.08,-8.186,0
3.081,-6.172,0
3.082,-4.341,0
3.083,-2.693,0
3.084,4.814,0
3.085,6.096,0
3.086,7.195,0
3.087,12.871,0
3.088,11.955,0
3.089,12.871,0
3.09,12.138,0
3.091,8.293,0
3.092,11.589,0
3.093,12.138,0
3.094,10.49,0
3.095,12.871,0
3.096,10.674,0
3.097,9.575,0
3.098,7.744,0
3.099,6.645,0
3.1,6.828,0
3.101,4.997,0
3.102,5.18,0
3.103,4.631,0
3.104,7.561,0
3.105,4.997,0
3.106,3.166,0
3.107,5.913,0
3.108,1.701,0
3.109,6.828,0
3.11,-0.679,0
3.111,2.251,0
3.112,-0.679,0
3.113,13.237,0
3.114,27.336,0
3.115,51.14,0
3.116,60.661,0
3.117,57.732,0
3.118,17.448,0
3.119,-22.835,0
3.12,-38.399,0
3.121,-43.159,0
3.122,-38.948,0
3.123,-35.103,0
3.124,-31.624,0
3.125,-28.511,0
3.126,-19.722,0
3.127,-17.158,0
3.128,-14.778,0
3.129,-8.186,0
3.13,-6.172,0
3.131,-0.679,0
3.132,0.969,0
3.133,2.434,0
3.134,9.209,0
3.135,10.307,0
3.136,11.406,0
3.137,10.49,0
3.138,7.744,0
3.139,2.068,0
3.14,-0.13,0
3.141,3.166,0
3.142,1.335,0
3.143,5.18,0
3.144,7.561,0
3.145,6.279,0
3.146,7.378,0
3.147,2.434,0
3.148,5.73,0
3.149,5.18,0
3.15,9.026,0
3.151,8.659,0
3.152,13.786,0
3.153,10.49,0
3.154,12.322,0
3.155,8.476,0
3.156,8.843,0
3.157,2.8,0
3.158,-1.228,0
3.159,-1.961,0
3.16,-3.792,0
3.161,-3.242,0
3.162,-1.411,0
3.163,-0.862,0
3.164,6.645,0
3.165,12.322,0
3.166,27.519,0
3.167,60.661,0
3.168,27.336,0
3.169,-2.876,0
3.17,-22.469,0
3.171,-33.089,0
3.172,-36.201,0
3.173,-33.272,0
3.174,-30.708,0
3.175,-23.567,0
3.176,-21.37,0
3.177,-15.327,0
3.178,-17.158,0
3.179,-12.215,0
3.18,-7.82,0
3.181,-6.538,0
3.182,-3.059,0
3.183,0.237,0
3.184,7.195,0
3.185,6.279,0
3.186,8.659,0
3.187,6.462,0
3.188,9.758,0
3.189,7.927,0
3.19,7.378,0
3.191,4.997,0
3.192,4.631,0
3.193,9.209,0
3.194,8.659,0
3.195,4.814,0
3.196,3.532,0
3.197,4.814,0
3.198,4.448,0
3.199,5.547,0
3.2,7.378,0
3.201,8.843,0
3.202,7.011,0
3.203,3.532,0
3.204,2.251,0
3.205,3.349,0
3.206,2.983,0
3.207,1.885,0
3.208,1.701,0
3.209,3.532,0
3.21,-0.496,0
3.211,-1.045,0
3.212,-4.341,0
3.213,1.518,0
3.214,-1.594,0
3.215,4.631,0
3.216,18.547,0
3.217,48.76,0
3.218,52.971,0
3.219,17.448,0
3.22,-6.355,0
3.221,-19.173,0
3.222,-30.891,0
3.223,-27.412,0
3.224,-30.525,0
3.225,-21.736,0
3.226,-24.3,0
3.227,-17.158,0
3.228,-14.961,0
3.229,-12.947,0
3.23,-11.116,0
3.231,-6.172,0
3.232,-4.707,0
3.233,-5.989,0
3.234,0.053,0
3.235,3.349,0
3.236,8.293,0
3.237,11.04,0
3.238,11.772,0
3.239,15.617,0
3.24,18.913,0
3.241,23.308,0
3.242,28.435,0
3.243,28.984,0
3.244,32.097,0
3.245,34.844,0
3.246,36.125,0
3.247,39.238,0
3.248,45.464,0
3.249,46.379,0
3.25,33.928,0
3.251,6.462,0
3.252,-13.13,0
3.253,-23.75,0
3.254,-39.864,0
3.255,-42.793,0
3.256,-56.16,0
3.257,-58.54,0
3.258,-51.948,0
3.259,-41.878,0
3.26,-32.722,0
3.261,-31.074,0
3.262,-41.511,0
3.263,-51.033,0
3.264,-68.794,0
3.265,-87.288,0
3.266,-105.97,0
3.267,-98.823,0
3.268,-92.232,0
3.269,-70.076,0
3.27,-84.907,0
3.271,-119.88,0
3.272,-134.16,0
3.273,-129.95,0
3.274,-126.11,0
3.275,-93.88,0
3.276,-37.483,0
3.277,62.676,0
3.278,130.97,0
3.279,168.33,0
3.28,157.16,0
3.281,146.9,0
3.282,118.89,0
3.283,110.47,0
3.284,102.78,0
3.285,109.73,0
3.286,103.51,0
3.287,120.72,0
3.288,136.28,0
3.289,160.09,0
3.29,155.88,0
3.291,159.72,0
3.292,149.1,0
3.293,119.8,0
3.294,100.21,0
3.295,96.733,0
3.296,87.212,0
3.297,72.38,0
3.298,42.9,0
3.299,23.308,0
3.3,19.829,0
3.301,22.942,0
3.302,20.012,0
3.303,12.138,0
3.304,-4.707,0
3.305,-11.299,0
3.306,-21.37,0
3.307,-34.187,0
3.308,-39.131,0
3.309,-34.737,0
3.31,-38.765,0
3.311,-49.934,0
3.312,-54.329,0
3.313,-55.611,0
3.314,-56.709,0
3.315,-55.611,0
3.316,-56.709,0
3.317,-59.639,0
3.318,-45.723,0
3.319,-15.51,0
3.32,-19.722,0
3.321,-23.567,0
3.322,-20.088,0
3.323,-29.61,0
3.324,-68.245,0
3.325,-94.429,0
3.326,-99.19,0
3.327,-103.4,0
3.328,-91.682,0
3.329,-81.062,0
3.33,-77.949,0
3.331,-63.118,0
3.332,-55.244,0
3.333,-43.159,0
3.334,-36.568,0
3.335,-26.497,0
3.336,-24.666,0
3.337,-13.13,0
3.338,-8.736,0
3.339,-4.707,0
3.34,-1.228,0
3.341,-0.13,0
3.342,4.814,0
3.343,7.561,0
3.344,13.237,0
3.345,11.04,0
3.346,14.336,0
3.347,13.786,0
3.348,14.336,0
3.349,14.702,0
3.35,18.913,0
3.351,16.167,0
3.352,13.786,0
3.353,17.998,0
3.354,17.448,0
3.355,17.082,0
3.356,15.801,0
3.357,14.702,0
3.358,17.265,0
3.359,13.237,0
3.36,15.617,0
3.361,9.575,0
3.362,8.843,0
3.363,9.575,0
3.364,7.744,0
3.365,10.857,0
3.366,7.378,0
3.367,6.828,0
3.368,14.336,0
3.369,31.365,0
3.37,48.21,0
3.371,54.802,0
3.372,64.873,0
3.373,37.407,0
3.374,-5.989,0
3.375,-34.737,0
3.376,-39.864,0
3.377,-35.103,0
3.378,-30.891,0
3.379,-34.737,0
3.38,-24.116,0
3.381,-21.004,0
3.382,-18.074,0
3.383,-10.2,0
3.384,-7.82,0
3.385,-5.623,0
3.386,0.42,0
3.387,5.913,0
3.388,7.561,0
3.389,11.955,0
3.39,10.674,0
3.391,7.195,0
3.392,8.293,0
3.393,9.209,0
3.394,8.293,0
3.395,7.561,0
3.396,3.716,0
3.397,11.223,0
3.398,14.153,0
3.399,9.575,0
3.4,10.307,0
3.401,8.11,0
3.402,11.406,0
3.403,10.857,0
3.404,10.307,0
3.405,10.674,0
3.406,5.547,0
3.407,3.716,0
3.408,6.828,0
3.409,2.983,0
3.41,6.279,0
3.411,4.082,0
3.412,2.068,0
3.413,2.434,0
3.414,-0.13,0
3.415,0.053,0
3.416,1.885,0
3.417,1.518,0
3.418,0.237,0
3.419,3.716,0
3.42,11.223,0
3.421,28.252,0
3.422,54.985,0
3.423,65.605,0
3.424,29.9,0
3.425,-13.13,0
3.426,-30.342,0
3.427,-45.906,0
3.428,-41.145,0
3.429,-36.934,0
3.43,-33.089,0
3.431,-29.61,0
3.432,-20.088,0
3.433,-17.158,0
3.434,-14.595,0
3.435,-12.215,0
3.436,-1.228,0
3.437,0.786,0
3.438,2.617,0
3.439,4.265,0
3.44,5.73,0
3.441,7.011,0
3.442,5.913,0
3.443,7.011,0
3.444,4.082,0
3.445,4.997,0
3.446,5.73,0
3.447,3.532,0
3.448,4.082,0
3.449,4.631,0
3.45,4.082,0
3.451,3.716,0
3.452,6.828,0
3.453,8.843,0
3.454,9.209,0
3.455,5.913,0
3.456,6.279,0
3.457,2.068,0
3.458,4.814,0
3.459,3.532,0
3.46,3.899,0
3.461,4.265,0
3.462,0.786,0
3.463,1.152,0
3.464,0.053,0
3.465,-1.045,0
3.466,1.518,0
3.467,-3.059,0
3.468,-2.144,0
3.469,1.152,0
3.47,-1.961,0
3.471,6.462,0
3.472,24.956,0
3.473,49.126,0
3.474,52.239,0
3.475,31.548,0
3.476,-8.736,0
3.477,-37.483,0
3.478,-42.61,0
3.479,-37.849,0
3.48,-33.638,0
3.481,-37.483,0
3.482,-34.004,0
3.483,-24.483,0
3.484,-21.553,0
3.485,-13.679,0
3.486,-6.538,0
3.487,-4.341,0
3.488,-2.327,0
3.489,3.166,0
3.49,1.518,0
3.491,5.913,0
3.492,4.631,0
3.493,15.801,0
3.494,38.323,0
3.495,28.801,0
3.496,8.11,0
3.497,0.237,0
3.498,-2.144,0
3.499,-4.341,0
3.5,-10.384,0
3.501,-12.215,0
3.502,-3.975,0
3.503,0.42,0
3.504,4.448,0
3.505,5.547,0
3.506,4.448,0
3.507,1.518,0
3.508,7.927,0
3.509,3.899,0
3.51,4.631,0
3.511,2.8,0
3.512,7.195,0
3.513,5.547,0
3.514,4.265,0
3.515,6.462,0
3.516,5.364,0
3.517,2.8,0
3.518,4.631,0
3.519,5.913,0
3.52,5.18,0
3.521,9.392,0
3.522,18.913,0
3.523,39.421,0
3.524,66.155,0
3.525,33.928,0
3.526,-13.679,0
3.527,-32.539,0
3.528,-38.216,0
3.529,-33.089,0
3.53,-28.328,0
3.531,-32.539,0
3.532,-28.694,0
3.533,-18.074,0
3.534,-8.552,0
3.535,-5.623,0
3.536,-3.059,0
3.537,-0.679,0
3.538,1.518,0
3.539,3.532,0
3.54,5.364,0
3.541,3.716,0
3.542,2.251,0
3.543,3.532,0
3.544,4.631,0
3.545,5.73,0
3.546,6.645,0
3.547,7.561,0
3.548,3.532,0
3.549,7.378,0
3.55,5.547,0
3.551,4.997,0
3.552,6.645,0
3.553,9.941,0
3.554,6.828,0
3.555,7.927,0
3.556,2.983,0
3.557,3.532,0
3.558,1.701,0
3.559,1.152,0
3.56,2.434,0
3.561,2.068,0
3.562,1.701,0
3.563,3.532,0
3.564,4.631,0
3.565,3.166,0
3.566,3.899,0
3.567,1.518,0
3.568,0.053,0
3.569,-0.679,0
3.57,1.518,0
3.571,0.786,0
3.572,4.265,0
3.573,11.772,0
3.574,28.801,0
3.575,65.239,0
3.576,28.618,0
3.577,-4.707,0
3.578,-26.314,0
3.579,-38.032,0
3.58,-34.553,0
3.581,-31.441,0
3.582,-34.37,0
3.583,-26.497,0
3.584,-24.116,0
3.585,-13.13,0
3.586,-11.116,0
3.587,-5.623,0
3.588,-3.975,0
3.589,-2.51,0
3.59,-1.228,0
3.591,2.251,0
3.592,3.349,0
3.593,4.265,0
3.594,1.518,0
3.595,2.251,0
3.596,6.096,0
3.597,7.927,0
3.598,7.378,0
3.599,7.927,0
3.6,7.561,0
3.601,7.927,0
3.602,7.561,0
3.603,8.659,0
3.604,9.026,0
3.605,8.843,0
3.606,7.011,0
3.607,3.532,0
3.608,1.335,0
3.609,1.701,0
3.61,1.335,0
3.611,1.701,0
3.612,3.166,0
3.613,0.603,0
3.614,-1.961,0
3.615,2.617,0
3.616,4.448,0
3.617,3.899,0
3.618,-1.228,0
3.619,2.068,0
3.62,2.617,0
3.621,5.18,0
3.622,4.631,0
3.623,0.053,0
3.624,9.575,0
3.625,30.083,0
3.626,44.914,0
3.627,63.591,0
3.628,31.914,0
3.629,-7.088,0
3.63,-33.272,0
3.631,-38.032,0
3.632,-42.244,0
3.633,-38.399,0
3.634,-41.878,0
3.635,-32.356,0
3.636,-23.567,0
3.637,-21.004,0
3.638,-18.623,0
3.639,-12.031,0
3.64,-10.017,0
3.641,-4.524,0
3.642,-6.172,0
3.643,-1.778,0
3.644,-0.496,0
3.645,5.547,0
3.646,6.645,0
3.647,5.73,0
3.648,2.983,0
3.649,7.011,0
3.65,9.209,0
3.651,8.659,0
3.652,9.209,0
3.653,9.758,0
3.654,12.138,0
3.655,10.857,0
3.656,8.843,0
3.657,7.744,0
3.658,9.575,0
3.659,8.843,0
3.66,5.73,0
3.661,1.885,0
3.662,2.251,0
3.663,1.885,0
3.664,1.518,0
3.665,-0.313,0
3.666,0.053,0
3.667,-1.411,0
3.668,-1.228,0
3.669,0.603,0
3.67,4.082,0
3.671,1.701,0
3.672,2.983,0
3.673,1.701,0
3.674,7.927,0
3.675,21.843,0
3.676,52.055,0
3.677,64.873,0
3.678,29.35,0
3.679,-3.975,0
3.68,-25.581,0
3.681,-37.3,0
3.682,-33.821,0
3.683,-30.708,0
3.684,-27.779,0
3.685,-25.215,0
3.686,-22.835,0
3.687,-16.243,0
3.688,-14.229,0
3.689,-12.398,0
3.69,-10.75,0
3.691,-9.285,0
3.692,-5.257,0
3.693,-1.778,0
3.694,1.518,0
3.695,4.448,0
3.696,1.701,0
3.697,4.082,0
3.698,4.814,0
3.699,6.645,0
3.7,6.096,0
3.701,7.744,0
3.702,7.378,0
3.703,10.49,0
3.704,7.744,0
3.705,8.843,0
3.706,6.279,0
3.707,6.096,0
3.708,5.364,0
3.709,2.983,0
3.71,4.448,0
3.711,3.716,0
3.712,4.448,0
3.713,4.631,0
3.714,1.335,0
3.715,2.617,0
3.716,6.462,0
3.717,6.828,0
3.718,5.547,0
3.719,6.645,0
3.72,4.082,0
3.721,2.251,0
3.722,2.983,0
3.723,2.251,0
3.724,-1.961,0
3.725,1.152,0
3.726,2.8,0
3.727,2.434,0
3.728,2.068,0
3.729,-2.51,0
3.73,-0.679,0
3.731,-5.806,0
3.732,-5.257,0
3.733,-0.862,0
3.734,-2.51,0
3.735,-0.13,0
3.736,0.237,0
3.737,4.082,0
3.738,2.8,0
3.739,9.758,0
3.74,24.956,0
3.741,22.759,0
3.742,0.603,0
3.743,-8.186,0
3.744,15.984,0
3.745,25.505,0
3.746,28.435,0
3.747,20.561,0
3.748,22.942,0
3.749,33.928,0
3.75,7.744,0
3.751,-38.765,0
3.752,-57.625,0
3.753,-51.948,0
3.754,-46.822,0
3.755,-51.582,0
3.756,-38.765,0
3.757,-34.92,0
3.758,-24.3,0
3.759,-21.187,0
3.76,-18.257,0
3.761,-10.384,0
3.762,-3.242,0
3.763,-1.045,0
3.764,4.997,0
3.765,6.828,0
3.766,8.476,0
3.767,9.941,0
3.768,19.463,0
3.769,15.984,0
3.77,17.082,0
3.771,16.167,0
3.772,11.589,0
3.773,9.209,0
3.774,11.772,0
3.775,11.04,0
3.776,21.294,0
3.777,34.844,0
3.778,62.309,0
3.779,66.155,0
3.78,62.676,0
3.781,33.379,0
3.782,-10.017,0
3.783,-27.229,0
3.784,-32.356,0
3.785,-37.117,0
3.786,-32.906,0
3.787,-29.06,0
3.788,-25.581,0
3.789,-22.469,0
3.79,-13.679,0
3.791,-5.806,0
3.792,-8.186,0
3.793,-5.989,0
3.794,-3.975,0
3.795,1.518,0
3.796,-3.426,0
3.797,4.082,0
3.798,2.8,0
3.799,8.843,0
3.8,9.941,0
3.801,10.857,0
3.802,8.11,0
3.803,8.843,0
3.804,11.04,0
3.805,12.871,0
3.806,7.195,0
3.807,6.462,0
3.808,8.293,0
3.809,6.462,0
3.81,5.913,0
3.811,6.279,0
3.812,6.645,0
3.813,4.631,0
3.814,4.997,0
3.815,5.364,0
3.816,5.18,0
3.817,3.899,0
3.818,3.166,0
3.819,0.603,0
3.82,3.166,0
3.821,3.899,0
3.822,5.18,0
3.823,2.8,0
3.824,6.096,0
3.825,2.251,0
3.826,1.885,0
3.827,8.11,0
3.828,20.195,0
3.829,41.802,0
3.83,38.872,0
3.831,41.435,0
3.832,39.055,0
3.833,32.463,0
3.834,14.336,0
3.835,-22.102,0
3.836,-48.286,0
3.837,-53.047,0
3.838,-57.259,0
3.839,-53.413,0
3.84,-49.934,0
3.841,-40.413,0
3.842,-31.624,0
3.843,-23.75,0
3.844,-21.37,0
3.845,-10.384,0
3.846,-8.369,0
3.847,-2.876,0
3.848,-4.524,0
3.849,5.913,0
3.85,7.195,0
3.851,6.096,0
3.852,11.772,0
3.853,10.857,0
3.854,11.772,0
3.855,12.505,0
3.856,11.772,0
3.857,13.603,0
3.858,13.054,0
3.859,9.209,0
3.86,10.49,0
3.861,7.378,0
3.862,8.476,0
3.863,6.645,0
3.864,5.547,0
3.865,7.561,0
3.866,4.448,0
3.867,4.814,0
3.868,5.18,0
3.869,9.209,0
3.87,7.927,0
3.871,5.73,0
3.872,4.631,0
3.873,6.462,0
3.874,4.631,0
3.875,3.899,0
3.876,4.448,0
3.877,1.335,0
3.878,-2.51,0
3.879,4.997,0
3.88,22.026,0
3.881,48.76,0
3.882,52.239,0
3.883,55.351,0
3.884,16.716,0
3.885,-19.905,0
3.886,-43.709,0
3.887,-47.92,0
3.888,-44.075,0
3.889,-40.596,0
3.89,-37.483,0
3.891,-34.553,0
3.892,-26.68,0
3.893,-24.3,0
3.894,-17.708,0
3.895,-11.665,0
3.896,-6.172,0
3.897,-1.228,0
3.898,3.166,0
3.899,7.195,0
3.9,3.716,0
3.901,4.814,0
3.902,3.899,0
3.903,12.322,0
3.904,6.645,0
3.905,11.589,0
3.906,7.011,0
3.907,9.392,0
3.908,7.195,0
3.909,5.364,0
3.91,5.913,0
3.911,3.166,0
3.912,7.744,0
3.913,7.195,0
3.914,6.645,0
3.915,7.927,0
3.916,5.73,0
3.917,8.476,0
3.918,7.378,0
3.919,12.138,0
3.92,11.589,0
3.921,9.941,0
3.922,2.434,0
3.923,3.532,0
3.924,0.603,0
3.925,1.518,0
3.926,-0.862,0
3.927,-0.679,0
3.928,1.518,0
3.929,7.744,0
3.93,20.195,0
3.931,47.661,0
3.932,51.506,0
3.933,26.604,0
3.934,-9.102,0
3.935,-23.384,0
3.936,-36.201,0
3.937,-32.356,0
3.938,-28.877,0
3.939,-25.764,0
3.94,-22.835,0
3.941,-20.271,0
3.942,-17.891,0
3.943,-11.299,0
3.944,-9.285,0
3.945,-7.454,0
3.946,-2.51,0
3.947,-3.975,0
3.948,-2.693,0
3.949,3.349,0
3.95,4.448,0
3.951,7.378,0
3.952,6.462,0
3.953,8.843,0
3.954,11.04,0
3.955,7.744,0
3.956,7.195,0
3.957,4.448,0
3.958,5.73,0
3.959,7.011,0
3.96,4.265,0
3.961,4.631,0
3.962,1.335,0
3.963,0.237,0
3.964,-0.862,0
3.965,0.969,0
3.966,2.983,0
3.967,3.716,0
3.968,3.899,0
3.969,5.364,0
3.97,4.265,0
3.971,4.448,0
3.972,2.068,0
3.973,-0.679,0
3.974,1.885,0
3.975,1.518,0
3.976,0.053,0
3.977,-0.679,0
3.978,2.983,0
3.979,3.166,0
3.98,2.068,0
3.981,0.053,0
3.982,0.237,0
3.983,-0.862,0
3.984,2.434,0
3.985,9.392,0
3.986,24.59,0
3.987,9.209,0
3.988,3.166,0
3.989,8.659,0
3.99,30.266,0
3.991,33.196,0
3.992,35.759,0
3.993,28.618,0
3.994,30.815,0
3.995,28.801,0
3.996,1.335,0
3.997,-42.061,0
3.998,-59.273,0
3.999,-64.4,0
4,-59.639,0
4.001,-55.427,0
4.002,-43.709,0
4.003,-33.089,0
4.004,-23.567,0
4.005,-14.778,0
4.006,-12.215,0
4.007,-9.834,0
4.008,-3.242,0
4.009,-1.228,0
4.01,0.603,0
4.011,5.547,0
4.012,7.011,0
4.013,11.04,0
4.014,12.138,0
4.015,13.237,0
4.016,16.167,0
4.017,17.082,0
4.018,16.35,0
4.019,17.082,0
4.02,15.251,0
4.021,17.082,0
4.022,11.955,0
4.023,11.406,0
4.024,8.293,0
4.025,9.941,0
4.026,6.645,0
4.027,6.279,0
4.028,8.293,0
4.029,3.716,0
4.03,4.082,0
4.031,2.983,0
4.032,7.561,0
4.033,17.815,0
4.034,40.337,0
4.035,43.449,0
4.036,34.66,0
4.037,32.097,0
4.038,24.956,0
4.039,9.575,0
4.04,3.532,0
4.041,1.701,0
4.042,9.941,0
4.043,-0.496,0
4.044,-21.004,0
4.045,-65.498,0
4.046,-71.724,0
4.047,-66.048,0
4.048,-60.921,0
4.049,-56.16,0
4.05,-43.343,0
4.051,-31.624,0
4.052,-21.004,0
4.053,-11.482,0
4.054,-2.693,0
4.055,-0.13,0
4.056,2.251,0
4.057,8.843,0
4.058,14.885,0
4.059,13.054,0
4.06,11.406,0
4.061,15.801,0
4.062,14.519,0
4.063,13.42,0
4.064,12.322,0
4.065,17.265,0
4.066,18.181,0
4.067,17.448,0
4.068,18.181,0
4.069,14.885,0
4.07,16.716,0
4.071,13.969,0
4.072,10.674,0
4.073,10.307,0
4.074,6.462,0
4.075,11.955,0
4.076,11.223,0
4.077,11.772,0
4.078,9.941,0
4.079,4.814,0
4.08,2.983,0
4.081,6.279,0
4.082,15.801,0
4.083,25.322,0
4.084,43.816,0
4.085,46.379,0
4.086,43.999,0
4.087,50.591,0
4.088,40.52,0
4.089,13.054,0
4.09,-38.216,0
4.091,-45.174,0
4.092,-51.399,0
4.093,-45.723,0
4.094,-40.596,0
4.095,-35.835,0
4.096,-31.624,0
4.097,-27.779,0
4.098,-17.158,0
4.099,-14.046,0
4.1,-5.257,0
4.101,-2.693,0
4.102,-0.313,0
4.103,1.885,0
4.104,3.899,0
4.105,5.73,0
4.106,7.378,0
4.107,5.913,0
4.108,4.631,0
4.109,8.11,0
4.11,4.814,0
4.111,5.73,0
4.112,6.645,0
4.113,9.026,0
4.114,8.293,0
4.115,11.589,0
4.116,12.138,0
4.117,11.589,0
4.118,11.955,0
4.119,9.758,0
4.12,8.659,0
4.121,12.871,0
4.122,6.645,0
4.123,7.378,0
4.124,3.532,0
4.125,0.237,0
4.126,0.786,0
4.127,-0.862,0
4.128,1.518,0
4.129,1.152,0
4.13,3.899,0
4.131,4.448,0
4.132,5.547,0
4.133,11.04,0
4.134,17.998,0
4.135,31.914,0
4.136,62.126,0
4.137,40.52,0
4.138,-2.876,0
4.139,-20.088,0
4.14,-35.652,0
4.141,-40.413,0
4.142,-36.201,0
4.143,-32.356,0
4.144,-28.877,0
4.145,-25.764,0
4.146,-16.975,0
4.147,-14.412,0
4.148,-12.031,0
4.149,-9.834,0
4.15,-7.82,0
4.151,-5.989,0
4.152,-1.045,0
4.153,0.42,0
4.154,4.448,0
4.155,3.349,0
4.156,2.251,0
4.157,-0.679,0
4.158,5.73,0
4.159,4.997,0
4.16,1.152,0
4.161,1.701,0
4.162,6.096,0
4.163,5.547,0
4.164,5.913,0
4.165,6.279,0
4.166,2.434,0
4.167,4.814,0
4.168,7.011,0
4.169,8.11,0
4.17,5.547,0
4.171,2.983,0
4.172,0.969,0
4.173,2.8,0
4.174,2.983,0
4.175,4.448,0
4.176,4.631,0
4.177,2.068,0
4.178,5.364,0
4.179,2.617,0
4.18,0.053,0
4.181,-2.51,0
4.182,0.786,0
4.183,-1.228,0
4.184,2.983,0
4.185,12.505,0
4.186,33.012,0
4.187,59.746,0
4.188,56.267,0
4.189,20.561,0
4.19,-12.764,0
4.191,-34.37,0
4.192,-46.089,0
4.193,-42.61,0
4.194,-39.497,0
4.195,-30.708,0
4.196,-28.145,0
4.197,-21.004,0
4.198,-14.412,0
4.199,-8.369,0
4.2,-6.538,0
4.201,-4.89,0
4.202,-0.496,0
4.203,3.532,0
4.204,4.631,0
4.205,1.335,0
4.206,2.251,0
4.207,3.166,0
4.208,5.547,0
4.209,6.279,0
4.21,1.701,0
4.211,3.532,0
4.212,8.659,0
4.213,4.082,0
4.214,7.195,0
4.215,5.547,0
4.216,6.828,0
4.217,7.195,0
4.218,8.293,0
4.219,7.927,0
4.22,5.364,0
4.221,6.096,0
4.222,3.532,0
4.223,9.026,0
4.224,14.336,0
4.225,14.885,0
4.226,19.28,0
4.227,24.406,0
4.228,30.632,0
4.229,31.365,0
4.23,42.9,0
4.231,54.436,0
4.232,52.971,0
4.233,23.491,0
4.234,8.476,0
4.235,-1.594,0
4.236,-10.75,0
4.237,-12.398,0
4.238,-16.792,0
4.239,3.716,0
4.24,12.505,0
4.241,-22.469,0
4.242,-55.794,0
4.243,-68.611,0
4.244,-56.892,0
4.245,-67.512,0
4.246,-83.626,0
4.247,-98.457,0
4.248,-111.82,0
4.249,-138.56,0
4.25,-149.18,0
4.251,-146.06,0
4.252,-137.28,0
4.253,-150.64,0
4.254,-153.02,0
4.255,-146.43,0
4.256,-120.25,0
4.257,-102.49,0
4.258,-79.964,0
4.259,-47.371,0
4.26,0.237,0
4.261,57.549,0
4.262,142.33,0
4.263,176.02,0
4.264,165.76,0
4.265,156.43,0
4.266,148,0
4.267,155.69,0
4.268,148.74,0
4.269,154.96,0
4.27,160.64,0
4.271,165.76,0
4.272,170.53,0
4.273,183.34,0
4.274,187.19,0
4.275,183.71,0
4.276,167.59,0
4.277,140.86,0
4.278,123.1,0
4.279,100.58,0
4.28,73.845,0
4.281,41.618,0
4.282,28.801,0
4.283,17.082,0
4.284,7.378,0
4.285,3.899,0
4.286,-5.623,0
4.287,3.166,0
4.288,11.04,0
4.289,18.181,0
4.29,7.195,0
4.291,-18.99,0
4.292,-51.216,0
4.293,-81.428,0
4.294,-101.02,0
4.295,-111.64,0
4.296,-108.53,0
4.297,-99.739,0
4.298,-91.865,0
4.299,-89.485,0
4.3,-82.893,0
4.301,-76.851,0
4.302,-75.02,0
4.303,-76.668,0
4.304,-75.203,0
4.305,-73.921,0
4.306,-65.498,0
4.307,-62.202,0
4.308,-59.273,0
4.309,-54.695,0
4.31,-49.019,0
4.311,-42.061,0
4.312,-37.483,0
4.313,-35.103,0
4.314,-29.793,0
4.315,-23.567,0
4.316,-21.187,0
4.317,-17.342,0
4.318,-14.046,0
4.319,-8.369,0
4.32,-9.102,0
4.321,-4.524,0
4.322,-3.975,0
4.323,-0.13,0
4.324,-1.411,0
4.325,1.701,0
4.326,1.335,0
4.327,3.166,0
4.328,4.265,0
4.329,0.237,0
4.33,2.983,0
4.331,6.279,0
4.332,8.476,0
4.333,11.223,0
4.334,6.279,0
4.335,11.04,0
4.336,17.265,0
4.337,29.717,0
4.338,49.858,0
4.339,63.225,0
4.34,65.605,0
4.341,32.463,0
4.342,-10.567,0
4.343,-16.243,0
4.344,-21.37,0
4.345,-26.131,0
4.346,-21.919,0
4.347,-18.074,0
4.348,-14.595,0
4.349,-11.482,0
4.35,-8.552,0
4.351,-5.989,0
4.352,1.152,0
4.353,3.349,0
4.354,5.364,0
4.355,7.195,0
4.356,8.843,0
4.357,10.307,0
4.358,9.026,0
4.359,7.927,0
4.36,11.223,0
4.361,10.307,0
4.362,11.223,0
4.363,8.843,0
4.364,12.688,0
4.365,14.519,0
4.366,7.561,0
4.367,8.476,0
4.368,10.857,0
4.369,13.054,0
4.37,12.505,0
4.371,10.674,0
4.372,4.448,0
4.373,5.18,0
4.374,5.913,0
4.375,6.462,0
4.376,7.011,0
4.377,7.561,0
4.378,7.927,0
4.379,7.561,0
4.38,6.462,0
4.381,6.828,0
4.382,5.73,0
4.383,7.195,0
4.384,2.983,0
4.385,7.378,0
4.386,5.18,0
4.387,5.73,0
4.388,12.322,0
4.389,26.238,0
4.39,44.365,0
4.391,56.45,0
4.392,49.858,0
4.393,19.646,0
4.394,-19.356,0
4.395,-34.92,0
4.396,-39.68,0
4.397,-43.892,0
4.398,-40.047,0
4.399,-36.568,0
4.4,-27.046,0
4.401,-18.257,0
4.402,-15.694,0
4.403,-13.313,0
4.404,-11.116,0
4.405,-9.102,0
4.406,0.053,0
4.407,4.997,0
4.408,9.392,0
4.409,5.364,0
4.41,8.843,0
4.411,5.547,0
4.412,8.476,0
4.413,3.899,0
4.414,7.927,0
4.415,7.195,0
4.416,7.744,0
4.417,5.913,0
4.418,8.659,0
4.419,7.378,0
4.42,9.575,0
4.421,6.828,0
4.422,7.927,0
4.423,3.899,0
4.424,3.532,0
4.425,0.42,0
4.426,1.518,0
4.427,5.73,0
4.428,1.885,0
4.429,3.166,0
4.43,5.364,0
4.431,8.11,0
4.432,3.899,0
4.433,0.053,0
4.434,3.349,0
4.435,8.476,0
4.436,3.899,0
4.437,3.716,0
4.438,1.885,0
4.439,7.011,0
4.44,17.265,0
4.441,39.787,0
4.442,55.901,0
4.443,17.265,0
4.444,-8.919,0
4.445,-23.201,0
4.446,-36.018,0
4.447,-32.173,0
4.448,-28.694,0
4.449,-25.581,0
4.45,-28.511,0
4.451,-20.637,0
4.452,-13.496,0
4.453,-11.299,0
4.454,-9.285,0
4.455,-7.454,0
4.456,-5.806,0
4.457,-1.411,0
4.458,-0.13,0
4.459,-1.228,0
4.46,2.068,0
4.461,-0.862,0
4.462,3.716,0
4.463,7.744,0
4.464,3.899,0
4.465,5.73,0
4.466,8.843,0
4.467,3.716,0
4.468,1.885,0
4.469,6.279,0
4.47,5.73,0
4.471,6.096,0
4.472,5.73,0
4.473,2.983,0
4.474,4.814,0
4.475,4.448,0
4.476,9.026,0
4.477,19.28,0
4.478,26.787,0
4.479,6.279,0
4.48,-8.552,0
4.481,-5.989,0
4.482,-13.13,0
4.483,-6.538,0
4.484,-4.524,0
4.485,-6.355,0
4.486,-4.707,0
4.487,-3.242,0
4.488,-1.411,0
4.489,-2.693,0
4.49,3.349,0
4.491,20.378,0
4.492,37.224,0
4.493,48.21,0
4.494,62.309,0
4.495,34.844,0
4.496,-16.426,0
4.497,-37.3,0
4.498,-43.526,0
4.499,-37.849,0
4.5,-42.976,0
4.501,-28.694,0
4.502,-24.483,0
4.503,-20.637,0
4.504,-17.158,0
4.505,-14.046,0
4.506,-11.116,0
4.507,-3.242,0
4.508,-0.862,0
4.509,1.335,0
4.51,7.378,0
4.511,12.871,0
4.512,11.223,0
4.513,9.758,0
4.514,13.786,0
4.515,12.688,0
4.516,15.984,0
4.517,16.899,0
4.518,17.815,0
4.519,13.786,0
4.52,9.941,0
4.521,5.364,0
4.522,8.476,0
4.523,5.73,0
4.524,7.011,0
4.525,5.73,0
4.526,6.828,0
4.527,2.617,0
4.528,0.969,0
4.529,5.547,0
4.53,4.997,0
4.531,2.251,0
4.532,-1.045,0
4.533,-2.327,0
4.534,-1.228,0
4.535,-0.13,0
4.536,0.969,0
4.537,2.983,0
4.538,1.152,0
4.539,0.786,0
4.54,2.068,0
4.541,5.547,0
4.542,13.054,0
4.543,30.083,0
4.544,56.816,0
4.545,31.914,0
4.546,2.617,0
4.547,-24.849,0
4.548,-35.469,0
4.549,-38.582,0
4.55,-35.652,0
4.551,-33.089,0
4.552,-25.948,0
4.553,-19.356,0
4.554,-17.342,0
4.555,-15.51,0
4.556,-10.567,0
4.557,-9.102,0
4.558,-2.327,0
4.559,-3.426,0
4.56,-0.13,0
4.561,0.786,0
4.562,3.532,0
4.563,2.8,0
4.564,6.645,0
4.565,6.096,0
4.566,10.49,0
4.567,6.645,0
4.568,12.138,0
4.569,11.406,0
4.57,10.857,0
4.571,7.744,0
4.572,4.997,0
4.573,6.279,0
4.574,4.997,0
4.575,4.631,0
4.576,3.532,0
4.577,4.631,0
4.578,3.166,0
4.579,2.983,0
4.58,0.603,0
4.581,0.786,0
4.582,4.448,0
4.583,6.828,0
4.584,2.617,0
4.585,4.265,0
4.586,2.983,0
4.587,2.617,0
4.588,2.983,0
4.589,1.152,0
4.59,1.518,0
4.591,-1.045,0
4.592,3.532,0
4.593,13.786,0
4.594,36.308,0
4.595,58.83,0
4.596,26.238,0
4.597,-12.764,0
4.598,-28.328,0
4.599,-33.089,0
4.6,-37.3,0
4.601,-25.581,0
4.602,-22.102,0
4.603,-18.99,0
4.604,-16.06,0
4.605,-13.496,0
4.606,-15.877,0
4.607,-9.285,0
4.608,-7.271,0
4.609,-5.44,0
4.61,-0.496,0
4.611,0.969,0
4.612,-0.313,0
4.613,-1.411,0
4.614,1.885,0
4.615,2.8,0
4.616,3.716,0
4.617,2.983,0
4.618,6.828,0
4.619,8.659,0
4.62,9.209,0
4.621,6.462,0
4.622,6.096,0
4.623,5.73,0
4.624,4.631,0
4.625,1.152,0
4.626,2.434,0
4.627,4.448,0
4.628,1.885,0
4.629,1.518,0
4.63,4.814,0
4.631,5.18,0
4.632,4.082,0
4.633,4.448,0
4.634,5.547,0
4.635,4.814,0
4.636,4.997,0
4.637,2.068,0
4.638,0.237,0
4.639,0.603,0
4.64,-0.13,0
4.641,-0.679,0
4.642,0.603,0
4.643,4.631,0
4.644,13.054,0
4.645,31.548,0
4.646,61.028,0
4.647,57.182,0
4.648,17.815,0
4.649,-18.806,0
4.65,-42.61,0
4.651,-38.399,0
4.652,-42.244,0
4.653,-38.765,0
4.654,-29.243,0
4.655,-26.314,0
4.656,-23.75,0
4.657,-16.609,0
4.658,-14.412,0
4.659,-8.369,0
4.66,-2.876,0
4.661,-1.228,0
4.662,-2.693,0
4.663,1.335,0
4.664,2.434,0
4.665,1.335,0
4.666,4.265,0
4.667,5.18,0
4.668,5.913,0
4.669,8.11,0
4.67,8.659,0
4.671,8.11,0
4.672,8.659,0
4.673,9.941,0
4.674,8.659,0
4.675,9.758,0
4.676,7.195,0
4.677,7.561,0
4.678,5.547,0
4.679,6.828,0
4.68,4.448,0
4.681,3.716,0
4.682,6.828,0
4.683,4.082,0
4.684,1.518,0
4.685,3.349,0
4.686,5.364,0
4.687,5.18,0
4.688,2.8,0
4.689,0.053,0
4.69,4.265,0
4.691,3.716,0
4.692,1.518,0
4.693,1.885,0
4.694,8.843,0
4.695,13.786,0
4.696,27.702,0
4.697,57.915,0
4.698,36.308,0
4.699,-7.088,0
4.7,-24.3,0
4.701,-29.427,0
4.702,-34.187,0
4.703,-29.976,0
4.704,-26.131,0
4.705,-22.652,0
4.706,-19.539,0
4.707,-16.609,0
4.708,-14.046,0
4.709,-11.665,0
4.71,-9.468,0
4.711,-3.426,0
4.712,-1.594,0
4.713,0.053,0
4.714,4.448,0
4.715,8.476,0
4.716,7.378,0
4.717,6.279,0
4.718,9.209,0
4.719,6.462,0
4.72,8.843,0
4.721,4.997,0
4.722,15.251,0
4.723,34.844,0
4.724,21.477,0
4.725,4.631,0
4.726,-6.355,0
4.727,-12.398,0
4.728,-10.567,0
4.729,-8.919,0
4.73,-7.454,0
4.731,-6.172,0
4.732,-2.693,0
4.733,-1.594,0
4.734,-0.679,0
4.735,2.068,0
4.736,2.8,0
4.737,3.532,0
4.738,2.983,0
4.739,1.152,0
4.74,1.701,0
4.741,-1.594,0
4.742,2.617,0
4.743,3.716,0
4.744,4.265,0
4.745,8.843,0
4.746,14.519,0
4.747,26.054,0
4.748,44.365,0
4.749,51.506,0
4.75,62.492,0
4.751,40.337,0
4.752,1.701,0
4.753,-24.483,0
4.754,-48.286,0
4.755,-44.075,0
4.756,-47.92,0
4.757,-44.441,0
4.758,-34.92,0
4.759,-31.99,0
4.76,-18.623,0
4.761,-16.243,0
4.762,-14.046,0
4.763,-8.003,0
4.764,-6.172,0
4.765,-1.228,0
4.766,3.166,0
4.767,4.448,0
4.768,3.349,0
4.769,6.645,0
4.77,7.561,0
4.771,6.645,0
4.772,7.378,0
4.773,8.11,0
4.774,7.561,0
4.775,9.392,0
4.776,7.744,0
4.777,11.04,0
4.778,9.758,0
4.779,8.659,0
4.78,10.49,0
4.781,8.659,0
4.782,8.843,0
4.783,8.11,0
4.784,7.378,0
4.785,9.575,0
4.786,7.744,0
4.787,7.561,0
4.788,4.082,0
4.789,2.8,0
4.79,4.082,0
4.791,3.716,0
4.792,2.617,0
4.793,0.053,0
4.794,0.053,0
4.795,0.786,0
4.796,4.997,0
4.797,14.519,0
4.798,29.533,0
4.799,51.689,0
4.8,60.478,0
4.801,30.998,0
4.802,-12.398,0
4.803,-29.61,0
4.804,-45.174,0
4.805,-40.413,0
4.806,-44.624,0
4.807,-32.906,0
4.808,-29.427,0
4.809,-26.314,0
4.81,-23.384,0
4.811,-15.51,0
4.812,-13.13,0
4.813,-6.538,0
4.814,-4.524,0
4.815,-2.693,0
4.816,2.251,0
4.817,6.645,0
4.818,7.927,0
4.819,4.448,0
4.82,7.744,0
4.821,2.8,0
4.822,7.378,0
4.823,9.758,0
4.824,10.49,0
4.825,9.941,0
4.826,8.11,0
4.827,8.659,0
4.828,4.082,0
4.829,2.251,0
4.83,4.997,0
4.831,4.631,0
4.832,7.744,0
4.833,4.997,0
4.834,6.828,0
4.835,7.927,0
4.836,9.392,0
4.837,11.223,0
4.838,9.392,0
4.839,5.913,0
4.84,2.617,0
4.841,2.251,0
4.842,0.237,0
4.843,-0.862,0
4.844,1.701,0
4.845,-5.073,0
4.846,-3.059,0
4.847,1.152,0
4.848,10.674,0
4.849,31.181,0
4.85,51.872,0
4.851,33.196,0
4.852,1.518,0
4.853,-20.088,0
4.854,-39.68,0
4.855,-36.201,0
4.856,-33.089,0
4.857,-36.018,0
4.858,-33.455,0
4.859,-26.314,0
4.86,-19.722,0
4.861,-17.708,0
4.862,-12.215,0
4.863,-7.271,0
4.864,-2.876,0
4.865,-1.594,0
4.866,1.885,0
4.867,2.983,0
4.868,5.913,0
4.869,6.828,0
4.87,6.096,0
4.871,9.941,0
4.872,9.392,0
4.873,6.279,0
4.874,6.828,0
4.875,6.462,0
4.876,5.18,0
4.877,0.603,0
4.878,2.434,0
4.879,2.983,0
4.88,8.476,0
4.881,6.279,0
4.882,4.448,0
4.883,1.335,0
4.884,7.561,0
4.885,3.532,0
4.886,4.265,0
4.887,6.096,0
4.888,4.265,0
4.889,3.716,0
4.89,1.335,0
4.891,1.701,0
4.892,2.068,0
4.893,0.237,0
4.894,-0.13,0
4.895,1.335,0
4.896,-1.411,0
4.897,-2.144,0
4.898,1.885,0
4.899,10.307,0
4.9,28.801,0
4.901,47.478,0
4.902,59.563,0
4.903,35.21,0
4.904,19.096,0
4.905,10.307,0
4.906,7.744,0
4.907,14.885,0
4.908,-13.863,0
4.909,-41.328,0
4.91,-66.231,0
4.911,-69.344,0
4.912,-66.414,0
4.913,-53.047,0
4.914,-45.906,0
4.915,-43.709,0
4.916,-29.61,0
4.917,-24.116,0
4.918,-12.581,0
4.919,-11.116,0
4.92,-1.594,0
4.921,1.885,0
4.922,7.561,0
4.923,4.631,0
4.924,13.054,0
4.925,11.955,0
4.926,12.871,0
4.927,17.448,0
4.928,15.068,0
4.929,12.871,0
4.93,14.702,0
4.931,11.589,0
4.932,14.336,0
4.933,13.054,0
4.934,17.265,0
4.935,15.617,0
4.936,16.899,0
4.937,13.786,0
4.938,11.04,0
4.939,9.209,0
4.94,9.575,0
4.941,9.758,0
4.942,5.547,0
4.943,6.096,0
4.944,6.645,0
4.945,1.152,0
4.946,4.997,0
4.947,2.983,0
4.948,3.532,0
4.949,13.054,0
4.95,30.815,0
4.951,37.956,0
4.952,57.915,0
4.953,65.788,0
4.954,29.35,0
4.955,-17.891,0
4.956,-36.751,0
4.957,-42.427,0
4.958,-47.554,0
4.959,-42.793,0
4.96,-38.582,0
4.961,-26.863,0
4.962,-23.384,0
4.963,-20.271,0
4.964,-17.342,0
4.965,-9.468,0
4.966,-7.088,0
4.967,-0.496,0
4.968,17.632,0
4.969,29.717,0
4.97,14.336,0
4.971,0.237,0
4.972,-8.919,0
4.973,-10.567,0
4.974,-9.102,0
4.975,-5.073,0
4.976,-3.975,0
4.977,1.701,0
4.978,0.786,0
4.979,3.532,0
4.98,-0.496,0
4.981,1.701,0
4.982,6.279,0
4.983,4.448,0
4.984,7.195,0
4.985,4.814,0
4.986,9.941,0
4.987,5.364,0
4.988,4.814,0
4.989,5.364,0
4.99,7.744,0
4.991,0.786,0
4.992,1.701,0
4.993,4.448,0
4.994,5.18,0
4.995,-0.13,0
4.996,1.701,0
4.997,3.532,0
4.998,3.716,0
4.999,6.462,0
5,13.969,0
5.001,30.998,0
5.002,47.844,0
5.003,63.225,0
5.004,33.012,0
5.005,2.8,0
5.006,-24.666,0
5.007,-35.286,0
5.008,-38.399,0
5.009,-35.469,0
5.01,-32.906,0
5.011,-25.764,0
5.012,-23.567,0
5.013,-21.553,0
5.014,-16.06,0
5.015,-7.82,0
5.016,-9.285,0
5.017,0.237,0
5.018,-0.862,0
5.019,2.434,0
5.02,3.349,0
5.021,6.096,0
5.022,5.364,0
5.023,7.561,0
5.024,5.73,0
5.025,6.279,0
5.026,6.828,0
5.027,5.547,0
5.028,6.828,0
5.029,4.082,0
5.03,5.18,0
5.031,7.011,0
5.032,4.997,0
5.033,5.73,0
5.034,5.913,0
5.035,6.096,0
5.036,7.561,0
5.037,4.631,0
5.038,0.786,0
5.039,-1.594,0
5.04,-0.313,0
5.041,0.053,0
5.042,1.885,0
5.043,-1.411,0
5.044,4.814,0
5.045,2.068,0
5.046,2.8,0
5.047,3.532,0
5.048,1.701,0
5.049,0.053,0
5.05,1.885,0
5.051,10.307,0
5.052,21.477,0
5.053,43.999,0
5.054,60.112,0
5.055,51.323,0
5.056,21.843,0
5.057,-21.553,0
5.058,-38.765,0
5.059,-33.638,0
5.06,-38.399,0
5.061,-42.61,0
5.062,-30.891,0
5.063,-27.412,0
5.064,-24.3,0
5.065,-9.468,0
5.066,-12.031,0
5.067,-9.651,0
5.068,-3.059,0
5.069,2.983,0
5.07,-2.51,0
5.071,2.434,0
5.072,0.969,0
5.073,2.251,0
5.074,3.349,0
5.075,2.251,0
5.076,5.18,0
5.077,9.758,0
5.078,5.73,0
5.079,4.997,0
5.08,4.448,0
5.081,8.843,0
5.082,4.997,0
5.083,5.364,0
5.084,7.561,0
5.085,7.195,0
5.086,3.716,0
5.087,4.082,0
5.088,4.448,0
5.089,4.814,0
5.09,7.378,0
5.091,5.364,0
5.092,3.532,0
5.093,5.364,0
5.094,4.265,0
5.095,3.716,0
5.096,2.434,0
5.097,0.053,0
5.098,-0.679,0
5.099,-1.411,0
5.1,1.518,0
5.101,2.8,0
5.102,6.279,0
5.103,13.786,0
5.104,30.815,0
5.105,47.661,0
5.106,41.069,0
5.107,22.942,0
5.108,-8.736,0
5.109,-30.342,0
5.11,-42.061,0
5.111,-45.54,0
5.112,-42.427,0
5.113,-39.497,0
5.114,-31.624,0
5.115,-24.483,0
5.116,-22.285,0
5.117,-16.243,0
5.118,-10.75,0
5.119,-2.51,0
5.12,1.885,0
5.121,3.166,0
5.122,2.068,0
5.123,7.744,0
5.124,8.659,0
5.125,9.575,0
5.126,8.843,0
5.127,11.04,0
5.128,10.49,0
5.129,8.659,0
5.13,8.11,0
5.131,10.49,0
5.132,6.279,0
5.133,9.026,0
5.134,8.659,0
5.135,9.941,0
5.136,7.195,0
5.137,6.828,0
5.138,4.265,0
5.139,5.73,0
5.14,3.899,0
5.141,4.631,0
5.142,3.532,0
5.143,2.983,0
5.144,5.18,0
5.145,7.011,0
5.146,5.73,0
5.147,3.532,0
5.148,4.265,0
5.149,0.786,0
5.15,3.899,0
5.151,3.716,0
5.152,4.082,0
5.153,9.758,0
5.154,22.209,0
5.155,42.351,0
5.156,50.224,0
5.157,57.365,0
5.158,24.223,0
5.159,-9.102,0
5.16,-39.314,0
5.161,-51.033,0
5.162,-47.554,0
5.163,-44.441,0
5.164,-41.511,0
5.165,-28.145,0
5.166,-25.764,0
5.167,-19.173,0
5.168,-17.158,0
5.169,-8.003,0
5.17,-6.355,0
5.171,-1.961,0
5.172,-3.242,0
5.173,0.237,0
5.174,1.335,0
5.175,4.265,0
5.176,3.349,0
5.177,7.378,0
5.178,6.645,0
5.179,7.195,0
5.18,2.8,0
5.181,11.223,0
5.182,7.744,0
5.183,11.04,0
5.184,11.955,0
5.185,14.702,0
5.186,12.322,0
5.187,10.124,0
5.188,6.828,0
5.189,6.279,0
5.19,4.631,0
5.191,4.265,0
5.192,1.152,0
5.193,1.518,0
5.194,1.885,0
5.195,0.053,0
5.196,2.068,0
5.197,-1.594,0
5.198,0.786,0
5.199,2.983,0
5.2,4.082,0
5.201,5.18,0
5.202,3.716,0
5.203,4.082,0
5.204,8.659,0
5.205,18.913,0
5.206,41.435,0
5.207,57.549,0
5.208,30.815,0
5.209,-1.411,0
5.21,-23.018,0
5.211,-34.737,0
5.212,-38.216,0
5.213,-28.694,0
5.214,-8.003,0
5.215,-0.13,0
5.216,-16.975,0
5.217,-23.567,0
5.218,-29.61,0
5.219,-20.454,0
5.22,-22.102,0
5.221,-17.708,0
5.222,-13.679,0
5.223,-12.581,0
5.224,-4.707,0
5.225,-3.792,0
5.226,-1.045,0
5.227,-0.313,0
5.228,4.997,0
5.229,9.575,0
5.23,16.533,0
5.231,19.28,0
5.232,21.66,0
5.233,26.97,0
5.234,30.266,0
5.235,38.506,0
5.236,41.802,0
5.237,38.872,0
5.238,37.956,0
5.239,32.28,0
5.24,25.322,0
5.241,16.899,0
5.242,13.603,0
5.243,6.645,0
5.244,-7.271,0
5.245,-25.398,0
5.246,-32.539,0
5.247,-39.131,0
5.248,-45.174,0
5.249,-43.343,0
5.25,-38.399,0
5.251,-27.962,0
5.252,-21.187,0
5.253,-35.835,0
5.254,-49.385,0
5.255,-58.54,0
5.256,-80.147,0
5.257,-65.315,0
5.258,-67.879,0
5.259,-99.556,0
5.26,-138.56,0
5.261,-164.74,0
5.262,-169.5,0
5.263,-156.69,0
5.264,-137.09,0
5.265,-112.19,0
5.266,-89.668,0
5.267,-45.174,0
5.268,12.138,0
5.269,81.535,0
5.27,146.9,0
5.271,155.33,0
5.272,163.02,0
5.273,142.14,0
5.274,123.28,0
5.275,128.96,0
5.276,123.83,0
5.277,128.59,0
5.278,124.38,0
5.279,143.97,0
5.28,161.74,0
5.281,177.85,0
5.282,174.92,0
5.283,182.79,0
5.284,160.82,0
5.285,140.13,0
5.286,121.45,0
5.287,104.61,0
5.288,80.254,0
5.289,50.957,0
5.29,31.365,0
5.291,20.744,0
5.292,17.632,0
5.293,8.843,0
5.294,-4.524,0
5.295,-16.609,0
5.296,-27.595,0
5.297,-33.638,0
5.298,-42.793,0
5.299,-51.033,0
5.3,-40.596,0
5.301,-47.371,0
5.302,-55.794,0
5.303,-61.47,0
5.304,-57.808,0
5.305,-58.723,0
5.306,-44.807,0
5.307,-34.737,0
5.308,-18.257,0
5.309,-16.06,0
5.31,-10.017,0
5.311,-30.159,0
5.312,-70.442,0
5.313,-99.19,0
5.314,-114.75,0
5.315,-109.99,0
5.316,-105.78,0
5.317,-94.063,0
5.318,-83.443,0
5.319,-73.921,0
5.32,-65.132,0
5.321,-57.259,0
5.322,-45.174,0
5.323,-38.582,0
5.324,-32.539,0
5.325,-23.384,0
5.326,-21.736,0
5.327,-14.229,0
5.328,-7.454,0
5.329,-6.355,0
5.33,-3.059,0
5.331,3.899,0
5.332,6.645,0
5.333,10.674,0
5.334,11.406,0
5.335,11.955,0
5.336,10.124,0
5.337,8.476,0
5.338,8.11,0
5.339,11.223,0
5.34,12.322,0
5.341,13.42,0
5.342,12.322,0
5.343,11.589,0
5.344,10.857,0
5.345,11.589,0
5.346,13.054,0
5.347,11.589,0
5.348,9.392,0
5.349,12.505,0
5.35,13.603,0
5.351,13.237,0
5.352,15.801,0
5.353,11.223,0
5.354,9.392,0
5.355,4.448,0
5.356,8.843,0
5.357,17.265,0
5.358,30.815,0
5.359,50.957,0
5.36,43.083,0
5.361,55.168,0
5.362,57.365,0
5.363,27.153,0
5.364,-11.848,0
5.365,-27.412,0
5.366,-32.173,0
5.367,-36.385,0
5.368,-32.539,0
5.369,-29.06,0
5.37,-25.948,0
5.371,-23.018,0
5.372,-20.454,0
5.373,-13.313,0
5.374,-6.721,0
5.375,-0.679,0
5.376,4.814,0
5.377,3.166,0
5.378,4.631,0
5.379,5.913,0
5.38,7.011,0
5.381,12.688,0
5.382,13.603,0
5.383,16.35,0
5.384,13.969,0
5.385,13.237,0
5.386,12.688,0
5.387,13.237,0
5.388,7.011,0
5.389,7.744,0
5.39,7.011,0
5.391,6.462,0
5.392,7.011,0
5.393,8.659,0
5.394,9.026,0
5.395,6.828,0
5.396,7.927,0
5.397,7.561,0
5.398,9.392,0
5.399,11.406,0
5.4,11.589,0
5.401,10.307,0
5.402,8.843,0
5.403,5.547,0
5.404,0.42,0
5.405,-4.158,0
5.406,0.786,0
5.407,3.899,0
5.408,12.322,0
5.409,25.871,0
5.41,46.013,0
5.411,53.886,0
5.412,51.506,0
5.413,36.125,0
5.414,13.969,0
5.415,16.899,0
5.416,9.026,0
5.417,6.645,0
5.418,0.053,0
5.419,-14.046,0
5.42,-41.511,0
5.421,-61.104,0
5.422,-71.724,0
5.423,-68.611,0
5.424,-59.822,0
5.425,-51.948,0
5.426,-39.864,0
5.427,-33.272,0
5.428,-27.229,0
5.429,-14.412,0
5.43,-9.468,0
5.431,-1.961,0
5.432,2.068,0
5.433,8.11,0
5.434,11.406,0
5.435,16.35,0
5.436,19.096,0
5.437,15.068,0
5.438,17.265,0
5.439,17.815,0
5.44,17.265,0
5.441,21.111,0
5.442,16.533,0
5.443,17.082,0
5.444,9.758,0
5.445,10.674,0
5.446,13.42,0
5.447,12.688,0
5.448,10.49,0
5.449,13.786,0
5.45,11.955,0
5.451,10.307,0
5.452,11.589,0
5.453,9.392,0
5.454,6.645,0
5.455,7.011,0
5.456,5.18,0
5.457,1.518,0
5.458,3.532,0
5.459,7.744,0
5.46,17.265,0
5.461,24.04,0
5.462,5.547,0
5.463,2.983,0
5.464,24.956,0
5.465,27.885,0
5.466,46.562,0
5.467,44.182,0
5.468,11.04,0
5.469,-22.285,0
5.47,-43.892,0
5.471,-55.611,0
5.472,-52.132,0
5.473,-49.019,0
5.474,-46.089,0
5.475,-43.526,0
5.476,-31.441,0
5.477,-24.849,0
5.478,-18.806,0
5.479,-9.651,0
5.48,-4.707,0
5.481,-3.242,0
5.482,0.786,0
5.483,9.209,0
5.484,8.11,0
5.485,13.054,0
5.486,10.307,0
5.487,9.575,0
5.488,10.307,0
5.489,9.758,0
5.49,9.209,0
5.491,11.955,0
5.492,10.674,0
5.493,10.307,0
5.494,9.209,0
5.495,8.11,0
5.496,5.547,0
5.497,10.124,0
5.498,6.828,0
5.499,9.941,0
5.5,6.096,0
5.501,12.688,0
5.502,8.11,0
5.503,2.434,0
5.504,0.237,0
5.505,3.532,0
5.506,0.42,0
5.507,0.969,0
5.508,3.716,0
5.509,4.997,0
5.51,6.279,0
5.511,12.505,0
5.512,26.421,0
5.513,44.548,0
5.514,46.928,0
5.515,62.309,0
5.516,44.182,0
5.517,7.744,0
5.518,-39.497,0
5.519,-45.723,0
5.52,-51.399,0
5.521,-46.272,0
5.522,-41.511,0
5.523,-37.3,0
5.524,-33.455,0
5.525,-29.976,0
5.526,-20.454,0
5.527,-11.665,0
5.528,-9.102,0
5.529,-1.961,0
5.53,4.631,0
5.531,6.645,0
5.532,4.814,0
5.533,6.462,0
5.534,7.927,0
5.535,6.645,0
5.536,5.547,0
5.537,11.223,0
5.538,10.307,0
5.539,11.223,0
5.54,5.547,0
5.541,9.392,0
5.542,7.561,0
5.543,10.674,0
5.544,9.026,0
5.545,6.645,0
5.546,7.927,0
5.547,13.42,0
5.548,12.688,0
5.549,10.857,0
5.55,9.026,0
5.551,7.378,0
5.552,4.997,0
5.553,0.786,0
5.554,-0.862,0
5.555,0.42,0
5.556,-0.862,0
5.557,3.716,0
5.558,5.547,0
5.559,2.983,0
5.56,0.237,0
5.561,7.744,0
5.562,24.773,0
5.563,56.45,0
5.564,69.267,0
5.565,33.745,0
5.566,-9.285,0
5.567,-26.497,0
5.568,-31.624,0
5.569,-36.385,0
5.57,-32.173,0
5.571,-28.328,0
5.572,-24.849,0
5.573,-21.736,0
5.574,-18.806,0
5.575,-16.243,0
5.576,-9.102,0
5.577,-6.905,0
5.578,-4.89,0
5.579,0.603,0
5.58,2.251,0
5.581,6.645,0
5.582,10.674,0
5.583,7.195,0
5.584,10.49,0
5.585,13.42,0
5.586,8.843,0
5.587,9.575,0
5.588,7.378,0
5.589,5.547,0
5.59,6.096,0
5.591,3.349,0
5.592,2.068,0
5.593,5.18,0
5.594,6.279,0
5.595,5.913,0
5.596,2.617,0
5.597,4.631,0
5.598,4.265,0
5.599,8.293,0
5.6,5.913,0
5.601,6.279,0
5.602,3.532,0
5.603,2.434,0
5.604,4.265,0
5.605,-0.313,0
5.606,0.237,0
5.607,-1.594,0
5.608,-3.242,0
5.609,-0.862,0
5.61,0.053,0
5.611,2.251,0
5.612,8.476,0
5.613,16.899,0
5.614,33.928,0
5.615,46.013,0
5.616,43.816,0
5.617,33.745,0
5.618,28.252,0
5.619,16.716,0
5.62,6.279,0
5.621,-0.496,0
5.622,13.054,0
5.623,-7.088,0
5.624,-42.061,0
5.625,-65.865,0
5.626,-70.076,0
5.627,-66.231,0
5.628,-62.752,0
5.629,-53.23,0
5.63,-38.399,0
5.631,-30.525,0
5.632,-23.384,0
5.633,-12.398,0
5.634,-6.355,0
5.635,-0.862,0
5.636,7.378,0
5.637,5.913,0
5.638,9.941,0
5.639,11.04,0
5.64,14.336,0
5.641,13.42,0
5.642,16.167,0
5.643,15.434,0
5.644,14.702,0
5.645,15.251,0
5.646,15.801,0
5.647,16.35,0
5.648,13.054,0
5.649,14.336,0
5.65,13.969,0
5.651,14.336,0
5.652,13.237,0
5.653,8.659,0
5.654,8.11,0
5.655,9.941,0
5.656,9.392,0
5.657,8.11,0
5.658,8.476,0
5.659,7.378,0
5.66,5.547,0
5.661,5.913,0
5.662,4.082,0
5.663,8.659,0
5.664,18.913,0
5.665,41.435,0
5.666,63.957,0
5.667,25.322,0
5.668,-11.299,0
5.669,-35.103,0
5.67,-30.891,0
5.671,-42.61,0
5.672,-31.99,0
5.673,-35.103,0
5.674,-26.314,0
5.675,-18.44,0
5.676,-16.06,0
5.677,-13.863,0
5.678,-7.82,0
5.679,-5.989,0
5.68,-4.341,0
5.681,-2.876,0
5.682,1.152,0
5.683,4.631,0
5.684,7.927,0
5.685,7.011,0
5.686,6.096,0
5.687,8.476,0
5.688,6.279,0
5.689,6.828,0
5.69,8.659,0
5.691,3.532,0
5.692,4.082,0
5.693,0.969,0
5.694,0.42,0
5.695,0.786,0
5.696,0.42,0
5.697,2.434,0
5.698,1.335,0
5.699,6.828,0
5.7,6.096,0
5.701,4.265,0
5.702,2.434,0
5.703,1.885,0
5.704,2.251,0
5.705,9.209,0
5.706,24.406,0
5.707,22.209,0
5.708,0.053,0
5.709,-8.736,0
5.71,-11.299,0
5.711,-13.679,0
5.712,-15.327,0
5.713,-13.13,0
5.714,-7.088,0
5.715,13.054,0
5.716,37.224,0
5.717,40.337,0
5.718,43.266,0
5.719,24.59,0
5.72,36.675,0
5.721,38.872,0
5.722,8.659,0
5.723,-38.948,0
5.724,-57.808,0
5.725,-52.132,0
5.726,-57.259,0
5.727,-52.498,0
5.728,-39.68,0
5.729,-35.835,0
5.73,-25.215,0
5.731,-22.102,0
5.732,-13.313,0
5.733,-5.44,0
5.734,-3.059,0
5.735,3.532,0
5.736,5.547,0
5.737,7.378,0
5.738,9.026,0
5.739,13.42,0
5.74,17.448,0
5.741,13.969,0
5.742,12.871,0
5.743,13.786,0
5.744,12.871,0
5.745,10.49,0
5.746,11.223,0
5.747,10.674,0
5.748,10.124,0
5.749,10.674,0
5.75,11.955,0
5.751,12.322,0
5.752,8.476,0
5.753,9.758,0
5.754,10.124,0
5.755,8.11,0
5.756,4.631,0
5.757,6.828,0
5.758,4.082,0
5.759,3.716,0
5.76,0.42,0
5.761,3.166,0
5.762,0.603,0
5.763,3.716,0
5.764,4.814,0
5.765,9.392,0
5.766,19.646,0
5.767,42.168,0
5.768,64.69,0
5.769,32.097,0
5.77,1.885,0
5.771,-33.638,0
5.772,-38.399,0
5.773,-34.187,0
5.774,-38.032,0
5.775,-34.553,0
5.776,-25.032,0
5.777,-27.962,0
5.778,-20.088,0
5.779,-12.947,0
5.78,-10.75,0
5.781,-8.736,0
5.782,-3.242,0
5.783,-1.594,0
5.784,2.8,0
5.785,1.518,0
5.786,2.617,0
5.787,3.716,0
5.788,4.631,0
5.789,3.716,0
5.79,6.096,0
5.791,5.364,0
5.792,7.195,0
5.793,2.8,0
5.794,3.349,0
5.795,2.983,0
5.796,8.11,0
5.797,8.659,0
5.798,2.983,0
5.799,6.828,0
5.8,8.659,0
5.801,6.828,0
5.802,6.279,0
5.803,4.997,0
5.804,2.8,0
5.805,3.899,0
5.806,-1.045,0
5.807,0.786,0
5.808,-1.045,0
5.809,-1.594,0
5.81,-1.228,0
5.811,-2.51,0
5.812,0.237,0
5.813,4.448,0
5.814,4.448,0
5.815,7.195,0
5.816,14.702,0
5.817,31.731,0
5.818,53.703,0
5.819,62.492,0
5.82,54.619,0
5.821,18.181,0
5.822,-29.06,0
5.823,-35.286,0
5.824,-40.962,0
5.825,-35.835,0
5.826,-40.596,0
5.827,-36.385,0
5.828,-32.539,0
5.829,-29.06,0
5.83,-19.539,0
5.831,-10.75,0
5.832,-8.186,0
5.833,-1.045,0
5.834,1.152,0
5.835,-0.862,0
5.836,0.969,0
5.837,-0.679,0
5.838,3.716,0
5.839,7.744,0
5.84,8.843,0
5.841,7.744,0
5.842,8.659,0
5.843,9.575,0
5.844,5.547,0
5.845,6.279,0
5.846,6.828,0
5.847,7.378,0
5.848,6.828,0
5.849,8.11,0
5.85,8.476,0
5.851,8.843,0
5.852,9.209,0
5.853,5.18,0
5.854,5.547,0
5.855,8.659,0
5.856,2.434,0
5.857,3.349,0
5.858,0.969,0
5.859,4.814,0
5.86,1.518,0
5.861,2.068,0
5.862,-0.679,0
5.863,2.617,0
5.864,3.899,0
5.865,2.983,0
5.866,0.969,0
5.867,6.645,0
5.868,19.096,0
5.869,46.562,0
5.87,66.155,0
5.871,55.534,0
5.872,6.828,0
5.873,-28.145,0
5.874,-34.37,0
5.875,-40.047,0
5.876,-34.92,0
5.877,-39.68,0
5.878,-35.469,0
5.879,-31.624,0
5.88,-21.004,0
5.881,-17.891,0
5.882,-14.961,0
5.883,-7.088,0
5.884,0.053,0
5.885,2.251,0
5.886,4.265,0
5.887,2.434,0
5.888,4.082,0
5.889,5.547,0
5.89,4.265,0
5.891,3.166,0
5.892,2.068,0
5.893,2.983,0
5.894,5.73,0
5.895,8.11,0
5.896,8.843,0
5.897,7.011,0
5.898,7.561,0
5.899,7.011,0
5.9,8.293,0
5.901,11.406,0
5.902,9.392,0
5.903,6.828,0
5.904,5.73,0
5.905,3.716,0
5.906,2.983,0
5.907,1.701,0
5.908,0.237,0
5.909,-3.059,0
5.91,-1.778,0
5.911,-1.411,0
5.912,-0.313,0
5.913,0.053,0
5.914,0.786,0
5.915,2.068,0
5.916,2.983,0
5.917,5.913,0
5.918,11.589,0
5.919,24.04,0
5.92,47.844,0
5.921,44.731,0
5.922,41.802,0
5.923,23.125,0
5.924,-8.552,0
5.925,-30.159,0
5.926,-41.878,0
5.927,-45.357,0
5.928,-42.244,0
5.929,-39.314,0
5.93,-31.441,0
5.931,-29.06,0
5.932,-22.469,0
5.933,-16.426,0
5.934,-10.933,0
5.935,-5.989,0
5.936,-7.454,0
5.937,-3.426,0
5.938,2.617,0
5.939,3.716,0
5.94,0.786,0
5.941,1.701,0
5.942,7.378,0
5.943,8.11,0
5.944,7.561,0
5.945,9.392,0
5.946,9.941,0
5.947,11.223,0
5.948,8.11,0
5.949,10.124,0
5.95,11.223,0
5.951,16.716,0
5.952,28.252,0
5.953,20.012,0
5.954,3.532,0
5.955,-3.059,0
5.956,-9.102,0
5.957,-10.933,0
5.958,-9.285,0
5.959,-7.82,0
5.96,-9.102,0
5.961,-5.623,0
5.962,-2.327,0
5.963,-3.242,0
5.964,-2.327,0
5.965,-1.594,0
5.966,0.603,0
5.967,2.983,0
5.968,4.814,0
5.969,7.927,0
5.97,16.35,0
5.971,34.844,0
5.972,64.323,0
5.973,52.605,0
5.974,6.096,0
5.975,-25.581,0
5.976,-31.258,0
5.977,-36.385,0
5.978,-31.624,0
5.979,-35.835,0
5.98,-24.116,0
5.981,-20.637,0
5.982,-17.525,0
5.983,-8.736,0
5.984,-11.299,0
5.985,-8.919,0
5.986,-6.721,0
5.987,-4.707,0
5.988,-2.876,0
5.989,-4.524,0
5.99,2.983,0
5.991,1.701,0
5.992,5.18,0
5.993,8.476,0
5.994,7.561,0
5.995,6.645,0
5.996,9.026,0
5.997,8.293,0
5.998,8.843,0
5.999,10.674,0
6,9.026,0
6.001,7.744,0
6.002,7.378,0
6.003,4.631,0
6.004,5.73,0
6.005,3.166,0
6.006,5.913,0
6.007,3.349,0
6.008,5.913,0
6.009,5.18,0
6.01,3.899,0
6.011,2.068,0
6.012,3.166,0
6.013,2.983,0
6.014,3.166,0
6.015,1.518,0
6.016,3.899,0
6.017,3.716,0
6.018,2.251,0
6.019,0.42,0
6.02,4.448,0
6.021,12.871,0
6.022,31.365,0
6.023,60.844,0
6.024,33.379,0
6.025,-5.989,0
6.026,-32.173,0
6.027,-36.934,0
6.028,-41.145,0
6.029,-29.427,0
6.03,-32.906,0
6.031,-23.384,0
6.032,-20.454,0
6.033,-17.891,0
6.034,-10.75,0
6.035,-8.552,0
6.036,-6.538,0
6.037,-4.707,0
6.038,0.237,0
6.039,1.701,0
6.04,2.983,0
6.041,4.082,0
6.042,2.983,0
6.043,0.053,0
6.044,0.969,0
6.045,3.349,0
6.046,4.082,0
6.047,5.913,0
6.048,4.082,0
6.049,12.505,0
6.05,13.603,0
6.051,12.505,0
6.052,7.561,0
6.053,6.645,0
6.054,9.026,0
6.055,9.758,0
6.056,3.532,0
6.057,1.152,0
6.058,4.997,0
6.059,1.701,0
6.06,-1.411,0
6.061,0.237,0
6.062,-1.045,0
6.063,4.082,0
6.064,5.913,0
6.065,10.307,0
6.066,6.462,0
6.067,4.082,0
6.068,9.209,0
6.069,4.448,0
6.07,3.899,0
6.071,13.42,0
6.072,28.435,0
6.073,42.534,0
6.074,48.027,0
6.075,52.971,0
6.076,30.449,0
6.077,-11.848,0
6.078,-40.596,0
6.079,-45.723,0
6.08,-40.962,0
6.081,-36.751,0
6.082,-32.906,0
6.083,-29.427,0
6.084,-26.314,0
6.085,-17.525,0
6.086,-20.088,0
6.087,-12.947,0
6.088,-10.75,0
6.089,-8.736,0
6.09,-3.242,0
6.091,1.701,0
6.092,0.237,0
6.093,4.265,0
6.094,3.166,0
6.095,4.265,0
6.096,9.209,0
6.097,11.955,0
6.098,9.575,0
6.099,7.378,0
6.1,7.927,0
6.101,12.322,0
6.102,6.096,0
6.103,3.716,0
6.104,7.561,0
6.105,4.265,0
6.106,6.096,0
6.107,5.547,0
6.108,5.18,0
6.109,4.814,0
6.11,2.8,0
6.111,4.631,0
6.112,3.532,0
6.113,5.547,0
6.114,6.828,0
6.115,6.096,0
6.116,6.645,0
6.117,6.828,0
6.118,4.265,0
6.119,-1.228,0
6.12,0.053,0
6.121,0.786,0
6.122,7.011,0
6.123,19.463,0
6.124,39.604,0
6.125,42.168,0
6.126,39.787,0
6.127,50.774,0
6.128,24.59,0
6.129,-7.637,0
6.13,-37.849,0
6.131,-41.695,0
6.132,-45.174,0
6.133,-42.061,0
6.134,-39.131,0
6.135,-36.568,0
6.136,-34.187,0
6.137,-27.595,0
6.138,-17.525,0
6.139,-15.694,0
6.14,-10.75,0
6.141,-3.242,0
6.142,0.786,0
6.143,1.885,0
6.144,2.983,0
6.145,5.913,0
6.146,6.828,0
6.147,4.448,0
6.148,8.293,0
6.149,11.589,0
6.15,12.138,0
6.151,11.589,0
6.152,11.223,0
6.153,9.941,0
6.154,9.575,0
6.155,8.476,0
6.156,13.969,0
6.157,16.167,0
6.158,16.716,0
6.159,18.547,0
6.16,19.096,0
6.161,21.477,0
6.162,24.59,0
6.163,30.815,0
6.164,35.393,0
6.165,36.125,0
6.166,32.28,0
6.167,26.054,0
6.168,22.026,0
6.169,15.068,0
6.17,8.659,0
6.171,5.913,0
6.172,-6.538,0
6.173,-8.369,0
6.174,-6.721,0
6.175,3.716,0
6.176,-5.806,0
6.177,0.237,0
6.178,-16.792,0
6.179,-38.765,0
6.18,-59.456,0
6.181,-78.133,0
6.182,-94.978,0
6.183,-105.97,0
6.184,-128.12,0
6.185,-154.85,0
6.186,-165.47,0
6.187,-168.59,0
6.188,-153.75,0
6.189,-151.19,0
6.19,-144.05,0
6.191,-133.06,0
6.192,-110.91,0
6.193,-90.218,0
6.194,-76.851,0
6.195,-40.413,0
6.196,17.265,0
6.197,117.42,0
6.198,185.72,0
6.199,198.17,0
6.2,164.48,0
6.201,154.23,0
6.202,126.21,0
6.203,134.64,0
6.204,126.95,0
6.205,119.99,0
6.206,126.21,0
6.207,143.43,0
6.208,158.99,0
6.209,182.79,0
6.21,187,0
6.211,183.16,0
6.212,165.4,0
6.213,136.1,0
6.214,116.51,0
6.215,105.89,0
6.216,83.366,0
6.217,50.774,0
6.218,29.167,0
6.219,17.448,0
6.22,20.927,0
6.221,11.406,0
6.222,0.786,0
6.223,-8.003,0
6.224,-26.68,0
6.225,-14.595,0
6.226,9.758,0
6.227,6.645,0
6.228,-14.046,0
6.229,-54.329,0
6.23,-83.076,0
6.231,-88.203,0
6.232,-92.964,0
6.233,-88.753,0
6.234,-92.598,0
6.235,-89.119,0
6.236,-86.006,0
6.237,-83.076,0
6.238,-80.513,0
6.239,-78.133,0
6.24,-75.935,0
6.241,-73.921,0
6.242,-72.09,0
6.243,-67.146,0
6.244,-56.709,0
6.245,-55.427,0
6.246,-49.385,0
6.247,-46.089,0
6.248,-41.145,0
6.249,-34.737,0
6.25,-30.708,0
6.251,-26.863,0
6.252,-20.637,0
6.253,-23.018,0
6.254,-17.708,0
6.255,-11.482,0
6.256,-3.975,0
6.257,-6.905,0
6.258,-4.158,0
6.259,-6.538,0
6.26,-5.806,0
6.261,-2.51,0
6.262,0.603,0
6.263,2.251,0
6.264,5.547,0
6.265,7.744,0
6.266,7.378,0
6.267,10.857,0
6.268,9.575,0
6.269,10.674,0
6.27,8.843,0
6.271,4.814,0
6.272,10.307,0
6.273,8.11,0
6.274,10.307,0
6.275,20.561,0
6.276,34.111,0
6.277,57.915,0
6.278,67.436,0
6.279,64.507,0
6.28,35.027,0
6.281,-8.369,0
6.282,-25.581,0
6.283,-20.454,0
6.284,-25.215,0
6.285,-29.427,0
6.286,-25.581,0
6.287,-14.961,0
6.288,-11.848,0
6.289,-14.778,0
6.29,-12.215,0
6.291,-5.073,0
6.292,1.518,0
6.293,3.532,0
6.294,5.364,0
6.295,7.011,0
6.296,11.406,0
6.297,10.124,0
6.298,11.223,0
6.299,14.519,0
6.3,11.589,0
6.301,14.336,0
6.302,11.955,0
6.303,14.153,0
6.304,13.603,0
6.305,10.49,0
6.306,12.138,0
6.307,9.758,0
6.308,10.124,0
6.309,12.138,0
6.31,7.927,0
6.311,9.575,0
6.312,7.195,0
6.313,8.476,0
6.314,8.843,0
6.315,9.209,0
6.316,6.645,0
6.317,5.18,0
6.318,4.448,0
6.319,1.518,0
6.32,4.082,0
6.321,4.448,0
6.322,5.18,0
6.323,4.448,0
6.324,5.913,0
6.325,2.983,0
6.326,8.659,0
6.327,16.167,0
6.328,31.365,0
6.329,42.351,0
6.33,40.337,0
6.331,34.844,0
6.332,39.787,0
6.333,32.28,0
6.334,28.252,0
6.335,9.758,0
6.336,-30.525,0
6.337,-59.273,0
6.338,-64.4,0
6.339,-59.639,0
6.34,-46.822,0
6.341,-42.976,0
6.342,-32.356,0
6.343,-29.243,0
6.344,-26.314,0
6.345,-18.44,0
6.346,-11.299,0
6.347,-4.707,0
6.348,1.335,0
6.349,6.828,0
6.35,11.772,0
6.351,13.237,0
6.352,11.955,0
6.353,13.054,0
6.354,16.35,0
6.355,15.434,0
6.356,14.519,0
6.357,12.138,0
6.358,11.406,0
6.359,10.857,0
6.36,10.307,0
6.361,7.561,0
6.362,9.941,0
6.363,8.659,0
6.364,11.406,0
6.365,11.04,0
6.366,14.336,0
6.367,11.589,0
6.368,11.955,0
6.369,6.462,0
6.37,1.152,0
6.371,1.701,0
6.372,3.532,0
6.373,2.983,0
6.374,0.603,0
6.375,0.786,0
6.376,2.068,0
6.377,8.293,0
6.378,22.209,0
6.379,44.365,0
6.38,59.197,0
6.381,29.717,0
6.382,-5.806,0
6.383,-29.61,0
6.384,-33.821,0
6.385,-37.666,0
6.386,-34.187,0
6.387,-31.074,0
6.388,-28.145,0
6.389,-25.581,0
6.39,-18.44,0
6.391,-16.243,0
6.392,-10.2,0
6.393,-8.369,0
6.394,-3.426,0
6.395,-1.961,0
6.396,2.068,0
6.397,8.11,0
6.398,4.814,0
6.399,5.73,0
6.4,4.814,0
6.401,4.082,0
6.402,0.237,0
6.403,0.786,0
6.404,1.335,0
6.405,1.885,0
6.406,2.251,0
6.407,2.617,0
6.408,2.983,0
6.409,6.462,0
6.41,5.18,0
6.411,3.166,0
6.412,4.265,0
6.413,7.561,0
6.414,4.814,0
6.415,2.983,0
6.416,4.814,0
6.417,4.997,0
6.418,4.265,0
6.419,2.983,0
6.42,3.532,0
6.421,1.518,0
6.422,0.786,0
6.423,-1.411,0
6.424,-0.13,0
6.425,1.701,0
6.426,0.053,0
6.427,-0.496,0
6.428,2.8,0
6.429,9.758,0
6.43,24.956,0
6.431,35.942,0
6.432,50.041,0
6.433,55.534,0
6.434,30.632,0
6.435,-23.018,0
6.436,-46.089,0
6.437,-39.131,0
6.438,-57.991,0
6.439,-40.779,0
6.44,-35.652,0
6.441,-30.891,0
6.442,-18.074,0
6.443,9.392,0
6.444,12.871,0
6.445,-3.242,0
6.446,-12.031,0
6.447,-9.468,0
6.448,-11.848,0
6.449,-9.651,0
6.45,-7.637,0
6.451,1.518,0
6.452,3.166,0
6.453,4.631,0
6.454,5.913,0
6.455,7.011,0
6.456,5.913,0
6.457,4.997,0
6.458,5.913,0
6.459,9.941,0
6.46,9.209,0
6.461,12.505,0
6.462,9.392,0
6.463,9.941,0
6.464,12.322,0
6.465,11.04,0
6.466,13.786,0
6.467,9.575,0
6.468,6.828,0
6.469,3.532,0
6.47,10.49,0
6.471,5.547,0
6.472,6.462,0
6.473,7.195,0
6.474,3.349,0
6.475,1.518,0
6.476,0.969,0
6.477,0.786,0
6.478,-1.961,0
6.479,5.547,0
6.48,20.378,0
6.481,50.591,0
6.482,63.408,0
6.483,35.942,0
6.484,-3.426,0
6.485,-29.61,0
6.486,-34.37,0
6.487,-30.159,0
6.488,-34.004,0
6.489,-30.525,0
6.49,-27.412,0
6.491,-18.623,0
6.492,-16.06,0
6.493,-13.679,0
6.494,-7.088,0
6.495,-5.073,0
6.496,-3.242,0
6.497,1.701,0
6.498,9.209,0
6.499,10.49,0
6.5,9.392,0
6.501,6.096,0
6.502,5.18,0
6.503,6.096,0
6.504,5.364,0
6.505,1.518,0
6.506,3.349,0
6.507,3.899,0
6.508,5.547,0
6.509,2.251,0
6.51,2.617,0
6.511,3.716,0
6.512,5.547,0
6.513,8.843,0
6.514,4.997,0
6.515,8.293,0
6.516,5.18,0
6.517,6.279,0
6.518,3.716,0
6.519,2.617,0
6.52,5.364,0
6.521,1.152,0
6.522,0.603,0
6.523,0.969,0
6.524,2.251,0
6.525,0.237,0
6.526,-0.862,0
6.527,-0.496,0
6.528,1.518,0
6.529,3.532,0
6.53,5.364,0
6.531,9.392,0
6.532,17.815,0
6.533,36.308,0
6.534,44.182,0
6.535,37.041,0
6.536,39.238,0
6.537,25.139,0
6.538,-2.327,0
6.539,-45.723,0
6.54,-62.935,0
6.541,-57.808,0
6.542,-53.047,0
6.543,-48.836,0
6.544,-44.99,0
6.545,-34.37,0
6.546,-24.849,0
6.547,-21.919,0
6.548,-14.046,0
6.549,-6.905,0
6.55,-4.707,0
6.551,1.335,0
6.552,6.828,0
6.553,5.18,0
6.554,3.716,0
6.555,10.49,0
6.556,13.969,0
6.557,15.068,0
6.558,12.138,0
6.559,9.392,0
6.56,11.772,0
6.561,12.505,0
6.562,14.336,0
6.563,13.786,0
6.564,14.336,0
6.565,14.702,0
6.566,13.42,0
6.567,10.674,0
6.568,7.195,0
6.569,11.406,0
6.57,5.18,0
6.571,-0.496,0
6.572,3.349,0
6.573,-1.228,0
6.574,3.166,0
6.575,2.617,0
6.576,1.335,0
6.577,2.617,0
6.578,-0.13,0
6.579,-0.679,0
6.58,4.265,0
6.581,10.49,0
6.582,22.942,0
6.583,50.407,0
6.584,70,0
6.585,37.773,0
6.586,7.561,0
6.587,-27.962,0
6.588,-32.722,0
6.589,-36.934,0
6.59,-33.089,0
6.591,-36.568,0
6.592,-33.455,0
6.593,-30.525,0
6.594,-22.652,0
6.595,-10.567,0
6.596,-8.369,0
6.597,-6.355,0
6.598,-8.186,0
6.599,0.053,0
6.6,-1.411,0
6.601,2.617,0
6.602,1.518,0
6.603,4.814,0
6.604,5.73,0
6.605,8.476,0
6.606,4.448,0
6.607,6.645,0
6.608,9.941,0
6.609,2.983,0
6.61,3.899,0
6.611,7.927,0
6.612,5.73,0
6.613,9.026,0
6.614,8.476,0
6.615,7.927,0
6.616,6.645,0
6.617,7.011,0
6.618,7.378,0
6.619,3.166,0
6.62,2.617,0
6.621,1.335,0
6.622,-0.862,0
6.623,0.237,0
6.624,0.603,0
6.625,0.237,0
6.626,2.983,0
6.627,1.885,0
6.628,4.448,0
6.629,1.701,0
6.63,-1.411,0
6.631,-3.975,0
6.632,1.518,0
6.633,13.054,0
6.634,37.956,0
6.635,48.576,0
6.636,51.689,0
6.637,24.956,0
6.638,-7.271,0
6.639,-28.877,0
6.64,-40.596,0
6.641,-44.075,0
6.642,-40.962,0
6.643,-38.032,0
6.644,-30.159,0
6.645,-27.779,0
6.646,-21.187,0
6.647,-15.144,0
6.648,-13.313,0
6.649,-11.665,0
6.65,-4.158,0
6.651,-2.876,0
6.652,-1.778,0
6.653,1.518,0
6.654,6.462,0
6.655,9.209,0
6.656,6.828,0
6.657,10.674,0
6.658,8.843,0
6.659,7.011,0
6.66,8.659,0
6.661,8.293,0
6.662,11.406,0
6.663,11.04,0
6.664,12.871,0
6.665,8.843,0
6.666,10.124,0
6.667,10.49,0
6.668,4.265,0
6.669,1.518,0
6.67,3.899,0
6.671,1.701,0
6.672,3.532,0
6.673,1.701,0
6.674,1.152,0
6.675,-0.13,0
6.676,-6.172,0
6.677,1.335,0
6.678,2.251,0
6.679,3.166,0
6.68,0.786,0
6.681,4.448,0
6.682,5.18,0
6.683,1.885,0
6.684,-1.228,0
6.685,0.42,0
6.686,3.716,0
6.687,4.082,0
6.688,10.307,0
6.689,24.223,0
6.69,22.209,0
6.691,2.068,0
6.692,4.631,0
6.693,31.365,0
6.694,56.267,0
6.695,40.154,0
6.696,1.518,0
6.697,-24.666,0
6.698,-29.427,0
6.699,-33.638,0
6.7,-45.357,0
6.701,-41.878,0
6.702,-32.356,0
6.703,-29.427,0
6.704,-21.553,0
6.705,-14.412,0
6.706,-7.82,0
6.707,-5.806,0
6.708,-3.975,0
6.709,-2.327,0
6.71,-0.862,0
6.711,5.913,0
6.712,7.011,0
6.713,5.913,0
6.714,8.843,0
6.715,7.927,0
6.716,11.955,0
6.717,11.223,0
6.718,9.392,0
6.719,9.941,0
6.72,8.293,0
6.721,9.575,0
6.722,9.209,0
6.723,2.983,0
6.724,2.068,0
6.725,4.448,0
6.726,2.251,0
6.727,2.8,0
6.728,3.349,0
6.729,3.899,0
6.73,5.18,0
6.731,5.547,0
6.732,6.645,0
6.733,5.547,0
6.734,11.223,0
6.735,23.674,0
6.736,43.816,0
6.737,46.379,0
6.738,43.999,0
6.739,28.618,0
6.74,-1.594,0
6.741,-31.807,0
6.742,-51.399,0
6.743,-47.92,0
6.744,-44.807,0
6.745,-36.018,0
6.746,-28.145,0
6.747,-21.004,0
6.748,-18.806,0
6.749,-12.764,0
6.75,-10.933,0
6.751,-9.285,0
6.752,-4.89,0
6.753,1.885,0
6.754,-4.158,0
6.755,-0.862,0
6.756,6.096,0
6.757,7.011,0
6.758,7.744,0
6.759,5.547,0
6.76,4.997,0
6.761,8.11,0
6.762,11.955,0
6.763,8.659,0
6.764,10.857,0
6.765,9.758,0
6.766,10.124,0
6.767,14.885,0
6.768,7.927,0
6.769,8.843,0
6.77,9.575,0
6.771,7.378,0
6.772,5.547,0
6.773,4.997,0
6.774,5.547,0
6.775,4.265,0
6.776,2.068,0
6.777,4.082,0
6.778,5.18,0
6.779,1.885,0
6.78,-1.961,0
6.781,5.547,0
6.782,-2.327,0
6.783,2.251,0
6.784,3.166,0
6.785,13.42,0
6.786,28.435,0
6.787,54.619,0
6.788,58.098,0
6.789,54.985,0
6.79,22.392,0
6.791,-16.609,0
6.792,-32.173,0
6.793,-36.934,0
6.794,-41.145,0
6.795,-44.99,0
6.796,-34.37,0
6.797,-31.258,0
6.798,-28.328,0
6.799,-25.764,0
6.8,-18.623,0
6.801,-12.031,0
6.802,-5.989,0
6.803,-4.158,0
6.804,-2.51,0
6.805,1.885,0
6.806,3.166,0
6.807,4.265,0
6.808,7.561,0
6.809,6.645,0
6.81,5.73,0
6.811,8.11,0
6.812,8.843,0
6.813,9.392,0
6.814,7.561,0
6.815,11.406,0
6.816,12.688,0
6.817,13.969,0
6.818,9.392,0
6.819,6.279,0
6.82,5.73,0
6.821,2.434,0
6.822,3.716,0
6.823,4.814,0
6.824,2.251,0
6.825,3.349,0
6.826,3.166,0
6.827,2.434,0
6.828,3.166,0
6.829,2.983,0
6.83,-0.313,0
6.831,4.814,0
6.832,4.265,0
6.833,6.096,0
6.834,3.716,0
6.835,0.969,0
6.836,8.476,0
6.837,25.505,0
6.838,42.351,0
6.839,53.337,0
6.84,59.38,0
6.841,31.914,0
6.842,-19.356,0
6.843,-40.23,0
6.844,-46.455,0
6.845,-40.779,0
6.846,-45.906,0
6.847,-41.145,0
6.848,-28.328,0
6.849,-24.483,0
6.85,-13.863,0
6.851,-16.975,0
6.852,-14.046,0
6.853,-11.482,0
6.854,-4.341,0
6.855,2.251,0
6.856,4.265,0
6.857,2.434,0
6.858,0.786,0
6.859,5.18,0
6.86,6.462,0
6.861,9.941,0
6.862,11.04,0
6.863,11.955,0
6.864,5.547,0
6.865,7.927,0
6.866,8.659,0
6.867,9.209,0
6.868,6.096,0
6.869,4.448,0
6.87,4.082,0
6.871,6.279,0
6.872,2.434,0
6.873,3.716,0
6.874,4.082,0
6.875,4.448,0
6.876,3.349,0
6.877,2.983,0
6.878,3.716,0
6.879,5.547,0
6.88,3.716,0
6.881,5.913,0
6.882,6.645,0
6.883,9.026,0
6.884,4.448,0
6.885,4.448,0
6.886,3.899,0
6.887,10.857,0
6.888,24.773,0
6.889,54.985,0
6.89,59.197,0
6.891,23.674,0
6.892,-9.651,0
6.893,-31.258,0
6.894,-35.103,0
6.895,-31.624,0
6.896,-28.511,0
6.897,-25.581,0
6.898,-17.708,0
6.899,-15.327,0
6.9,-13.13,0
6.901,-15.144,0
6.902,-9.651,0
6.903,-1.411,0
6.904,-2.876,0
6.905,-1.594,0
6.906,-0.496,0
6.907,-3.792,0
6.908,5.364,0
6.909,1.885,0
6.91,5.18,0
6.911,2.251,0
6.912,3.166,0
6.913,3.899,0
6.914,6.096,0
6.915,10.674,0
6.916,4.997,0
6.917,2.8,0
6.918,3.349,0
6.919,3.899,0
6.92,3.349,0
6.921,4.631,0
6.922,3.349,0
6.923,3.716,0
6.924,5.547,0
6.925,4.448,0
6.926,-0.13,0
6.927,-1.961,0
6.928,-2.51,0
6.929,0.237,0
6.93,2.617,0
6.931,2.251,0
6.932,4.997,0
6.933,3.166,0
6.934,8.659,0
6.935,20.195,0
6.936,0.053,0
6.937,-8.186,0
6.938,-15.694,0
6.939,-8.919,0
6.94,9.575,0
6.941,33.745,0
6.942,36.858,0
6.943,51.689,0
6.944,27.519,0
6.945,-8.186,0
6.946,-31.99,0
6.947,-36.201,0
6.948,-40.047,0
6.949,-43.526,0
6.95,-40.413,0
6.951,-37.483,0
6.952,-29.61,0
6.953,-22.469,0
6.954,-15.877,0
6.955,-9.834,0
6.956,-8.003,0
6.957,-3.059,0
6.958,-1.594,0
6.959,-0.313,0
6.96,3.166,0
6.961,2.068,0
6.962,4.997,0
6.963,13.42,0
6.964,12.322,0
6.965,11.406,0
6.966,14.153,0
6.967,10.124,0
6.968,13.969,0
6.969,9.392,0
6.97,13.786,0
6.971,8.659,0
6.972,10.49,0
6.973,7.378,0
6.974,3.532,0
6.975,6.828,0
6.976,5.547,0
6.977,1.701,0
6.978,2.068,0
6.979,-0.13,0
6.98,2.617,0
6.981,1.518,0
6.982,6.279,0
6.983,6.828,0
6.984,5.18,0
6.985,5.547,0
6.986,2.434,0
6.987,5.18,0
6.988,6.279,0
6.989,11.955,0
6.99,24.406,0
6.991,44.548,0
6.992,57.915,0
6.993,31.181,0
6.994,6.279,0
6.995,-23.018,0
6.996,-34.737,0
6.997,-38.216,0
6.998,-35.103,0
6.999,-26.314,0
7,-23.75,0
7.001,-16.609,0
7.002,-14.412,0
7.003,-12.398,0
7.004,-6.905,0
7.005,-1.961,0
7.006,-3.426,0
7.007,-2.144,0
7.008,-3.242,0
7.009,-4.341,0
7.01,0.603,0
7.011,5.18,0
7.012,7.561,0
7.013,8.293,0
7.014,3.716,0
7.015,5.547,0
7.016,3.899,0
7.017,5.18,0
7.018,3.899,0
7.019,4.997,0
7.02,6.828,0
7.021,4.997,0
7.022,5.73,0
7.023,3.899,0
7.024,3.716,0
7.025,0.603,0
7.026,-0.496,0
7.027,-0.862,0
7.028,4.631,0
7.029,0.786,0
7.03,0.237,0
7.031,-0.313,0
7.032,0.237,0
7.033,-0.13,0
7.034,-3.242,0
7.035,0.603,0
7.036,1.885,0
7.037,0.603,0
7.038,0.053,0
7.039,-1.961,0
7.04,-3.059,0
7.041,2.434,0
7.042,13.969,0
7.043,38.872,0
7.044,28.252,0
7.045,-7.454,0
7.046,-21.736,0
7.047,-25.948,0
7.048,-29.793,0
7.049,-26.314,0
7.05,-29.427,0
7.051,-20.637,0
7.052,-23.201,0
7.053,-16.06,0
7.054,-13.863,0
7.055,-7.82,0
7.056,-5.989,0
7.057,-4.341,0
7.058,-5.806,0
7.059,-1.778,0
7.06,4.265,0
7.061,5.364,0
7.062,8.293,0
7.063,5.547,0
7.064,6.279,0
7.065,7.011,0
7.066,8.843,0
7.067,9.392,0
7.068,9.941,0
7.069,8.659,0
7.07,4.448,0
7.071,6.096,0
7.072,3.716,0
7.073,0.603,0
7.074,6.096,0
7.075,0.786,0
7.076,1.335,0
7.077,1.885,0
7.078,4.631,0
7.079,4.265,0
7.08,5.547,0
7.081,4.448,0
7.082,5.547,0
7.083,0.786,0
7.084,3.899,0
7.085,2.251,0
7.086,5.547,0
7.087,5.18,0
7.088,4.082,0
7.089,5.18,0
7.09,10.857,0
7.091,23.308,0
7.092,43.449,0
7.093,72.929,0
7.094,84.648,0
7.095,88.127,0
7.096,45.83,0
7.097,5.547,0
7.098,-10.017,0
7.099,-24.3,0
7.1,-28.511,0
7.101,-24.666,0
7.102,-28.145,0
7.103,-37.666,0
7.104,-52.498,0
7.105,-55.061,0
7.106,-57.442,0
7.107,-59.639,0
7.108,-53.596,0
7.109,-44.441,0
7.11,-32.906,0
7.111,-22.469,0
7.112,-37.483,0
7.113,-47.554,0
7.114,-60.371,0
7.115,-85.274,0
7.116,-110.18,0
7.117,-126.29,0
7.118,-129.22,0
7.119,-147.9,0
7.12,-159.98,0
7.121,-148.99,0
7.122,-134.9,0
7.123,-111.09,0
7.124,-88.57,0
7.125,-67.879,0
7.126,-27.595,0
7.127,35.942,0
7.128,112.3,0
7.129,163.57,0
7.13,172.91,0
7.131,164.48,0
7.132,141.41,0
7.133,148.37,0
7.134,142.14,0
7.135,136.47,0
7.136,141.59,0
7.137,146.35,0
7.138,167.96,0
7.139,179.68,0
7.14,192.68,0
7.141,189.2,0
7.142,198.72,0
7.143,178.03,0
7.144,175.47,0
7.145,173.09,0
7.146,139.95,0
7.147,68.352,0
7.148,17.082,0
7.149,-10.933,0
7.15,-36.201,0
7.151,-28.511,0
7.152,-35.469,0
7.153,-41.695,0
7.154,-47.371,0
7.155,-52.498,0
7.156,-57.259,0
7.157,-61.47,0
7.158,-57.625,0
7.159,-54.146,0
7.16,-63.667,0
7.161,-60.738,0
7.162,-63.301,0
7.163,-56.16,0
7.164,-58.357,0
7.165,-56.343,0
7.166,-61.836,0
7.167,-60.188,0
7.168,-58.723,0
7.169,-62.752,0
7.17,-61.653,0
7.171,-64.949,0
7.172,-67.879,0
7.173,-66.963,0
7.174,-61.287,0
7.175,-59.09,0
7.176,-52.864,0
7.177,-48.836,0
7.178,-44.99,0
7.179,-34.737,0
7.18,-12.215,0
7.181,-21.736,0
7.182,-30.525,0
7.183,-33.089,0
7.184,-35.469,0
7.185,-28.877,0
7.186,-22.835,0
7.187,-21.004,0
7.188,-16.06,0
7.189,-11.665,0
7.19,-7.637,0
7.191,-7.271,0
7.192,-6.172,0
7.193,4.082,0
7.194,19.096,0
7.195,41.252,0
7.196,50.041,0
7.197,57.915,0
7.198,65.056,0
7.199,31.914,0
7.2,-11.116,0
7.201,-28.328,0
7.202,-33.455,0
7.203,-38.216,0
7.204,-34.004,0
7.205,-30.159,0
7.206,-19.539,0
7.207,-22.652,0
7.208,-13.863,0
7.209,-5.989,0
7.21,-3.609,0
7.211,7.378,0
7.212,9.392,0
7.213,14.885,0
7.214,16.533,0
7.215,17.998,0
7.216,19.28,0
7.217,15.801,0
7.218,14.702,0
7.219,15.617,0
7.22,14.702,0
7.221,12.322,0
7.222,16.167,0
7.223,16.716,0
7.224,17.265,0
7.225,16.716,0
7.226,17.082,0
7.227,14.885,0
7.228,14.519,0
7.229,14.153,0
7.23,12.322,0
7.231,12.505,0
7.232,11.772,0
7.233,10.49,0
7.234,10.307,0
7.235,10.857,0
7.236,11.04,0
7.237,8.659,0
7.238,5.364,0
7.239,6.645,0
7.24,4.631,0
7.241,0.42,0
7.242,2.983,0
7.243,3.532,0
7.244,11.04,0
7.245,28.069,0
7.246,59.746,0
7.247,63.957,0
7.248,28.435,0
7.249,-14.595,0
7.25,-31.807,0
7.251,-26.68,0
7.252,-31.441,0
7.253,-27.229,0
7.254,-23.384,0
7.255,-19.905,0
7.256,-23.018,0
7.257,-20.088,0
7.258,-12.215,0
7.259,-9.834,0
7.26,-3.242,0
7.261,-1.228,0
7.262,-3.059,0
7.263,1.885,0
7.264,3.349,0
7.265,7.378,0
7.266,3.899,0
7.267,4.997,0
7.268,4.082,0
7.269,6.828,0
7.27,6.096,0
7.271,5.364,0
7.272,7.195,0
7.273,2.8,0
7.274,5.547,0
7.275,6.828,0
7.276,5.547,0
7.277,5.913,0
7.278,8.476,0
7.279,8.11,0
7.28,5.364,0
7.281,7.195,0
7.282,7.561,0
7.283,3.532,0
7.284,1.885,0
7.285,2.251,0
7.286,4.448,0
7.287,0.603,0
7.288,0.237,0
7.289,-1.961,0
7.29,0.053,0
7.291,-1.045,0
7.292,-2.144,0
7.293,0.786,0
7.294,0.969,0
7.295,5.18,0
7.296,14.702,0
7.297,35.21,0
7.298,67.802,0
7.299,54.985,0
7.3,11.589,0
7.301,-28.694,0
7.302,-33.821,0
7.303,-38.582,0
7.304,-42.793,0
7.305,-38.948,0
7.306,-28.328,0
7.307,-31.441,0
7.308,-22.652,0
7.309,-20.088,0
7.31,-12.947,0
7.311,-10.75,0
7.312,-4.707,0
7.313,0.786,0
7.314,5.73,0
7.315,4.265,0
7.316,2.983,0
7.317,6.462,0
7.318,5.364,0
7.319,6.279,0
7.32,7.195,0
7.321,6.462,0
7.322,7.195,0
7.323,2.617,0
7.324,2.068,0
7.325,2.617,0
7.326,5.913,0
7.327,9.026,0
7.328,4.448,0
7.329,3.899,0
7.33,3.349,0
7.331,4.631,0
7.332,8.843,0
7.333,1.518,0
7.334,2.434,0
7.335,3.349,0
7.336,-0.679,0
7.337,-1.411,0
7.338,0.42,0
7.339,0.969,0
7.34,3.716,0
7.341,-1.778,0
7.342,-1.045,0
7.343,-0.496,0
7.344,2.983,0
7.345,2.434,0
7.346,10.857,0
7.347,29.35,0
7.348,64.323,0
7.349,59.563,0
7.35,11.955,0
7.351,-19.722,0
7.352,-25.398,0
7.353,-30.525,0
7.354,-25.764,0
7.355,-29.976,0
7.356,-26.131,0
7.357,-22.652,0
7.358,-19.539,0
7.359,-10.75,0
7.36,-8.186,0
7.361,-10.567,0
7.362,-8.369,0
7.363,-2.327,0
7.364,-0.496,0
7.365,4.448,0
7.366,0.053,0
7.367,1.335,0
7.368,2.434,0
7.369,8.11,0
7.37,3.166,0
7.371,5.913,0
7.372,6.645,0
7.373,4.448,0
7.374,4.997,0
7.375,6.828,0
7.376,5.18,0
7.377,9.758,0
7.378,9.209,0
7.379,10.857,0
7.38,8.476,0
7.381,10.674,0
7.382,10.307,0
7.383,4.631,0
7.384,0.603,0
7.385,-3.242,0
7.386,4.265,0
7.387,7.195,0
7.388,4.448,0
7.389,0.42,0
7.39,2.617,0
7.391,3.166,0
7.392,2.617,0
7.393,3.166,0
7.394,1.885,0
7.395,3.716,0
7.396,4.082,0
7.397,10.307,0
7.398,24.223,0
7.399,42.351,0
7.4,39.97,0
7.401,37.773,0
7.402,35.759,0
7.403,33.928,0
7.404,35.576,0
7.405,13.054,0
7.406,-29.243,0
7.407,-46.455,0
7.408,-62.019,0
7.409,-57.259,0
7.41,-53.047,0
7.411,-41.328,0
7.412,-30.708,0
7.413,-27.595,0
7.414,-18.806,0
7.415,-16.243,0
7.416,-13.863,0
7.417,-7.271,0
7.418,-5.257,0
7.419,0.237,0
7.42,5.18,0
7.421,6.645,0
7.422,7.927,0
7.423,9.026,0
7.424,23.857,0
7.425,41.985,0
7.426,44.365,0
7.427,20.012,0
7.428,10.49,0
7.429,7.561,0
7.43,4.997,0
7.431,2.617,0
7.432,4.814,0
7.433,2.8,0
7.434,0.969,0
7.435,2.617,0
7.436,4.082,0
7.437,5.364,0
7.438,4.265,0
7.439,5.364,0
7.44,2.434,0
7.441,1.518,0
7.442,0.786,0
7.443,2.983,0
7.444,9.209,0
7.445,5.18,0
7.446,8.11,0
7.447,10.307,0
7.448,20.561,0
7.449,34.111,0
7.45,46.928,0
7.451,51.872,0
7.452,62.309,0
7.453,41.802,0
7.454,-2.693,0
7.455,-34.37,0
7.456,-40.047,0
7.457,-45.174,0
7.458,-49.934,0
7.459,-37.117,0
7.46,-33.272,0
7.461,-29.793,0
7.462,-20.271,0
7.463,-17.342,0
7.464,-14.778,0
7.465,-7.637,0
7.466,-5.44,0
7.467,0.603,0
7.468,2.434,0
7.469,0.786,0
7.47,5.18,0
7.471,6.462,0
7.472,7.561,0
7.473,1.885,0
7.474,6.828,0
7.475,7.744,0
7.476,10.124,0
7.477,13.969,0
7.478,10.674,0
7.479,12.505,0
7.48,8.659,0
7.481,14.153,0
7.482,7.195,0
7.483,4.448,0
7.484,6.828,0
7.485,4.631,0
7.486,2.8,0
7.487,0.969,0
7.488,2.617,0
7.489,0.237,0
7.49,0.603,0
7.491,2.617,0
7.492,3.716,0
7.493,4.082,0
7.494,6.828,0
7.495,2.617,0
7.496,0.969,0
7.497,4.448,0
7.498,4.082,0
7.499,11.04,0
7.5,26.238,0
7.501,41.618,0
7.502,63.774,0
7.503,48.943,0
7.504,8.659,0
7.505,-31.624,0
7.506,-36.751,0
7.507,-41.511,0
7.508,-37.3,0
7.509,-33.455,0
7.51,-29.976,0
7.511,-20.454,0
7.512,-17.525,0
7.513,-14.961,0
7.514,-12.581,0
7.515,-5.989,0
7.516,-8.003,0
7.517,-2.51,0
7.518,-0.862,0
7.519,0.603,0
7.52,4.631,0
7.521,5.73,0
7.522,4.631,0
7.523,5.547,0
7.524,4.631,0
7.525,7.011,0
7.526,6.279,0
7.527,8.11,0
7.528,6.279,0
7.529,10.124,0
7.53,11.406,0
7.531,9.209,0
7.532,6.462,0
7.533,7.561,0
7.534,7.927,0
7.535,7.195,0
7.536,4.631,0
7.537,2.068,0
7.538,0.603,0
7.539,1.335,0
7.54,-0.496,0
7.541,2.068,0
7.542,3.166,0
7.543,2.434,0
7.544,1.701,0
7.545,1.518,0
7.546,0.969,0
7.547,1.518,0
7.548,0.053,0
7.549,-0.862,0
7.55,1.885,0
7.551,7.561,0
7.552,20.012,0
7.553,47.478,0
7.554,43.633,0
7.555,33.012,0
7.556,29.9,0
7.557,15.068,0
7.558,22.942,0
7.559,25.322,0
7.56,-3.426,0
7.561,-46.822,0
7.562,-64.033,0
7.563,-58.906,0
7.564,-63.667,0
7.565,-50.85,0
7.566,-47.005,0
7.567,-43.526,0
7.568,-34.004,0
7.569,-25.215,0
7.57,-17.342,0
7.571,-10.2,0
7.572,-3.609,0
7.573,-1.594,0
7.574,3.899,0
7.575,5.547,0
7.576,7.011,0
7.577,13.786,0
7.578,14.885,0
7.579,20.561,0
7.58,19.646,0
7.581,20.561,0
7.582,14.885,0
7.583,14.153,0
7.584,13.603,0
7.585,13.054,0
7.586,13.603,0
7.587,13.237,0
7.588,9.026,0
7.589,9.575,0
7.59,9.941,0
7.591,7.744,0
7.592,9.758,0
7.593,10.124,0
7.594,11.223,0
7.595,9.758,0
7.596,6.645,0
7.597,7.744,0
7.598,8.11,0
7.599,4.448,0
7.6,1.885,0
7.601,6.462,0
7.602,16.716,0
7.603,39.238,0
7.604,55.351,0
7.605,64.14,0
7.606,23.857,0
7.607,-16.426,0
7.608,-31.99,0
7.609,-46.272,0
7.61,-42.061,0
7.611,-38.216,0
7.612,-34.737,0
7.613,-31.624,0
7.614,-22.835,0
7.615,-20.271,0
7.616,-13.13,0
7.617,-10.933,0
7.618,-8.919,0
7.619,-3.426,0
7.62,-5.073,0
7.621,-0.679,0
7.622,0.603,0
7.623,-0.496,0
7.624,2.8,0
7.625,3.716,0
7.626,4.631,0
7.627,7.011,0
7.628,9.209,0
7.629,8.659,0
7.63,9.209,0
7.631,10.857,0
7.632,8.476,0
7.633,7.195,0
7.634,6.828,0
7.635,9.392,0
7.636,6.096,0
7.637,5.73,0
7.638,2.251,0
7.639,2.617,0
7.64,2.251,0
7.641,4.082,0
7.642,3.716,0
7.643,2.983,0
7.644,6.096,0
7.645,5.73,0
7.646,8.293,0
7.647,5.73,0
7.648,2.983,0
7.649,4.082,0
7.65,2.251,0
7.651,-2.51,0
7.652,7.011,0
7.653,27.519,0
7.654,30.449,0
7.655,54.619,0
7.656,57.732,0
7.657,25.139,0
7.658,-22.469,0
7.659,-41.328,0
7.66,-47.005,0
7.661,-41.878,0
7.662,-37.117,0
7.663,-32.906,0
7.664,-29.06,0
7.665,-25.581,0
7.666,-16.06,0
7.667,-13.13,0
7.668,-15.694,0
7.669,-8.552,0
7.67,2.434,0
7.671,32.646,0
7.672,28.435,0
7.673,8.843,0
7.674,-8.919,0
7.675,-12.031,0
7.676,-3.242,0
7.677,-5.806,0
7.678,1.335,0
7.679,3.532,0
7.68,1.518,0
7.681,3.349,0
7.682,1.701,0
7.683,6.096,0
7.684,4.814,0
7.685,5.913,0
7.686,2.617,0
7.687,3.532,0
7.688,4.448,0
7.689,6.828,0
7.69,4.631,0
7.691,4.082,0
7.692,4.631,0
7.693,4.082,0
7.694,5.364,0
7.695,4.997,0
7.696,2.251,0
7.697,3.349,0
7.698,7.378,0
7.699,4.997,0
7.7,6.279,0
7.701,5.913,0
7.702,7.011,0
7.703,8.843,0
7.704,14.336,0
7.705,25.871,0
7.706,50.774,0
7.707,33.012,0
7.708,-9.285,0
7.709,-38.032,0
7.71,-32.906,0
7.711,-37.666,0
7.712,-33.455,0
7.713,-29.61,0
7.714,-26.131,0
7.715,-23.018,0
7.716,-20.088,0
7.717,-12.215,0
7.718,-9.834,0
7.719,-7.637,0
7.72,-1.594,0
7.721,0.237,0
7.722,-1.411,0
7.723,0.053,0
7.724,1.335,0
7.725,4.814,0
7.726,8.11,0
7.727,9.026,0
7.728,6.279,0
7.729,10.307,0
7.73,12.505,0
7.731,7.927,0
7.732,11.04,0
7.733,4.814,0
7.734,7.195,0
7.735,7.927,0
7.736,4.631,0
7.737,2.8,0
7.738,1.152,0
7.739,1.518,0
7.74,0.237,0
7.741,2.251,0
7.742,0.42,0
7.743,2.983,0
7.744,4.448,0
7.745,5.73,0
7.746,2.8,0
7.747,6.279,0
7.748,1.152,0
7.749,0.603,0
7.75,2.434,0
7.751,5.18,0
7.752,1.518,0
7.753,0.237,0
7.754,7.195,0
7.755,22.392,0
7.756,46.745,0
7.757,62.859,0
7.758,36.125,0
7.759,-3.242,0
7.76,-29.427,0
7.761,-34.187,0
7.762,-38.399,0
7.763,-34.553,0
7.764,-31.074,0
7.765,-27.962,0
7.766,-25.032,0
7.767,-17.158,0
7.768,-14.778,0
7.769,-12.581,0
7.77,-2.51,0
7.771,-0.679,0
7.772,0.969,0
7.773,-3.426,0
7.774,-2.144,0
7.775,3.899,0
7.776,4.997,0
7.777,4.082,0
7.778,6.828,0
7.779,9.209,0
7.78,7.011,0
7.781,6.462,0
7.782,4.631,0
7.783,4.082,0
7.784,5.364,0
7.785,4.082,0
7.786,4.448,0
7.787,4.814,0
7.788,4.448,0
7.789,6.462,0
7.79,5.18,0
7.791,7.561,0
7.792,4.265,0
7.793,7.378,0
7.794,7.744,0
7.795,11.223,0
7.796,6.096,0
7.797,9.392,0
7.798,4.997,0
7.799,-0.13,0
7.8,1.701,0
7.801,1.152,0
7.802,-1.594,0
7.803,-0.679,0
7.804,-6.172,0
7.805,5.364,0
7.806,23.674,0
7.807,50.407,0
7.808,61.028,0
7.809,51.506,0
7.81,12.871,0
7.811,-23.75,0
7.812,-28.511,0
7.813,-32.722,0
7.814,-36.568,0
7.815,-33.089,0
7.816,-29.976,0
7.817,-27.046,0
7.818,-29.61,0
7.819,-17.525,0
7.82,-10.933,0
7.821,-8.919,0
7.822,-7.088,0
7.823,-5.44,0
7.824,-1.045,0
7.825,2.983,0
7.826,4.082,0
7.827,7.378,0
7.828,8.293,0
7.829,11.04,0
7.83,11.772,0
7.831,9.575,0
7.832,6.279,0
7.833,8.11,0
7.834,11.955,0
7.835,13.237,0
7.836,11.04,0
7.837,13.054,0
7.838,10.49,0
7.839,7.195,0
7.84,5.18,0
7.841,5.547,0
7.842,2.983,0
7.843,4.997,0
7.844,3.166,0
7.845,2.434,0
7.846,2.983,0
7.847,2.434,0
7.848,2.251,0
7.849,0.603,0
7.85,3.899,0
7.851,2.617,0
7.852,4.631,0
7.853,0.42,0
7.854,0.786,0
7.855,-0.862,0
7.856,6.645,0
7.857,23.674,0
7.858,40.52,0
7.859,60.478,0
7.86,52.605,0
7.861,16.167,0
7.862,-20.454,0
7.863,-34.737,0
7.864,-47.554,0
7.865,-43.709,0
7.866,-33.089,0
7.867,-29.976,0
7.868,-27.046,0
7.869,-24.483,0
7.87,-17.342,0
7.871,-15.144,0
7.872,-9.102,0
7.873,-10.933,0
7.874,-9.285,0
7.875,-1.778,0
7.876,4.997,0
7.877,1.518,0
7.878,9.392,0
7.879,10.307,0
7.88,7.561,0
7.881,11.589,0
7.882,6.279,0
7.883,5.73,0
7.884,7.561,0
7.885,7.011,0
7.886,5.73,0
7.887,5.364,0
7.888,7.378,0
7.889,4.814,0
7.89,6.645,0
7.891,2.068,0
7.892,-1.228,0
7.893,0.603,0
7.894,2.251,0
7.895,0.969,0
7.896,3.166,0
7.897,4.265,0
7.898,5.364,0
7.899,10.857,0
7.9,13.054,0
7.901,13.603,0
7.902,13.054,0
7.903,13.603,0
7.904,6.096,0
7.905,8.11,0
7.906,4.814,0
7.907,11.772,0
7.908,7.195,0
7.909,1.518,0
7.91,-0.679,0
7.911,-0.13,0
7.912,0.42,0
7.913,-0.13,0
7.914,-1.411,0
7.915,-1.045,0
7.916,5.18,0
7.917,19.096,0
7.918,13.054,0
7.919,-7.088,0
7.92,6.279,0
7.921,28.252,0
7.922,54.985,0
7.923,44.365,0
7.924,2.068,0
7.925,-26.68,0
7.926,-42.244,0
7.927,-47.005,0
7.928,-42.793,0
7.929,-38.948,0
7.93,-28.328,0
7.931,-25.215,0
7.932,-22.285,0
7.933,-19.722,0
7.934,-12.581,0
7.935,-5.989,0
7.936,-3.975,0
7.937,-5.806,0
7.938,-0.862,0
7.939,0.603,0
7.94,1.885,0
7.941,5.364,0
7.942,6.462,0
7.943,3.532,0
7.944,4.448,0
7.945,3.716,0
7.946,4.448,0
7.947,7.744,0
7.948,9.575,0
7.949,6.828,0
7.95,8.11,0
7.951,11.223,0
7.952,7.378,0
7.953,10.674,0
7.954,8.476,0
7.955,2.983,0
7.956,2.983,0
7.957,9.941,0
7.958,9.026,0
7.959,21.477,0
7.96,45.281,0
7.961,54.802,0
7.962,46.013,0
7.963,53.886,0
7.964,41.802,0
7.965,39.604,0
7.966,9.392,0
7.967,-38.216,0
7.968,-57.075,0
7.969,-62.752,0
7.97,-57.625,0
7.971,-43.343,0
7.972,-39.131,0
7.973,-35.286,0
7.974,-31.807,0
7.975,-22.285,0
7.976,-13.496,0
7.977,-10.933,0
7.978,1.152,0
7.979,7.744,0
7.98,5.73,0
7.981,7.561,0
7.982,5.913,0
7.983,7.378,0
7.984,11.406,0
7.985,12.505,0
7.986,6.828,0
7.987,7.744,0
7.988,8.659,0
7.989,7.927,0
7.99,8.659,0
7.991,10.49,0
7.992,12.322,0
7.993,11.772,0
7.994,15.068,0
7.995,9.941,0
7.996,10.49,0
7.997,9.941,0
7.998,6.096,0
7.999,7.378,0
8,5.18,0
8.001,6.279,0
8.002,5.913,0
8.003,4.082,0
8.004,8.659,0
8.005,10.49,0
8.006,12.322,0
8.007,19.829,0
8.008,23.674,0
8.009,31.181,0
8.01,48.21,0
8.011,84.648,0
8.012,79.521,0
8.013,36.491,0
8.014,7.744,0
8.015,-18.44,0
8.016,-23.201,0
8.017,-27.412,0
8.018,-47.005,0
8.019,-50.484,0
8.02,-60.005,0
8.021,-57.075,0
8.022,-64.949,0
8.023,-67.329,0
8.024,-56.343,0
8.025,-42.244,0
8.026,-29.427,0
8.027,-27.779,0
8.028,-41.328,0
8.029,-46.822,0
8.03,-65.132,0
8.031,-91.865,0
8.032,-102.49,0
8.033,-118.6,0
8.034,-127.39,0
8.035,-129.95,0
8.036,-137.09,0
8.037,-121.71,0
8.038,-103.58,0
8.039,-96.443,0
8.04,-85.457,0
8.041,-55.244,0
8.042,1.152,0
8.043,101.31,0
8.044,142.14,0
8.045,179.5,0
8.046,168.33,0
8.047,158.07,0
8.048,130.06,0
8.049,121.64,0
8.05,113.94,0
8.051,106.99,0
8.052,100.76,0
8.053,106.44,0
8.054,132.62,0
8.055,156.43,0
8.056,160.64,0
8.057,156.79,0
8.058,143.61,0
8.059,125.85,0
8.06,128.96,0
8.061,131.89,0
8.062,129.33,0
8.063,126.95,0
8.064,93.803,0
8.065,31.731,0
8.066,-10.567,0
8.067,-18.257,0
8.068,-25.215,0
8.069,-31.441,0
8.07,-48.653,0
8.071,-53.78,0
8.072,-58.54,0
8.073,-62.752,0
8.074,-66.597,0
8.075,-48.836,0
8.076,-58.357,0
8.077,-61.287,0
8.078,-58.723,0
8.079,-56.343,0
8.08,-49.751,0
8.081,-55.794,0
8.082,-57.625,0
8.083,-55.977,0
8.084,-57.442,0
8.085,-58.723,0
8.086,-57.625,0
8.087,-63.301,0
8.088,-60.371,0
8.089,-61.287,0
8.09,-62.019,0
8.091,-51.948,0
8.092,-47.92,0
8.093,-41.878,0
8.094,-36.201,0
8.095,-37.117,0
8.096,-30.708,0
8.097,-26.68,0
8.098,-24.483,0
8.099,-16.975,0
8.1,-16.06,0
8.101,-16.975,0
8.102,-17.708,0
8.103,-18.44,0
8.104,-16.609,0
8.105,-9.651,0
8.106,-12.398,0
8.107,-8.369,0
8.108,-7.637,0
8.109,1.518,0
8.11,6.096,0
8.111,15.617,0
8.112,36.125,0
8.113,56.816,0
8.114,70.183,0
8.115,63.042,0
8.116,29.9,0
8.117,-13.13,0
8.118,-30.342,0
8.119,-25.215,0
8.12,-20.454,0
8.121,-24.666,0
8.122,-20.821,0
8.123,-17.342,0
8.124,-14.229,0
8.125,-11.299,0
8.126,-3.426,0
8.127,-1.045,0
8.128,5.547,0
8.129,11.589,0
8.13,9.758,0
8.131,8.11,0
8.132,9.575,0
8.133,13.603,0
8.134,12.505,0
8.135,13.603,0
8.136,10.674,0
8.137,11.589,0
8.138,12.322,0
8.139,8.476,0
8.14,9.026,0
8.141,12.138,0
8.142,10.49,0
8.143,10.857,0
8.144,15.068,0
8.145,18.913,0
8.146,15.617,0
8.147,11.406,0
8.148,7.561,0
8.149,6.279,0
8.15,8.476,0
8.151,5.73,0
8.152,6.096,0
8.153,7.195,0
8.154,7.378,0
8.155,6.645,0
8.156,3.716,0
8.157,0.237,0
8.158,2.434,0
8.159,6.279,0
8.16,7.378,0
8.161,7.744,0
8.162,14.702,0
8.163,29.9,0
8.164,14.519,0
8.165,12.505,0
8.166,36.308,0
8.167,52.422,0
8.168,37.59,0
8.169,-2.693,0
8.17,-31.441,0
8.171,-36.568,0
8.172,-41.328,0
8.173,-37.117,0
8.174,-33.272,0
8.175,-29.793,0
8.176,-20.271,0
8.177,-17.342,0
8.178,-14.778,0
8.179,-7.637,0
8.18,-5.44,0
8.181,-3.426,0
8.182,-1.594,0
8.183,0.053,0
8.184,1.518,0
8.185,5.547,0
8.186,6.645,0
8.187,7.744,0
8.188,6.828,0
8.189,5.913,0
8.19,6.645,0
8.191,8.843,0
8.192,9.392,0
8.193,11.223,0
8.194,10.674,0
8.195,11.955,0
8.196,10.674,0
8.197,11.772,0
8.198,7.561,0
8.199,9.209,0
8.2,6.828,0
8.201,5.547,0
8.202,1.701,0
8.203,2.983,0
8.204,3.349,0
8.205,0.603,0
8.206,-1.228,0
8.207,-2.327,0
8.208,-0.862,0
8.209,0.969,0
8.21,2.251,0
8.211,5.913,0
8.212,2.8,0
8.213,9.026,0
8.214,22.942,0
8.215,41.069,0
8.216,43.449,0
8.217,50.041,0
8.218,19.829,0
8.219,-1.778,0
8.22,-37.3,0
8.221,-42.061,0
8.222,-46.272,0
8.223,-42.427,0
8.224,-31.807,0
8.225,-28.694,0
8.226,-19.905,0
8.227,-17.342,0
