0,3.877,0
0.001,2.778,0
0.002,8.454,0
0.003,20.906,0
0.004,37.385,0
0.005,43.977,0
0.006,33.906,0
0.007,43.061,0
0.008,38.117,0
0.009,15.595,0
0.01,-33.111,0
0.011,-40.069,0
0.012,-46.294,0
0.013,-51.97,0
0.014,-46.844,0
0.015,-42.083,0
0.016,-29.265,0
0.017,-25.42,0
0.018,-21.941,0
0.019,-18.828,0
0.02,-15.899,0
0.021,-8.025,0
0.022,-0.884,0
0.023,1.313,0
0.024,7.356,0
0.025,9.187,0
0.026,10.835,0
0.027,6.44,0
0.028,10.469,0
0.029,9.37,0
0.03,8.271,0
0.031,7.356,0
0.032,11.933,0
0.033,7.905,0
0.034,8.637,0
0.035,4.06,0
0.036,5.891,0
0.037,7.539,0
0.038,7.905,0
0.039,9.187,0
0.04,3.694,0
0.041,7.539,0
0.042,4.243,0
0.043,3.694,0
0.044,2.046,0
0.045,3.327,0
0.046,4.609,0
0.047,6.623,0
0.048,3.144,0
0.049,4.426,0
0.05,4.06,0
0.051,2.412,0
0.052,-1.8,0
0.053,6.623,0
0.054,25.117,0
0.055,54.597,0
0.056,50.752,0
0.057,25.849,0
0.058,-9.856,0
0.059,-24.138,0
0.06,-28.35,0
0.061,-32.195,0
0.062,-28.716,0
0.063,-25.603,0
0.064,-22.674,0
0.065,-20.11,0
0.066,-17.73,0
0.067,-15.532,0
0.068,-13.518,0
0.069,-11.687,0
0.07,-6.743,0
0.071,-5.279,0
0.072,-1.25,0
0.073,2.229,0
0.074,3.327,0
0.075,4.243,0
0.076,3.327,0
0.077,0.947,0
0.078,3.144,0
0.079,4.975,0
0.08,4.426,0
0.081,7.173,0
0.082,7.539,0
0.083,4.426,0
0.084,4.792,0
0.085,2.961,0
0.086,3.327,0
0.087,-0.701,0
0.088,0.947,0
0.089,-0.335,0
0.09,1.863,0
0.091,7.356,0
0.092,6.623,0
0.093,8.454,0
0.094,6.623,0
0.095,2.778,0
0.096,1.496,0
0.097,1.13,0
0.098,0.031,0
0.099,-0.335,0
0.1,0.031,0
0.101,-1.433,0
0.102,-3.448,0
0.103,-4.18,0
0.104,-0.152,0
0.105,8.271,0
0.106,26.765,0
0.107,50.935,0
0.108,15.229,0
0.109,-8.574,0
0.11,-21.392,0
0.111,-25.237,0
0.112,-28.716,0
0.113,-25.603,0
0.114,-22.674,0
0.115,-20.11,0
0.116,-17.73,0
0.117,-15.532,0
0.118,-13.518,0
0.119,-11.687,0
0.12,-10.039,0
0.121,-8.574,0
0.122,9.187,0
0.123,26.032,0
0.124,28.23,0
0.125,10.102,0
0.126,-1.983,0
0.127,-8.574,0
0.128,-6.56,0
0.129,-8.391,0
0.13,-6.743,0
0.131,-5.279,0
0.132,-6.56,0
0.133,-3.081,0
0.134,0.215,0
0.135,-2.715,0
0.136,1.863,0
0.137,5.891,0
0.138,3.694,0
0.139,5.525,0
0.14,3.694,0
0.141,6.44,0
0.142,6.806,0
0.143,5.525,0
0.144,5.158,0
0.145,4.06,0
0.146,1.496,0
0.147,2.229,0
0.148,0.398,0
0.149,0.215,0
0.15,-0.335,0
0.151,-0.518,0
0.152,-3.448,0
0.153,-1.25,0
0.154,0.764,0
0.155,1.863,0
0.156,7.356,0
0.157,18.891,0
0.158,43.794,0
0.159,47.273,0
0.16,31.159,0
0.161,-1.433,0
0.162,-23.04,0
0.163,-34.759,0
0.164,-38.238,0
0.165,-35.125,0
0.166,-32.195,0
0.167,-29.632,0
0.168,-27.251,0
0.169,-25.054,0
0.17,-19.011,0
0.171,-9.856,0
0.172,-11.504,0
0.173,-3.997,0
0.174,-2.715,0
0.175,3.327,0
0.176,0.031,0
0.177,-2.898,0
0.178,1.679,0
0.179,0.947,0
0.18,3.144,0
0.181,3.694,0
0.182,8.088,0
0.183,7.539,0
0.184,7.173,0
0.185,4.975,0
0.186,6.99,0
0.187,5.891,0
0.188,9.187,0
0.189,6.44,0
0.19,4.609,0
0.191,7.173,0
0.192,7.356,0
0.193,9.187,0
0.194,6.257,0
0.195,5.891,0
0.196,6.99,0
0.197,4.975,0
0.198,1.863,0
0.199,2.961,0
0.2,0.398,0
0.201,0.031,0
0.202,-1.433,0
0.203,-1.25,0
0.204,-0.518,0
0.205,-2.898,0
0.206,1.679,0
0.207,11.933,0
0.208,34.455,0
0.209,56.977,0
0.21,30.244,0
0.211,-1.983,0
0.212,-23.589,0
0.213,-27.434,0
0.214,-30.913,0
0.215,-27.801,0
0.216,-30.73,0
0.217,-22.857,0
0.218,-25.237,0
0.219,-18.645,0
0.22,-16.631,0
0.221,-11.138,0
0.222,-9.49,0
0.223,-5.095,0
0.224,-1.067,0
0.225,4.975,0
0.226,6.074,0
0.227,1.13,0
0.228,2.046,0
0.229,4.426,0
0.23,2.229,0
0.231,2.778,0
0.232,5.891,0
0.233,5.342,0
0.234,5.708,0
0.235,2.595,0
0.236,2.229,0
0.237,4.792,0
0.238,5.891,0
0.239,6.074,0
0.24,5.342,0
0.241,4.06,0
0.242,6.623,0
0.243,5.525,0
0.244,0.947,0
0.245,1.496,0
0.246,0.947,0
0.247,1.496,0
0.248,1.863,0
0.249,3.144,0
0.25,2.046,0
0.251,1.679,0
0.252,-0.152,0
0.253,-0.884,0
0.254,-2.166,0
0.255,-1.25,0
0.256,-1.067,0
0.257,2.412,0
0.258,9.919,0
0.259,26.948,0
0.26,43.794,0
0.261,50.385,0
0.262,20.173,0
0.263,-1.433,0
0.264,-28.899,0
0.265,-39.519,0
0.266,-36.406,0
0.267,-33.477,0
0.268,-36.04,0
0.269,-38.421,0
0.27,-27.434,0
0.271,-21.392,0
0.272,-15.899,0
0.273,-7.659,0
0.274,-12.053,0
0.275,-5.279,0
0.276,-1.8,0
0.277,-2.898,0
0.278,-1.983,0
0.279,2.595,0
0.28,3.327,0
0.281,1.13,0
0.282,5.708,0
0.283,7.539,0
0.284,9.187,0
0.285,5.891,0
0.286,3.694,0
0.287,6.44,0
0.288,12.116,0
0.289,9.736,0
0.29,7.539,0
0.291,9.37,0
0.292,3.694,0
0.293,5.891,0
0.294,2.595,0
0.295,2.046,0
0.296,0.398,0
0.297,3.694,0
0.298,3.327,0
0.299,2.229,0
0.3,6.44,0
0.301,1.313,0
0.302,-3.264,0
0.303,-1.433,0
0.304,4.792,0
0.305,4.06,0
0.306,3.144,0
0.307,2.412,0
0.308,12.666,0
0.309,29.145,0
0.31,53.498,0
0.311,50.385,0
0.312,17.793,0
0.313,-12.42,0
0.314,-24.138,0
0.315,-27.617,0
0.316,-30.73,0
0.317,-27.801,0
0.318,-25.237,0
0.319,-22.857,0
0.32,-20.659,0
0.321,-14.617,0
0.322,-12.786,0
0.323,-11.138,0
0.324,-6.743,0
0.325,0.031,0
0.326,-3.448,0
0.327,-0.152,0
0.328,0.764,0
0.329,3.51,0
0.33,2.778,0
0.331,3.51,0
0.332,5.342,0
0.333,5.891,0
0.334,6.44,0
0.335,3.144,0
0.336,0.031,0
0.337,2.046,0
0.338,0.947,0
0.339,2.046,0
0.34,2.778,0
0.341,2.595,0
0.342,3.877,0
0.343,4.426,0
0.344,1.13,0
0.345,2.412,0
0.346,3.51,0
0.347,6.074,0
0.348,4.243,0
0.349,3.51,0
0.35,2.229,0
0.351,1.496,0
0.352,2.961,0
0.353,1.496,0
0.354,-1.433,0
0.355,-0.335,0
0.356,5.342,0
0.357,1.679,0
0.358,2.412,0
0.359,13.948,0
0.36,28.962,0
0.361,55.146,0
0.362,51.667,0
0.363,54.78,0
0.364,22.187,0
0.365,-16.814,0
0.366,-21.941,0
0.367,-26.702,0
0.368,-30.913,0
0.369,-11.321,0
0.37,-7.842,0
0.371,-23.955,0
0.372,-26.885,0
0.373,-24.322,0
0.374,-17.18,0
0.375,-14.983,0
0.376,-12.969,0
0.377,-18.462,0
0.378,-13.518,0
0.379,-9.124,0
0.38,-13.152,0
0.381,-1.983,0
0.382,2.412,0
0.383,1.13,0
0.384,2.229,0
0.385,1.13,0
0.386,6.074,0
0.387,3.327,0
0.388,2.595,0
0.389,6.44,0
0.39,1.863,0
0.391,4.975,0
0.392,7.722,0
0.393,5.342,0
0.394,6.623,0
0.395,6.99,0
0.396,5.158,0
0.397,1.13,0
0.398,5.708,0
0.399,1.313,0
0.4,5.158,0
0.401,2.778,0
0.402,1.496,0
0.403,1.863,0
0.404,1.496,0
0.405,0.398,0
0.406,2.412,0
0.407,3.144,0
0.408,4.609,0
0.409,5.891,0
0.41,9.37,0
0.411,16.877,0
0.412,33.906,0
0.413,55.879,0
0.414,47.09,0
0.415,17.61,0
0.416,-9.856,0
0.417,-27.617,0
0.418,-37.139,0
0.419,-34.209,0
0.42,-31.646,0
0.421,-29.265,0
0.422,-27.068,0
0.423,-21.026,0
0.424,-15.532,0
0.425,-10.589,0
0.426,-9.124,0
0.427,-7.842,0
0.428,-6.743,0
0.429,-3.448,0
0.43,-2.532,0
0.431,2.046,0
0.432,1.313,0
0.433,3.51,0
0.434,4.06,0
0.435,2.229,0
0.436,2.778,0
0.437,5.158,0
0.438,6.44,0
0.439,5.342,0
0.44,6.44,0
0.441,4.609,0
0.442,4.792,0
0.443,6.074,0
0.444,6.257,0
0.445,2.778,0
0.446,1.496,0
0.447,1.863,0
0.448,3.877,0
0.449,6.44,0
0.45,5.342,0
0.451,3.877,0
0.452,4.06,0
0.453,2.229,0
0.454,5.342,0
0.455,4.243,0
0.456,4.609,0
0.457,7.905,0
0.458,10.652,0
0.459,11.933,0
0.46,13.032,0
0.461,18.525,0
0.462,30.061,0
0.463,54.963,0
0.464,79.865,0
0.465,44.16,0
0.466,10.835,0
0.467,-1.983,0
0.468,-13.701,0
0.469,-17.18,0
0.47,-20.293,0
0.471,-23.223,0
0.472,-36.59,0
0.473,-43.731,0
0.474,-45.928,0
0.475,-43.914,0
0.476,-45.745,0
0.477,-47.393,0
0.478,-39.885,0
0.479,-24.871,0
0.48,-26.885,0
0.481,-25.054,0
0.482,-29.998,0
0.483,-46.477,0
0.484,-61.858,0
0.485,-71.929,0
0.486,-88.408,0
0.487,-103.79,0
0.488,-113.86,0
0.489,-115.69,0
0.49,-127.23,0
0.491,-122.83,0
0.492,-118.8,0
0.493,-110.38,0
0.494,-93.352,0
0.495,-56.914,0
0.496,21.821,0
0.497,123.44,0
0.498,136.99,0
0.499,149.45,0
0.5,138.28,0
0.501,128.02,0
0.502,100.01,0
0.503,91.584,0
0.504,83.894,0
0.505,76.936,0
0.506,83.161,0
0.507,111.91,0
0.508,127.47,0
0.509,132.23,0
0.51,122.53,0
0.511,118.32,0
0.512,122.16,0
0.513,125.64,0
0.514,141.75,0
0.515,132.97,0
0.516,103.49,0
0.517,76.02,0
0.518,51.118,0
0.519,48.005,0
0.52,39.216,0
0.521,31.343,0
0.522,28.962,0
0.523,9.004,0
0.524,-31.28,0
0.525,-71.563,0
0.526,-87.127,0
0.527,-91.887,0
0.528,-87.676,0
0.529,-83.831,0
0.53,-87.31,0
0.531,-90.423,0
0.532,-75.591,0
0.533,-67.718,0
0.534,-65.337,0
0.535,-58.745,0
0.536,-56.731,0
0.537,-51.238,0
0.538,-49.59,0
0.539,-45.196,0
0.54,-43.914,0
0.541,-45.012,0
0.542,-43.914,0
0.543,-38.97,0
0.544,-41.717,0
0.545,-36.04,0
0.546,-33.843,0
0.547,-29.265,0
0.548,-26.153,0
0.549,-22.307,0
0.55,-17.73,0
0.551,-15.899,0
0.552,-13.152,0
0.553,-10.772,0
0.554,-7.659,0
0.555,-7.293,0
0.556,-3.081,0
0.557,-1.433,0
0.558,-0.152,0
0.559,1.13,0
0.56,0.031,0
0.561,2.412,0
0.562,-1.067,0
0.563,5.891,0
0.564,21.089,0
0.565,49.836,0
0.566,53.681,0
0.567,28.779,0
0.568,6.257,0
0.569,-14.434,0
0.57,-22.307,0
0.571,-24.688,0
0.572,-22.49,0
0.573,-20.476,0
0.574,-18.645,0
0.575,-16.997,0
0.576,-12.603,0
0.577,-11.321,0
0.578,-7.842,0
0.579,-2.166,0
0.58,0.764,0
0.581,3.51,0
0.582,5.891,0
0.583,5.158,0
0.584,6.99,0
0.585,6.44,0
0.586,8.088,0
0.587,11.384,0
0.588,10.102,0
0.589,12.849,0
0.59,15.412,0
0.591,14.314,0
0.592,13.581,0
0.593,12.849,0
0.594,8.821,0
0.595,11.567,0
0.596,8.271,0
0.597,9.553,0
0.598,12.3,0
0.599,10.469,0
0.6,8.637,0
0.601,6.623,0
0.602,4.06,0
0.603,0.764,0
0.604,1.13,0
0.605,2.229,0
0.606,4.792,0
0.607,5.525,0
0.608,6.806,0
0.609,6.074,0
0.61,4.609,0
0.611,1.313,0
0.612,0.947,0
0.613,2.229,0
0.614,8.454,0
0.615,22.37,0
0.616,20.356,0
0.617,7.539,0
0.618,2.595,0
0.619,25.117,0
0.62,41.23,0
0.621,44.16,0
0.622,41.596,0
0.623,5.158,0
0.624,-31.463,0
0.625,-36.223,0
0.626,-49.041,0
0.627,-45.196,0
0.628,-41.717,0
0.629,-32.195,0
0.63,-29.265,0
0.631,-26.702,0
0.632,-19.561,0
0.633,-12.969,0
0.634,-10.955,0
0.635,-9.124,0
0.636,-4.18,0
0.637,0.215,0
0.638,1.496,0
0.639,7.539,0
0.64,4.243,0
0.641,9.187,0
0.642,13.764,0
0.643,14.497,0
0.644,7.539,0
0.645,10.285,0
0.646,11.018,0
0.647,8.821,0
0.648,9.37,0
0.649,9.919,0
0.65,10.469,0
0.651,7.173,0
0.652,2.046,0
0.653,2.595,0
0.654,4.426,0
0.655,2.778,0
0.656,6.074,0
0.657,2.961,0
0.658,9.187,0
0.659,4.609,0
0.66,3.877,0
0.661,0.031,0
0.662,-0.518,0
0.663,2.412,0
0.664,-0.701,0
0.665,7.722,0
0.666,26.216,0
0.667,50.385,0
0.668,53.498,0
0.669,26.765,0
0.67,-5.462,0
0.671,-18.279,0
0.672,-29.998,0
0.673,-33.477,0
0.674,-23.955,0
0.675,-21.026,0
0.676,-23.589,0
0.677,-16.448,0
0.678,-18.645,0
0.679,-12.603,0
0.68,-14.434,0
0.681,-9.49,0
0.682,-5.095,0
0.683,-3.814,0
0.684,-2.715,0
0.685,-3.814,0
0.686,-2.898,0
0.687,1.679,0
0.688,2.412,0
0.689,4.609,0
0.69,4.06,0
0.691,7.173,0
0.692,7.722,0
0.693,10.102,0
0.694,4.06,0
0.695,3.327,0
0.696,2.595,0
0.697,2.046,0
0.698,3.877,0
0.699,5.525,0
0.7,5.158,0
0.701,2.046,0
0.702,1.679,0
0.703,-0.884,0
0.704,2.412,0
0.705,4.426,0
0.706,0.947,0
0.707,-2.166,0
0.708,3.327,0
0.709,2.595,0
0.71,2.046,0
0.711,-1.067,0
0.712,-0.518,0
0.713,-2.898,0
0.714,-0.518,0
0.715,-0.152,0
0.716,6.074,0
0.717,19.99,0
0.718,42.146,0
0.719,56.977,0
0.72,49.104,0
0.721,17.427,0
0.722,-12.786,0
0.723,-32.378,0
0.724,-35.857,0
0.725,-32.744,0
0.726,-29.815,0
0.727,-32.378,0
0.728,-25.237,0
0.729,-23.04,0
0.73,-16.997,0
0.731,-11.504,0
0.732,-13.152,0
0.733,-5.645,0
0.734,-1.616,0
0.735,-5.095,0
0.736,-1.8,0
0.737,-0.884,0
0.738,1.863,0
0.739,7.539,0
0.74,6.806,0
0.741,13.032,0
0.742,9.004,0
0.743,11.201,0
0.744,6.623,0
0.745,8.454,0
0.746,6.806,0
0.747,7.173,0
0.748,7.539,0
0.749,8.637,0
0.75,7.539,0
0.751,3.51,0
0.752,2.229,0
0.753,3.51,0
0.754,6.257,0
0.755,3.694,0
0.756,2.595,0
0.757,4.06,0
0.758,2.229,0
0.759,1.496,0
0.76,2.961,0
0.761,0.031,0
0.762,-1.8,0
0.763,-0.701,0
0.764,0.764,0
0.765,0.215,0
0.766,3.877,0
0.767,11.384,0
0.768,26.216,0
0.769,40.315,0
0.77,42.146,0
0.771,53.681,0
0.772,40.132,0
0.773,12.666,0
0.774,-22.857,0
0.775,-37.139,0
0.776,-41.35,0
0.777,-45.196,0
0.778,-41.717,0
0.779,-32.195,0
0.78,-35.125,0
0.781,-27.251,0
0.782,-20.11,0
0.783,-13.518,0
0.784,-11.504,0
0.785,-6.011,0
0.786,-4.363,0
0.787,-2.898,0
0.788,1.13,0
0.789,4.609,0
0.79,7.905,0
0.791,8.821,0
0.792,7.905,0
0.793,11.933,0
0.794,6.623,0
0.795,8.454,0
0.796,7.905,0
0.797,9.553,0
0.798,7.173,0
0.799,8.454,0
0.8,8.821,0
0.801,7.722,0
0.802,5.158,0
0.803,5.342,0
0.804,5.525,0
0.805,4.792,0
0.806,6.257,0
0.807,6.806,0
0.808,5.891,0
0.809,6.074,0
0.81,4.609,0
0.811,4.792,0
0.812,3.694,0
0.813,0.764,0
0.814,1.13,0
0.815,0.764,0
0.816,1.679,0
0.817,-0.152,0
0.818,4.426,0
0.819,14.68,0
0.82,28.23,0
0.821,48.371,0
0.822,56.245,0
0.823,29.511,0
0.824,-9.856,0
0.825,-25.42,0
0.826,-39.702,0
0.827,-43.914,0
0.828,-40.069,0
0.829,-36.59,0
0.83,-33.477,0
0.831,-24.688,0
0.832,-22.124,0
0.833,-19.744,0
0.834,-13.152,0
0.835,-11.138,0
0.836,-9.307,0
0.837,-4.363,0
0.838,0.031,0
0.839,1.313,0
0.84,2.412,0
0.841,3.51,0
0.842,6.44,0
0.843,9.187,0
0.844,6.806,0
0.845,7.539,0
0.846,5.708,0
0.847,8.821,0
0.848,7.173,0
0.849,4.792,0
0.85,7.905,0
0.851,5.158,0
0.852,1.679,0
0.853,6.806,0
0.854,4.975,0
0.855,5.525,0
0.856,3.877,0
0.857,3.51,0
0.858,5.708,0
0.859,4.609,0
0.86,10.285,0
0.861,22.737,0
0.862,13.581,0
0.863,-1.433,0
0.864,-7.476,0
0.865,-9.307,0
0.866,-10.955,0
0.867,-12.969,0
0.868,-11.504,0
0.869,-4.729,0
0.87,13.764,0
0.871,32.441,0
0.872,44.526,0
0.873,51.118,0
0.874,28.962,0
0.875,-9.673,0
0.876,-25.237,0
0.877,-39.519,0
0.878,-43.731,0
0.879,-39.885,0
0.88,-36.406,0
0.881,-33.294,0
0.882,-24.505,0
0.883,-16.631,0
0.884,-14.251,0
0.885,-16.448,0
0.886,-6.377,0
0.887,-4.546,0
0.888,3.694,0
0.889,5.158,0
0.89,3.877,0
0.891,7.356,0
0.892,8.454,0
0.893,7.539,0
0.894,4.792,0
0.895,5.525,0
0.896,4.792,0
0.897,11.018,0
0.898,10.285,0
0.899,11.018,0
0.9,6.44,0
0.901,9.553,0
0.902,2.229,0
0.903,7.173,0
0.904,4.426,0
0.905,6.806,0
0.906,7.539,0
0.907,10.835,0
0.908,6.44,0
0.909,4.792,0
0.91,4.426,0
0.911,1.313,0
0.912,-0.701,0
0.913,1.863,0
0.914,0.764,0
0.915,4.06,0
0.916,1.863,0
0.917,-0.884,0
0.918,-2.715,0
0.919,-1.616,0
0.92,3.877,0
0.921,15.412,0
0.922,40.315,0
0.923,50.935,0
0.924,60.456,0
0.925,33.723,0
0.926,-5.645,0
0.927,-31.829,0
0.928,-36.59,0
0.929,-40.801,0
0.93,-36.956,0
0.931,-33.477,0
0.932,-30.364,0
0.933,-27.434,0
0.934,-19.561,0
0.935,-17.18,0
0.936,-14.983,0
0.937,-12.969,0
0.938,-3.814,0
0.939,-2.166,0
0.94,-0.701,0
0.941,3.327,0
0.942,6.806,0
0.943,5.708,0
0.944,2.778,0
0.945,5.525,0
0.946,4.792,0
0.947,5.525,0
0.948,3.694,0
0.949,8.088,0
0.95,6.44,0
0.951,3.144,0
0.952,3.51,0
0.953,6.257,0
0.954,5.158,0
0.955,6.257,0
0.956,6.074,0
0.957,6.806,0
0.958,6.99,0
0.959,5.525,0
0.96,2.229,0
0.961,1.863,0
0.962,1.496,0
0.963,2.595,0
0.964,2.229,0
0.965,2.961,0
0.966,4.792,0
0.967,4.06,0
0.968,0.581,0
0.969,-0.518,0
0.97,-0.884,0
0.971,6.074,0
0.972,21.272,0
0.973,32.258,0
0.974,50.385,0
0.975,52.766,0
0.976,24.018,0
0.977,-11.504,0
0.978,-35.308,0
0.979,-39.519,0
0.98,-43.365,0
0.981,-39.885,0
0.982,-30.364,0
0.983,-33.294,0
0.984,-25.42,0
0.985,-18.279,0
0.986,-11.687,0
0.987,-9.673,0
0.988,-7.842,0
0.989,-6.194,0
0.99,1.313,0
0.991,0.031,0
0.992,3.51,0
0.993,2.412,0
0.994,5.342,0
0.995,4.426,0
0.996,5.158,0
0.997,9.004,0
0.998,7.173,0
0.999,5.342,0
1,9.187,0
1.001,3.694,0
1.002,4.426,0
1.003,6.257,0
1.004,5.708,0
1.005,7.356,0
1.006,2.778,0
1.007,7.173,0
1.008,6.623,0
1.009,5.342,0
1.01,6.623,0
1.011,2.778,0
1.012,1.496,0
1.013,1.863,0
1.014,2.229,0
1.015,1.863,0
1.016,1.496,0
1.017,2.229,0
1.018,-0.335,0
1.019,1.496,0
1.02,0.215,0
1.021,-1.8,0
1.022,2.412,0
1.023,11.933,0
1.024,32.441,0
1.025,53.132,0
1.026,34.455,0
1.027,-1.983,0
1.028,-28.167,0
1.029,-32.927,0
1.03,-37.139,0
1.031,-33.294,0
1.032,-29.815,0
1.033,-26.702,0
1.034,-17.913,0
1.035,-20.476,0
1.036,-13.335,0
1.037,-6.743,0
1.038,-4.729,0
1.039,-6.56,0
1.04,-1.616,0
1.041,-0.152,0
1.042,3.877,0
1.043,4.975,0
1.044,3.877,0
1.045,4.792,0
1.046,9.37,0
1.047,3.694,0
1.048,4.426,0
1.049,4.975,0
1.05,3.144,0
1.051,6.99,0
1.052,2.412,0
1.053,6.806,0
1.054,5.158,0
1.055,4.792,0
1.056,3.51,0
1.057,7.356,0
1.058,6.074,0
1.059,4.792,0
1.06,2.778,0
1.061,3.144,0
1.062,1.313,0
1.063,4.06,0
1.064,-0.884,0
1.065,-1.433,0
1.066,-0.884,0
1.067,0.764,0
1.068,-1.616,0
1.069,-1.25,0
1.07,-0.152,0
1.071,0.947,0
1.072,3.51,0
1.073,9.004,0
1.074,20.539,0
1.075,45.442,0
1.076,56.062,0
1.077,46.54,0
1.078,13.948,0
1.079,-16.265,0
1.08,-27.984,0
1.081,-38.604,0
1.082,-35.491,0
1.083,-38.421,0
1.084,-35.857,0
1.085,-28.716,0
1.086,-26.519,0
1.087,-20.476,0
1.088,-11.321,0
1.089,-9.673,0
1.09,-5.279,0
1.091,-1.25,0
1.092,-0.152,0
1.093,0.947,0
1.094,1.863,0
1.095,2.778,0
1.096,0.398,0
1.097,4.243,0
1.098,4.792,0
1.099,6.623,0
1.1,7.173,0
1.101,5.891,0
1.102,1.679,0
1.103,7.905,0
1.104,8.637,0
1.105,13.948,0
1.106,24.201,0
1.107,34.638,0
1.108,14.131,0
1.109,5.342,0
1.11,-2.532,0
1.111,-4.912,0
1.112,-11.504,0
1.113,-9.49,0
1.114,-7.659,0
1.115,-9.307,0
1.116,-4.912,0
1.117,-6.194,0
1.118,-7.293,0
1.119,-3.997,0
1.12,-1.067,0
1.121,1.679,0
1.122,2.412,0
1.123,3.144,0
1.124,8.454,0
1.125,15.962,0
1.126,31.159,0
1.127,55.512,0
1.128,32.99,0
1.129,-5.645,0
1.13,-21.209,0
1.131,-25.969,0
1.132,-30.181,0
1.133,-26.336,0
1.134,-22.857,0
1.135,-19.744,0
1.136,-22.674,0
1.137,-14.8,0
1.138,-12.42,0
1.139,-10.222,0
1.14,-4.18,0
1.141,-2.349,0
1.142,-0.701,0
1.143,0.764,0
1.144,2.046,0
1.145,5.525,0
1.146,6.623,0
1.147,7.539,0
1.148,4.792,0
1.149,2.412,0
1.15,3.144,0
1.151,6.44,0
1.152,4.609,0
1.153,8.454,0
1.154,8.088,0
1.155,4.975,0
1.156,1.13,0
1.157,3.51,0
1.158,2.229,0
1.159,4.975,0
1.16,3.144,0
1.161,1.313,0
1.162,-0.701,0
1.163,-0.518,0
1.164,0.215,0
1.165,2.412,0
1.166,1.13,0
1.167,2.961,0
1.168,0.398,0
1.169,-1.433,0
1.17,0.031,0
1.171,3.694,0
1.172,4.975,0
1.173,2.412,0
1.174,2.046,0
1.175,6.623,0
1.176,16.145,0
1.177,36.653,0
1.178,57.344,0
1.179,33.174,0
1.18,3.877,0
1.181,-23.589,0
1.182,-27.068,0
1.183,-30.181,0
1.184,-33.111,0
1.185,-30.547,0
1.186,-28.167,0
1.187,-25.969,0
1.188,-15.899,0
1.189,-14.068,0
1.19,-12.42,0
1.191,-8.025,0
1.192,-3.997,0
1.193,-0.518,0
1.194,-6.194,0
1.195,-3.264,0
1.196,-0.518,0
1.197,3.51,0
1.198,4.243,0
1.199,4.792,0
1.2,6.623,0
1.201,0.398,0
1.202,-0.335,0
1.203,1.863,0
1.204,8.088,0
1.205,8.821,0
1.206,8.088,0
1.207,7.539,0
1.208,4.426,0
1.209,7.173,0
1.21,5.891,0
1.211,3.694,0
1.212,6.44,0
1.213,6.074,0
1.214,4.243,0
1.215,3.51,0
1.216,-0.701,0
1.217,-0.152,0
1.218,-5.279,0
1.219,-4.729,0
1.22,-6.56,0
1.221,-4.912,0
1.222,-2.532,0
1.223,4.426,0
1.224,3.877,0
1.225,4.792,0
1.226,18.708,0
1.227,16.694,0
1.228,33.174,0
1.229,44.16,0
1.23,38.117,0
1.231,32.624,0
1.232,27.68,0
1.233,20.173,0
1.234,18.891,0
1.235,24.934,0
1.236,7.905,0
1.237,-28.533,0
1.238,-54.717,0
1.239,-59.478,0
1.24,-55.266,0
1.241,-43.548,0
1.242,-40.069,0
1.243,-36.956,0
1.244,-28.167,0
1.245,-25.603,0
1.246,-13.518,0
1.247,-11.321,0
1.248,-5.279,0
1.249,0.215,0
1.25,-1.433,0
1.251,2.961,0
1.252,1.679,0
1.253,10.102,0
1.254,6.806,0
1.255,11.75,0
1.256,10.835,0
1.257,13.215,0
1.258,13.948,0
1.259,13.398,0
1.26,11.567,0
1.261,6.44,0
1.262,6.99,0
1.263,7.539,0
1.264,9.187,0
1.265,7.905,0
1.266,8.271,0
1.267,8.637,0
1.268,4.426,0
1.269,2.778,0
1.27,1.496,0
1.271,1.863,0
1.272,0.764,0
1.273,3.327,0
1.274,2.229,0
1.275,6.806,0
1.276,4.06,0
1.277,9.736,0
1.278,22.187,0
1.279,42.329,0
1.28,50.202,0
1.281,47.822,0
1.282,27.864,0
1.283,-7.11,0
1.284,-30.913,0
1.285,-43.731,0
1.286,-39.885,0
1.287,-43.365,0
1.288,-33.843,0
1.289,-30.913,0
1.29,-23.04,0
1.291,-20.659,0
1.292,-14.068,0
1.293,-12.053,0
1.294,-13.885,0
1.295,-8.941,0
1.296,-4.546,0
1.297,-0.518,0
1.298,2.961,0
1.299,4.06,0
1.3,1.13,0
1.301,7.539,0
1.302,6.806,0
1.303,9.004,0
1.304,10.835,0
1.305,7.722,0
1.306,9.37,0
1.307,6.99,0
1.308,10.102,0
1.309,8.088,0
1.31,9.187,0
1.311,5.891,0
1.312,1.313,0
1.313,1.863,0
1.314,0.215,0
1.315,0.581,0
1.316,1.863,0
1.317,2.229,0
1.318,-1.25,0
1.319,-0.884,0
1.32,2.961,0
1.321,0.581,0
1.322,0.947,0
1.323,3.694,0
1.324,2.595,0
1.325,5.158,0
1.326,5.342,0
1.327,0.764,0
1.328,11.018,0
1.329,27.497,0
1.33,38.484,0
1.331,56.611,0
1.332,44.526,0
1.333,11.384,0
1.334,-12.42,0
1.335,-34.026,0
1.336,-30.181,0
1.337,-26.702,0
1.338,-17.18,0
1.339,-14.251,0
1.34,-6.377,0
1.341,0.764,0
1.342,7.356,0
1.343,13.398,0
1.344,11.567,0
1.345,13.215,0
1.346,11.75,0
1.347,13.032,0
1.348,9.553,0
1.349,6.257,0
1.35,-0.701,0
1.351,-3.448,0
1.352,5.708,0
1.353,-0.335,0
1.354,-17.364,0
1.355,-39.336,0
1.356,-36.406,0
1.357,-28.533,0
1.358,-21.392,0
1.359,-27.984,0
1.36,-54.168,0
1.361,-71.929,0
1.362,-88.042,0
1.363,-108.73,0
1.364,-116.61,0
1.365,-114.23,0
1.366,-120.82,0
1.367,-147,0
1.368,-150.48,0
1.369,-134.37,0
1.37,-131.44,0
1.371,-112.76,0
1.372,-86.028,0
1.373,-32.378,0
1.374,37.019,0
1.375,102.39,0
1.376,144.69,0
1.377,160.62,0
1.378,152.93,0
1.379,145.97,0
1.38,139.74,0
1.381,168.49,0
1.382,184.05,0
1.383,169.77,0
1.384,148.16,0
1.385,144.32,0
1.386,147.8,0
1.387,144.69,0
1.388,135.9,0
1.389,128.02,0
1.39,115.94,0
1.391,104.95,0
1.392,82.795,0
1.393,62.104,0
1.394,32.624,0
1.395,20.906,0
1.396,17.427,0
1.397,14.314,0
1.398,5.525,0
1.399,-2.349,0
1.4,-14.434,0
1.401,-21.026,0
1.402,-27.068,0
1.403,-36.223,0
1.404,-37.871,0
1.405,-30.364,0
1.406,-39.885,0
1.407,-48.308,0
1.408,-47.21,0
1.409,-50.139,0
1.41,-49.224,0
1.411,-53.252,0
1.412,-57.097,0
1.413,-50.872,0
1.414,-53.252,0
1.415,-55.449,0
1.416,-60.027,0
1.417,-64.422,0
1.418,-66.07,0
1.419,-64.788,0
1.42,-57.83,0
1.421,-58.745,0
1.422,-54.168,0
1.423,-50.139,0
1.424,-44.829,0
1.425,-37.322,0
1.426,-36.406,0
1.427,-39.153,0
1.428,-32.012,0
1.429,-24.505,0
1.43,-15.349,0
1.431,0.764,0
1.432,20.722,0
1.433,28.596,0
1.434,40.681,0
1.435,29.695,0
1.436,-0.518,0
1.437,-30.73,0
1.438,-34.575,0
1.439,-38.054,0
1.44,-34.942,0
1.441,-32.012,0
1.442,-29.448,0
1.443,-22.307,0
1.444,-20.11,0
1.445,-14.068,0
1.446,-8.574,0
1.447,-6.927,0
1.448,0.581,0
1.449,4.609,0
1.45,3.51,0
1.451,9.187,0
1.452,14.131,0
1.453,15.046,0
1.454,14.314,0
1.455,15.046,0
1.456,18.342,0
1.457,17.793,0
1.458,16.145,0
1.459,19.441,0
1.46,16.328,0
1.461,15.229,0
1.462,15.595,0
1.463,12.3,0
1.464,13.398,0
1.465,12.3,0
1.466,14.131,0
1.467,13.398,0
1.468,10.285,0
1.469,8.271,0
1.47,10.835,0
1.471,9.004,0
1.472,7.539,0
1.473,6.257,0
1.474,7.539,0
1.475,10.652,0
1.476,6.806,0
1.477,6.44,0
1.478,1.313,0
1.479,6.806,0
1.48,0.581,0
1.481,13.032,0
1.482,25.849,0
1.483,34.089,0
1.484,41.596,0
1.485,40.315,0
1.486,39.216,0
1.487,31.343,0
1.488,24.385,0
1.489,19.807,0
1.49,22.187,0
1.491,15.229,0
1.492,10.652,0
1.493,-1.8,0
1.494,-29.265,0
1.495,-64.788,0
1.496,-60.027,0
1.497,-64.239,0
1.498,-44.646,0
1.499,-41.167,0
1.5,-31.646,0
1.501,-28.716,0
1.502,-20.843,0
1.503,-13.701,0
1.504,-7.11,0
1.505,-1.067,0
1.506,4.426,0
1.507,6.074,0
1.508,10.469,0
1.509,14.497,0
1.51,13.398,0
1.511,12.3,0
1.512,13.215,0
1.513,14.131,0
1.514,18.159,0
1.515,15.962,0
1.516,15.412,0
1.517,17.243,0
1.518,12.116,0
1.519,13.948,0
1.52,12.116,0
1.521,9.37,0
1.522,6.074,0
1.523,9.187,0
1.524,4.609,0
1.525,10.285,0
1.526,11.018,0
1.527,7.722,0
1.528,5.891,0
1.529,3.144,0
1.53,-1.25,0
1.531,2.046,0
1.532,9.004,0
1.533,24.201,0
1.534,52.949,0
1.535,56.794,0
1.536,24.568,0
1.537,-5.645,0
1.538,-17.364,0
1.539,-20.843,0
1.54,-23.955,0
1.541,-21.026,0
1.542,-18.462,0
1.543,-20.843,0
1.544,-18.645,0
1.545,-16.631,0
1.546,-14.8,0
1.547,-13.152,0
1.548,-8.758,0
1.549,-7.476,0
1.55,-3.997,0
1.551,-2.898,0
1.552,-3.814,0
1.553,-2.898,0
1.554,-2.166,0
1.555,0.031,0
1.556,3.327,0
1.557,0.215,0
1.558,4.06,0
1.559,3.694,0
1.56,2.412,0
1.561,1.313,0
1.562,1.679,0
1.563,2.778,0
1.564,2.961,0
1.565,3.144,0
1.566,2.412,0
1.567,0.215,0
1.568,-1.067,0
1.569,0.764,0
1.57,0.947,0
1.571,2.412,0
1.572,2.595,0
1.573,1.679,0
1.574,3.694,0
1.575,0.398,0
1.576,3.144,0
1.577,0.581,0
1.578,-1.983,0
1.579,-1.25,0
1.58,2.961,0
1.581,0.947,0
1.582,-2.166,0
1.583,6.257,0
1.584,24.751,0
1.585,43.427,0
1.586,45.808,0
1.587,56.794,0
1.588,26.582,0
1.589,-12.42,0
1.59,-27.984,0
1.591,-42.266,0
1.592,-38.054,0
1.593,-41.9,0
1.594,-38.421,0
1.595,-28.899,0
1.596,-20.11,0
1.597,-12.237,0
1.598,14.497,0
1.599,11.018,0
1.6,-5.095,0
1.601,-13.885,0
1.602,-11.321,0
1.603,-13.701,0
1.604,-11.504,0
1.605,-9.49,0
1.606,-3.997,0
1.607,0.947,0
1.608,2.412,0
1.609,3.694,0
1.61,2.595,0
1.611,1.496,0
1.612,14.68,0
1.613,9.187,0
1.614,10.835,0
1.615,6.44,0
1.616,7.722,0
1.617,6.623,0
1.618,9.919,0
1.619,9.004,0
1.62,4.426,0
1.621,6.806,0
1.622,12.116,0
1.623,7.539,0
1.624,5.708,0
1.625,4.06,0
1.626,7.356,0
1.627,4.243,0
1.628,6.99,0
1.629,2.778,0
1.63,4.426,0
1.631,-0.152,0
1.632,-1.983,0
1.633,4.975,0
1.634,17.06,0
1.635,28.596,0
1.636,27.131,0
1.637,47.639,0
1.638,56.428,0
1.639,26.948,0
1.64,-8.574,0
1.641,-32.378,0
1.642,-36.59,0
1.643,-40.435,0
1.644,-36.956,0
1.645,-33.843,0
1.646,-30.913,0
1.647,-28.35,0
1.648,-21.209,0
1.649,-14.617,0
1.65,-8.574,0
1.651,-3.081,0
1.652,-8.025,0
1.653,-6.56,0
1.654,0.215,0
1.655,3.694,0
1.656,2.595,0
1.657,5.525,0
1.658,8.271,0
1.659,7.539,0
1.66,8.271,0
1.661,4.975,0
1.662,8.088,0
1.663,6.44,0
1.664,6.806,0
1.665,7.173,0
1.666,6.806,0
1.667,7.173,0
1.668,6.806,0
1.669,4.792,0
1.67,0.581,0
1.671,3.694,0
1.672,2.046,0
1.673,0.764,0
1.674,5.891,0
1.675,6.44,0
1.676,6.99,0
1.677,0.764,0
1.678,1.496,0
1.679,3.694,0
1.68,0.398,0
1.681,2.229,0
1.682,1.679,0
1.683,0.947,0
1.684,1.313,0
1.685,8.271,0
1.686,13.215,0
1.687,27.131,0
1.688,57.344,0
1.689,35.737,0
1.69,-7.659,0
1.691,-13.335,0
1.692,-28.899,0
1.693,-33.66,0
1.694,-29.448,0
1.695,-25.603,0
1.696,-22.124,0
1.697,-19.011,0
1.698,-16.082,0
1.699,-13.518,0
1.7,-6.377,0
1.701,-4.18,0
1.702,-10.222,0
1.703,-4.729,0
1.704,3.51,0
1.705,4.975,0
1.706,0.947,0
1.707,4.426,0
1.708,3.327,0
1.709,4.243,0
1.71,6.99,0
1.711,4.609,0
1.712,2.412,0
1.713,2.961,0
1.714,1.13,0
1.715,2.778,0
1.716,8.271,0
1.717,1.313,0
1.718,0.398,0
1.719,4.426,0
1.72,3.694,0
1.721,5.525,0
1.722,4.975,0
1.723,1.13,0
1.724,1.496,0
1.725,3.694,0
1.726,6.44,0
1.727,1.496,0
1.728,2.046,0
1.729,1.496,0
1.73,0.947,0
1.731,4.243,0
1.732,1.13,0
1.733,-2.715,0
1.734,-0.518,0
1.735,-0.884,0
1.736,6.074,0
1.737,21.272,0
1.738,54.414,0
1.739,49.653,0
1.74,53.865,0
1.741,34.272,0
1.742,16.511,0
1.743,6.99,0
1.744,15.779,0
1.745,13.215,0
1.746,-13.518,0
1.747,-45.745,0
1.748,-67.351,0
1.749,-63.506,0
1.75,-60.027,0
1.751,-56.914,0
1.752,-42.083,0
1.753,-39.519,0
1.754,-32.378,0
1.755,-25.786,0
1.756,-11.687,0
1.757,-9.856,0
1.758,-1.616,0
1.759,2.778,0
1.76,1.496,0
1.761,7.539,0
1.762,10.835,0
1.763,9.919,0
1.764,12.666,0
1.765,13.398,0
1.766,15.595,0
1.767,13.764,0
1.768,15.595,0
1.769,10.469,0
1.77,13.764,0
1.771,9.37,0
1.772,11.018,0
1.773,12.3,0
1.774,11.018,0
1.775,13.764,0
1.776,12.666,0
1.777,7.173,0
1.778,9.37,0
1.779,8.821,0
1.78,6.99,0
1.781,6.44,0
1.782,7.722,0
1.783,6.44,0
1.784,3.694,0
1.785,3.144,0
1.786,1.313,0
1.787,6.806,0
1.788,18.342,0
1.789,39.948,0
1.79,60.639,0
1.791,25.666,0
1.792,11.384,0
1.793,-18.828,0
1.794,-38.421,0
1.795,-34.942,0
1.796,-38.054,0
1.797,-35.125,0
1.798,-32.561,0
1.799,-30.181,0
1.8,-23.589,0
1.801,-13.518,0
1.802,-15.349,0
1.803,-10.406,0
1.804,-6.011,0
1.805,-4.729,0
1.806,1.313,0
1.807,2.412,0
1.808,5.342,0
1.809,6.257,0
1.81,5.525,0
1.811,4.792,0
1.812,1.496,0
1.813,3.327,0
1.814,7.173,0
1.815,5.891,0
1.816,6.257,0
1.817,5.158,0
1.818,4.792,0
1.819,4.426,0
1.82,3.694,0
1.821,4.426,0
1.822,5.158,0
1.823,2.961,0
1.824,5.525,0
1.825,5.891,0
1.826,6.623,0
1.827,2.412,0
1.828,0.581,0
1.829,0.031,0
1.83,-0.335,0
1.831,-1.616,0
1.832,1.13,0
1.833,-3.081,0
1.834,-1.433,0
1.835,-0.152,0
1.836,-0.518,0
1.837,-0.152,0
1.838,-2.166,0
1.839,2.778,0
1.84,0.947,0
1.841,1.496,0
1.842,-0.152,0
1.843,7.356,0
1.844,17.61,0
1.845,13.581,0
1.846,0.031,0
1.847,1.863,0
1.848,26.765,0
1.849,44.526,0
1.85,22.004,0
1.851,-10.589,0
1.852,-32.195,0
1.853,-36.04,0
1.854,-39.519,0
1.855,-36.406,0
1.856,-27.617,0
1.857,-25.054,0
1.858,-22.674,0
1.859,-16.082,0
1.86,-14.068,0
1.861,-12.237,0
1.862,-3.997,0
1.863,-5.462,0
1.864,-1.433,0
1.865,2.046,0
1.866,3.144,0
1.867,4.06,0
1.868,3.144,0
1.869,7.173,0
1.87,7.905,0
1.871,7.356,0
1.872,6.806,0
1.873,8.454,0
1.874,8.821,0
1.875,5.708,0
1.876,6.806,0
1.877,5.708,0
1.878,5.342,0
1.879,6.806,0
1.88,7.539,0
1.881,3.51,0
1.882,2.961,0
1.883,4.243,0
1.884,2.046,0
1.885,4.06,0
1.886,-0.152,0
1.887,3.144,0
1.888,3.694,0
1.889,11.201,0
1.89,21.455,0
1.891,41.963,0
1.892,44.892,0
1.893,42.329,0
1.894,25.483,0
1.895,36.469,0
1.896,30.427,0
1.897,2.961,0
1.898,-32.561,0
1.899,-46.844,0
1.9,-51.055,0
1.901,-54.9,0
1.902,-51.421,0
1.903,-41.9,0
1.904,-33.111,0
1.905,-25.237,0
1.906,-22.857,0
1.907,-11.87,0
1.908,-9.856,0
1.909,-4.363,0
1.91,-2.715,0
1.911,1.679,0
1.912,2.961,0
1.913,6.44,0
1.914,7.539,0
1.915,10.469,0
1.916,9.553,0
1.917,8.821,0
1.918,11.018,0
1.919,11.567,0
1.92,9.736,0
1.921,10.285,0
1.922,11.567,0
1.923,12.849,0
1.924,10.835,0
1.925,10.469,0
1.926,11.567,0
1.927,6.99,0
1.928,3.694,0
1.929,5.525,0
1.93,7.173,0
1.931,2.595,0
1.932,2.046,0
1.933,2.595,0
1.934,4.975,0
1.935,2.778,0
1.936,1.679,0
1.937,-0.884,0
1.938,3.877,0
1.939,0.581,0
1.94,6.806,0
1.941,20.722,0
1.942,46.906,0
1.943,50.385,0
1.944,27.864,0
1.945,7.173,0
1.946,-22.307,0
1.947,-34.026,0
1.948,-37.505,0
1.949,-27.984,0
1.95,-30.913,0
1.951,-28.35,0
1.952,-25.969,0
1.953,-23.772,0
1.954,-17.73,0
1.955,-12.237,0
1.956,-10.589,0
1.957,-3.081,0
1.958,0.947,0
1.959,-0.152,0
1.96,0.947,0
1.961,3.877,0
1.962,4.792,0
1.963,4.06,0
1.964,4.792,0
1.965,2.961,0
1.966,7.356,0
1.967,7.905,0
1.968,6.623,0
1.969,5.342,0
1.97,3.327,0
1.971,9.004,0
1.972,4.975,0
1.973,8.821,0
1.974,8.271,0
1.975,5.158,0
1.976,5.708,0
1.977,2.412,0
1.978,2.778,0
1.979,1.679,0
1.98,2.778,0
1.981,2.412,0
1.982,1.679,0
1.983,-0.152,0
1.984,-0.335,0
1.985,0.215,0
1.986,0.398,0
1.987,-0.518,0
1.988,-0.335,0
1.989,1.679,0
1.99,2.412,0
1.991,4.426,0
1.992,9.919,0
1.993,21.455,0
1.994,46.357,0
1.995,49.836,0
1.996,7.539,0
1.997,-21.209,0
1.998,-36.773,0
1.999,-32.012,0
2,-36.223,0
2.001,-32.378,0
2.002,-28.899,0
2.003,-25.786,0
2.004,-22.857,0
2.005,-20.293,0
2.006,-17.913,0
2.007,-11.321,0
2.008,-5.279,0
2.009,-3.448,0
2.01,1.496,0
2.011,2.961,0
2.012,1.679,0
2.013,2.778,0
2.014,3.877,0
2.015,4.792,0
2.016,5.708,0
2.017,9.736,0
2.018,7.539,0
2.019,4.243,0
2.02,4.792,0
2.021,8.637,0
2.022,7.356,0
2.023,6.99,0
2.024,4.975,0
2.025,6.074,0
2.026,6.44,0
2.027,5.708,0
2.028,3.144,0
2.029,1.313,0
2.03,5.342,0
2.031,-0.884,0
2.032,3.144,0
2.033,-0.701,0
2.034,-0.152,0
2.035,0.398,0
2.036,4.243,0
2.037,0.947,0
2.038,0.581,0
2.039,-2.166,0
2.04,1.679,0
2.041,6.623,0
2.042,16.877,0
2.043,27.314,0
2.044,42.329,0
2.045,44.343,0
2.046,49.836,0
2.047,24.934,0
2.048,-7.293,0
2.049,-28.899,0
2.05,-40.618,0
2.051,-44.097,0
2.052,-40.984,0
2.053,-38.054,0
2.054,-35.491,0
2.055,-28.35,0
2.056,-21.758,0
2.057,-11.687,0
2.058,-9.856,0
2.059,-4.912,0
2.06,-6.377,0
2.061,0.398,0
2.062,-0.701,0
2.063,0.398,0
2.064,3.327,0
2.065,6.074,0
2.066,5.342,0
2.067,6.074,0
2.068,7.905,0
2.069,7.356,0
2.07,6.806,0
2.071,10.102,0
2.072,6.99,0
2.073,5.891,0
2.074,8.454,0
2.075,11.018,0
2.076,9.004,0
2.077,8.271,0
2.078,4.792,0
2.079,5.158,0
2.08,4.792,0
2.081,3.694,0
2.082,6.257,0
2.083,6.074,0
2.084,2.412,0
2.085,-0.884,0
2.086,1.313,0
2.087,-1.433,0
2.088,4.243,0
2.089,16.694,0
2.09,29.511,0
2.091,-2.715,0
2.092,-10.955,0
2.093,-9.49,0
2.094,2.778,0
2.095,14.314,0
2.096,36.836,0
2.097,46.357,0
2.098,7.722,0
2.099,-18.462,0
2.1,-32.744,0
2.101,-36.956,0
2.102,-33.111,0
2.103,-29.632,0
2.104,-20.11,0
2.105,-23.04,0
2.106,-15.166,0
2.107,-8.025,0
2.108,-10.222,0
2.109,-4.18,0
2.11,-2.349,0
2.111,-0.701,0
2.112,0.764,0
2.113,-0.518,0
2.114,7.905,0
2.115,2.229,0
2.116,3.144,0
2.117,4.06,0
2.118,4.792,0
2.119,2.595,0
2.12,3.144,0
2.121,3.694,0
2.122,5.342,0
2.123,7.722,0
2.124,14.68,0
2.125,9.736,0
2.126,5.158,0
2.127,7.539,0
2.128,9.736,0
2.129,5.158,0
2.13,4.609,0
2.131,7.356,0
2.132,4.975,0
2.133,2.778,0
2.134,1.679,0
2.135,0.581,0
2.136,0.947,0
2.137,0.215,0
2.138,0.947,0
2.139,1.13,0
2.14,3.327,0
2.141,6.99,0
2.142,2.412,0
2.143,2.046,0
2.144,9.004,0
2.145,24.201,0
2.146,52.949,0
2.147,56.794,0
2.148,31.892,0
2.149,-3.814,0
2.15,-27.617,0
2.151,-31.829,0
2.152,-35.674,0
2.153,-32.195,0
2.154,-29.082,0
2.155,-26.153,0
2.156,-23.589,0
2.157,-21.209,0
2.158,-14.617,0
2.159,-12.603,0
2.16,-7.11,0
2.161,-8.758,0
2.162,-7.293,0
2.163,-6.011,0
2.164,2.412,0
2.165,3.51,0
2.166,2.595,0
2.167,-0.152,0
2.168,3.877,0
2.169,1.679,0
2.17,-1.616,0
2.171,1.496,0
2.172,5.342,0
2.173,8.637,0
2.174,8.271,0
2.175,8.637,0
2.176,4.426,0
2.177,3.877,0
2.178,5.158,0
2.179,6.44,0
2.18,3.694,0
2.181,4.792,0
2.182,2.229,0
2.183,2.961,0
2.184,-0.701,0
2.185,4.792,0
2.186,5.525,0
2.187,3.694,0
2.188,4.243,0
2.189,4.792,0
2.19,4.426,0
2.191,4.06,0
2.192,1.313,0
2.193,0.947,0
2.194,-2.532,0
2.195,4.426,0
2.196,13.581,0
2.197,32.075,0
2.198,56.245,0
2.199,33.723,0
2.2,-4.912,0
2.201,-20.476,0
2.202,-25.237,0
2.203,-29.448,0
2.204,-33.294,0
2.205,-29.815,0
2.206,-20.293,0
2.207,-17.364,0
2.208,-14.8,0
2.209,-12.42,0
2.21,-10.222,0
2.211,-12.237,0
2.212,-3.081,0
2.213,-4.729,0
2.214,-3.264,0
2.215,-4.546,0
2.216,1.496,0
2.217,2.595,0
2.218,5.525,0
2.219,4.609,0
2.22,3.877,0
2.221,6.074,0
2.222,10.652,0
2.223,6.257,0
2.224,5.708,0
2.225,8.088,0
2.226,4.975,0
2.227,5.342,0
2.228,5.708,0
2.229,3.877,0
2.23,5.342,0
2.231,2.229,0
2.232,4.975,0
2.233,4.609,0
2.234,2.778,0
2.235,3.51,0
2.236,7.722,0
2.237,5.891,0
2.238,11.018,0
2.239,14.314,0
2.24,16.145,0
2.241,19.99,0
2.242,20.356,0
2.243,22.553,0
2.244,23.652,0
2.245,24.751,0
2.246,30.427,0
2.247,42.878,0
2.248,55.696,0
2.249,63.935,0
2.25,53.498,0
2.251,32.99,0
2.252,-11.504,0
2.253,-55.816,0
2.254,-61.492,0
2.255,-66.619,0
2.256,-71.38,0
2.257,-58.562,0
2.258,-46.844,0
2.259,-36.223,0
2.26,-39.336,0
2.261,-60.027,0
2.262,-73.394,0
2.263,-85.479,0
2.264,-105.44,0
2.265,-118.8,0
2.266,-116.42,0
2.267,-118.62,0
2.268,-140.78,0
2.269,-143.71,0
2.27,-135.83,0
2.271,-123.75,0
2.272,-112.76,0
2.273,-94.634,0
2.274,-58.196,0
2.275,20.539,0
2.276,99.458,0
2.277,150.73,0
2.278,160.07,0
2.279,151.64,0
2.28,143.95,0
2.281,123.08,0
2.282,116.85,0
2.283,122.53,0
2.284,117.4,0
2.285,131.68,0
2.286,144.5,0
2.287,164.09,0
2.288,167.57,0
2.289,164.46,0
2.29,155.67,0
2.291,136.99,0
2.292,124.91,0
2.293,104.95,0
2.294,86.274,0
2.295,58.076,0
2.296,36.103,0
2.297,44.892,0
2.298,42.329,0
2.299,69.062,0
2.3,65.583,0
2.301,29.878,0
2.302,-13.152,0
2.303,-41.9,0
2.304,-57.464,0
2.305,-71.746,0
2.306,-67.534,0
2.307,-71.38,0
2.308,-82,0
2.309,-78.887,0
2.31,-75.957,0
2.311,-68.084,0
2.312,-65.703,0
2.313,-63.506,0
2.314,-61.492,0
2.315,-55.999,0
2.316,-57.647,0
2.317,-65.154,0
2.318,-66.436,0
2.319,-65.337,0
2.32,-62.041,0
2.321,-57.097,0
2.322,-56.182,0
2.323,-50.506,0
2.324,-48.308,0
2.325,-43.731,0
2.326,-41.9,0
2.327,-40.252,0
2.328,-32.744,0
2.329,-24.871,0
2.33,-21.941,0
2.331,-19.195,0
2.332,-15.166,0
2.333,-3.631,0
2.334,14.68,0
2.335,17.06,0
2.336,1.679,0
2.337,-8.391,0
2.338,-10.222,0
2.339,-8.574,0
2.34,-7.11,0
2.341,-5.828,0
2.342,-4.729,0
2.343,-3.631,0
2.344,-2.715,0
2.345,0.031,0
2.346,0.215,0
2.347,0.947,0
2.348,12.483,0
2.349,20.722,0
2.35,43.244,0
2.351,59.358,0
2.352,38.667,0
2.353,3.694,0
2.354,-10.589,0
2.355,-23.406,0
2.356,-19.561,0
2.357,-16.082,0
2.358,-19.195,0
2.359,-16.265,0
2.36,-8.391,0
2.361,-6.011,0
2.362,0.581,0
2.363,-1.433,0
2.364,0.398,0
2.365,5.342,0
2.366,6.806,0
2.367,5.525,0
2.368,6.623,0
2.369,7.722,0
2.37,10.652,0
2.371,9.736,0
2.372,12.116,0
2.373,15.962,0
2.374,15.412,0
2.375,12.3,0
2.376,11.75,0
2.377,11.384,0
2.378,11.018,0
2.379,6.44,0
2.38,9.553,0
2.381,4.426,0
2.382,9.004,0
2.383,5.891,0
2.384,6.44,0
2.385,5.158,0
2.386,8.271,0
2.387,9.37,0
2.388,5.891,0
2.389,4.609,0
2.39,5.708,0
2.391,7.539,0
2.392,6.44,0
2.393,4.426,0
2.394,5.158,0
2.395,3.327,0
2.396,2.229,0
2.397,-1.25,0
2.398,0.215,0
2.399,3.144,0
2.4,9.37,0
2.401,23.286,0
2.402,45.442,0
2.403,54.231,0
2.404,40.864,0
2.405,4.426,0
2.406,-21.758,0
2.407,-36.04,0
2.408,-40.252,0
2.409,-36.406,0
2.41,-32.927,0
2.411,-29.815,0
2.412,-21.026,0
2.413,-18.462,0
2.414,-20.843,0
2.415,-14.251,0
2.416,-8.208,0
2.417,-6.377,0
2.418,-1.433,0
2.419,0.031,0
2.42,1.313,0
2.421,0.215,0
2.422,8.088,0
2.423,9.004,0
2.424,8.088,0
2.425,5.708,0
2.426,6.44,0
2.427,4.609,0
2.428,6.44,0
2.429,5.891,0
2.43,11.384,0
2.431,6.074,0
2.432,9.37,0
2.433,3.694,0
2.434,4.426,0
2.435,-0.152,0
2.436,5.525,0
2.437,4.792,0
2.438,2.961,0
2.439,3.51,0
2.44,1.863,0
2.441,4.243,0
2.442,0.031,0
2.443,0.581,0
2.444,1.863,0
2.445,0.581,0
2.446,6.806,0
2.447,2.229,0
2.448,0.947,0
2.449,1.679,0
2.45,10.102,0
2.451,27.131,0
2.452,49.104,0
2.453,52.033,0
2.454,22.553,0
2.455,-4.912,0
2.456,-22.674,0
2.457,-25.786,0
2.458,-28.716,0
2.459,-31.28,0
2.46,-28.899,0
2.461,-22.307,0
2.462,-20.293,0
2.463,-18.462,0
2.464,-16.814,0
2.465,-12.42,0
2.466,-8.391,0
2.467,-9.49,0
2.468,-3.814,0
2.469,1.13,0
2.47,0.215,0
2.471,0.947,0
2.472,0.215,0
2.473,7.722,0
2.474,8.637,0
2.475,5.891,0
2.476,1.863,0
2.477,1.13,0
2.478,1.679,0
2.479,3.51,0
2.48,0.764,0
2.481,3.144,0
2.482,8.271,0
2.483,2.046,0
2.484,-0.335,0
2.485,-1.067,0
2.486,0.764,0
2.487,3.877,0
2.488,1.13,0
2.489,-0.152,0
2.49,4.975,0
2.491,1.679,0
2.492,2.229,0
2.493,-1.616,0
2.494,0.764,0
2.495,2.961,0
2.496,0.215,0
2.497,-0.884,0
2.498,4.609,0
2.499,1.679,0
2.5,-0.518,0
2.501,9.736,0
2.502,26.216,0
2.503,41.596,0
2.504,55.696,0
2.505,46.54,0
2.506,21.638,0
2.507,-17.73,0
2.508,-22.857,0
2.509,-37.139,0
2.51,-32.927,0
2.511,-36.773,0
2.512,-33.294,0
2.513,-23.772,0
2.514,-14.983,0
2.515,-17.547,0
2.516,-10.406,0
2.517,-8.208,0
2.518,-6.194,0
2.519,-0.701,0
2.52,-2.349,0
2.521,5.158,0
2.522,3.877,0
2.523,4.975,0
2.524,6.074,0
2.525,6.99,0
2.526,4.243,0
2.527,3.51,0
2.528,5.708,0
2.529,2.412,0
2.53,6.806,0
2.531,7.356,0
2.532,4.975,0
2.533,5.342,0
2.534,4.243,0
2.535,0.764,0
2.536,6.806,0
2.537,4.426,0
2.538,8.271,0
2.539,4.975,0
2.54,4.426,0
2.541,1.679,0
2.542,4.975,0
2.543,3.694,0
2.544,1.679,0
2.545,2.778,0
2.546,0.947,0
2.547,-1.8,0
2.548,-1.433,0
2.549,3.327,0
2.55,-1.983,0
2.551,-0.152,0
2.552,8.271,0
2.553,26.765,0
2.554,45.442,0
2.555,62.287,0
2.556,33.54,0
2.557,-1.983,0
2.558,-16.265,0
2.559,-29.082,0
2.56,-40.801,0
2.561,-37.322,0
2.562,-34.209,0
2.563,-25.42,0
2.564,-22.857,0
2.565,-15.716,0
2.566,-17.913,0
2.567,-11.87,0
2.568,-6.377,0
2.569,-4.729,0
2.57,-6.194,0
2.571,0.581,0
2.572,4.06,0
2.573,-1.616,0
2.574,-0.701,0
2.575,5.708,0
2.576,3.327,0
2.577,2.595,0
2.578,4.426,0
2.579,13.948,0
2.58,34.455,0
2.581,25.666,0
2.582,12.3,0
2.583,0.215,0
2.584,-6.377,0
2.585,-8.391,0
2.586,-6.56,0
2.587,-8.208,0
2.588,-3.814,0
2.589,-2.532,0
2.59,-1.433,0
2.591,-4.729,0
2.592,-1.8,0
2.593,-4.546,0
2.594,2.961,0
2.595,-1.983,0
2.596,4.426,0
2.597,3.694,0
2.598,2.961,0
2.599,3.51,0
2.6,2.961,0
2.601,3.877,0
2.602,1.13,0
2.603,8.637,0
2.604,25.666,0
2.605,42.512,0
2.606,49.104,0
2.607,43.061,0
2.608,33.906,0
2.609,9.004,0
2.61,-30.364,0
2.611,-35.491,0
2.612,-40.252,0
2.613,-44.463,0
2.614,-32.744,0
2.615,-29.265,0
2.616,-26.153,0
2.617,-17.364,0
2.618,-19.927,0
2.619,-12.786,0
2.62,-10.589,0
2.621,-4.546,0
2.622,-2.715,0
2.623,2.229,0
2.624,3.694,0
2.625,7.722,0
2.626,4.243,0
2.627,5.342,0
2.628,6.257,0
2.629,3.51,0
2.63,4.243,0
2.631,8.088,0
2.632,8.637,0
2.633,8.088,0
2.634,6.44,0
2.635,5.158,0
2.636,7.356,0
2.637,2.778,0
2.638,8.454,0
2.639,4.609,0
2.64,6.44,0
2.641,5.891,0
2.642,2.046,0
2.643,0.764,0
2.644,2.046,0
2.645,0.031,0
2.646,4.243,0
2.647,-0.884,0
2.648,-1.433,0
2.649,-3.264,0
2.65,-2.715,0
2.651,-3.081,0
2.652,0.215,0
2.653,1.496,0
2.654,7.722,0
2.655,21.638,0
2.656,39.765,0
2.657,51.85,0
2.658,62.837,0
2.659,32.624,0
2.66,-6.377,0
2.661,-32.561,0
2.662,-37.322,0
2.663,-41.533,0
2.664,-37.688,0
2.665,-34.209,0
2.666,-31.096,0
2.667,-28.167,0
2.668,-25.603,0
2.669,-13.518,0
2.67,-11.321,0
2.671,-5.279,0
2.672,-7.11,0
2.673,-2.166,0
2.674,5.342,0
2.675,6.623,0
2.676,7.722,0
2.677,6.623,0
2.678,3.694,0
2.679,4.609,0
2.68,5.342,0
2.681,6.074,0
2.682,5.525,0
2.683,7.356,0
2.684,3.51,0
2.685,4.792,0
2.686,6.99,0
2.687,4.243,0
2.688,2.412,0
2.689,4.243,0
2.69,4.426,0
2.691,5.158,0
2.692,5.891,0
2.693,3.327,0
2.694,4.426,0
2.695,1.679,0
2.696,4.243,0
2.697,6.806,0
2.698,4.792,0
2.699,1.679,0
2.7,-0.335,0
2.701,-2.166,0
2.702,-1.067,0
2.703,0.947,0
2.704,2.961,0
2.705,7.173,0
2.706,16.694,0
2.707,37.202,0
2.708,34.272,0
2.709,47.639,0
2.71,54.78,0
2.711,21.638,0
2.712,-21.392,0
2.713,-38.604,0
2.714,-43.731,0
2.715,-48.491,0
2.716,-44.28,0
2.717,-40.435,0
2.718,-36.956,0
2.719,-27.434,0
2.72,-24.505,0
2.721,-16.631,0
2.722,-14.251,0
2.723,-3.264,0
2.724,-5.279,0
2.725,0.215,0
2.726,-1.433,0
2.727,2.961,0
2.728,4.243,0
2.729,7.722,0
2.73,6.623,0
2.731,5.708,0
2.732,6.623,0
2.733,5.891,0
2.734,6.623,0
2.735,7.173,0
2.736,9.004,0
2.737,9.553,0
2.738,9.919,0
2.739,12.116,0
2.74,7.539,0
2.741,8.088,0
2.742,6.44,0
2.743,4.06,0
2.744,4.426,0
2.745,2.412,0
2.746,4.243,0
2.747,3.877,0
2.748,5.891,0
2.749,3.327,0
2.75,0.764,0
2.751,-2.532,0
2.752,-1.25,0
2.753,1.496,0
2.754,3.877,0
2.755,0.398,0
2.756,7.356,0
2.757,22.553,0
2.758,55.696,0
2.759,50.935,0
2.76,29.328,0
2.761,-14.068,0
2.762,-19.744,0
2.763,-24.871,0
2.764,-29.632,0
2.765,-25.42,0
2.766,-29.265,0
2.767,-25.786,0
2.768,-22.674,0
2.769,-13.885,0
2.77,-11.321,0
2.771,-4.18,0
2.772,-6.377,0
2.773,-4.363,0
2.774,-2.532,0
2.775,-0.884,0
2.776,0.581,0
2.777,-0.701,0
2.778,0.398,0
2.779,1.496,0
2.78,4.426,0
2.781,7.173,0
2.782,7.905,0
2.783,8.637,0
2.784,4.06,0
2.785,4.609,0
2.786,2.961,0
2.787,3.327,0
2.788,3.694,0
2.789,6.44,0
2.79,8.271,0
2.791,4.975,0
2.792,3.877,0
2.793,4.243,0
2.794,1.679,0
2.795,0.947,0
2.796,1.679,0
2.797,-1.25,0
2.798,0.581,0
2.799,0.215,0
2.8,-4.363,0
2.801,-1.067,0
2.802,-0.518,0
2.803,0.031,0
2.804,-0.335,0
2.805,-1.25,0
2.806,3.877,0
2.807,7.173,0
2.808,16.694,0
2.809,37.202,0
2.81,40.132,0
2.811,48.005,0
2.812,60.09,0
2.813,26.948,0
2.814,-16.082,0
2.815,-33.294,0
2.816,-48.858,0
2.817,-44.097,0
2.818,-39.885,0
2.819,-36.04,0
2.82,-32.561,0
2.821,-23.04,0
2.822,-20.11,0
2.823,-17.547,0
2.824,-10.406,0
2.825,0.581,0
2.826,6.623,0
2.827,8.454,0
2.828,-3.081,0
2.829,-7.476,0
2.83,-6.194,0
2.831,-7.293,0
2.832,-8.391,0
2.833,-1.433,0
2.834,-4.18,0
2.835,-3.448,0
2.836,3.51,0
2.837,4.426,0
2.838,8.454,0
2.839,6.257,0
2.84,6.806,0
2.841,9.919,0
2.842,6.074,0
2.843,8.454,0
2.844,4.243,0
2.845,3.694,0
2.846,6.99,0
2.847,6.623,0
2.848,7.722,0
2.849,7.356,0
2.85,4.06,0
2.851,0.215,0
2.852,3.51,0
2.853,5.708,0
2.854,5.342,0
2.855,2.778,0
2.856,7.539,0
2.857,7.905,0
2.858,12.483,0
2.859,22.737,0
2.86,30.244,0
2.861,50.752,0
2.862,59.541,0
2.863,30.061,0
2.864,-13.335,0
2.865,-30.547,0
2.866,-35.674,0
2.867,-40.435,0
2.868,-36.223,0
2.869,-32.378,0
2.87,-28.899,0
2.871,-25.786,0
2.872,-16.997,0
2.873,-14.434,0
2.874,-12.053,0
2.875,-9.856,0
2.876,-3.814,0
2.877,-5.645,0
2.878,-3.997,0
2.879,0.398,0
2.88,4.426,0
2.881,5.525,0
2.882,2.229,0
2.883,5.158,0
2.884,4.243,0
2.885,4.975,0
2.886,7.173,0
2.887,5.342,0
2.888,4.792,0
2.889,4.243,0
2.89,7.539,0
2.891,7.173,0
2.892,4.426,0
2.893,1.863,0
2.894,6.623,0
2.895,8.454,0
2.896,5.708,0
2.897,4.426,0
2.898,4.792,0
2.899,8.637,0
2.9,2.046,0
2.901,2.961,0
2.902,-1.067,0
2.903,1.13,0
2.904,1.679,0
2.905,2.229,0
2.906,2.778,0
2.907,1.679,0
2.908,0.398,0
2.909,7.356,0
2.91,22.553,0
2.911,46.906,0
2.912,50.019,0
2.913,35.188,0
2.914,5.708,0
2.915,-21.758,0
2.916,-32.378,0
2.917,-35.491,0
2.918,-38.421,0
2.919,-30.547,0
2.92,-28.167,0
2.921,-21.575,0
2.922,-23.589,0
2.923,-14.434,0
2.924,-12.786,0
2.925,-8.391,0
2.926,-7.11,0
2.927,-6.011,0
2.928,-2.715,0
2.929,0.215,0
2.93,1.13,0
2.931,3.51,0
2.932,4.243,0
2.933,4.792,0
2.934,4.243,0
2.935,0.398,0
2.936,4.975,0
2.937,8.088,0
2.938,6.44,0
2.939,7.722,0
2.94,3.51,0
2.941,10.835,0
2.942,7.905,0
2.943,5.158,0
2.944,1.13,0
2.945,4.975,0
2.946,0.398,0
2.947,0.947,0
2.948,1.496,0
2.949,1.863,0
2.95,1.496,0
2.951,0.398,0
2.952,5.342,0
2.953,4.792,0
2.954,2.961,0
2.955,3.51,0
2.956,2.229,0
2.957,2.595,0
2.958,2.412,0
2.959,-3.814,0
2.96,10.102,0
2.961,20.173,0
2.962,43.977,0
2.963,53.498,0
2.964,56.428,0
2.965,21.455,0
2.966,-11.87,0
2.967,-33.477,0
2.968,-37.322,0
2.969,-33.843,0
2.97,-36.956,0
2.971,-28.167,0
2.972,-25.603,0
2.973,-18.462,0
2.974,-16.265,0
2.975,-10.222,0
2.976,-12.053,0
2.977,-7.11,0
2.978,-5.645,0
2.979,-4.363,0
2.98,-0.884,0
2.981,4.792,0
2.982,7.722,0
2.983,8.637,0
2.984,4.609,0
2.985,6.806,0
2.986,10.102,0
2.987,9.553,0
2.988,10.102,0
2.989,11.384,0
2.99,10.102,0
2.991,10.469,0
2.992,6.99,0
2.993,2.778,0
2.994,1.13,0
2.995,3.51,0
2.996,1.313,0
2.997,4.06,0
2.998,2.229,0
2.999,1.13,0
3,-0.884,0
3.001,2.229,0
3.002,0.215,0
3.003,2.778,0
3.004,0.947,0
3.005,2.412,0
3.006,6.074,0
3.007,4.792,0
3.008,1.679,0
3.009,-0.518,0
3.01,1.496,0
3.011,7.173,0
3.012,9.553,0
3.013,21.089,0
3.014,45.991,0
3.015,28.23,0
3.016,-1.067,0
3.017,-28.533,0
3.018,-32.012,0
3.019,-35.125,0
3.02,-32.195,0
3.021,-29.632,0
3.022,-22.49,0
3.023,-20.293,0
3.024,-14.251,0
3.025,-12.42,0
3.026,-10.772,0
3.027,-9.307,0
3.028,-5.279,0
3.029,-6.377,0
3.03,1.496,0
3.031,0.581,0
3.032,3.327,0
3.033,-0.701,0
3.034,3.144,0
3.035,1.313,0
3.036,4.426,0
3.037,6.074,0
3.038,6.44,0
3.039,10.652,0
3.04,10.102,0
3.041,11.384,0
3.042,7.173,0
3.043,7.722,0
3.044,2.229,0
3.045,0.031,0
3.046,3.327,0
3.047,2.778,0
3.048,4.426,0
3.049,5.708,0
3.05,2.595,0
3.051,0.581,0
3.052,1.679,0
3.053,4.975,0
3.054,0.398,0
3.055,3.51,0
3.056,0.764,0
3.057,-0.518,0
3.058,-0.152,0
3.059,-1.25,0
3.06,2.412,0
3.061,-1.8,0
3.062,-0.152,0
3.063,7.356,0
3.064,24.385,0
3.065,56.062,0
3.066,51.85,0
3.067,8.454,0
3.068,-20.293,0
3.069,-35.857,0
3.07,-31.096,0
3.071,-18.279,0
3.072,-6.56,0
3.073,-17.18,0
3.074,-20.293,0
3.075,-29.082,0
3.076,-21.209,0
3.077,-18.828,0
3.078,-12.237,0
3.079,-2.166,0
3.08,-0.335,0
3.081,4.609,0
3.082,15.046,0
3.083,19.074,0
3.084,20.173,0
3.085,23.469,0
3.086,22.553,0
3.087,21.638,0
3.088,19.258,0
3.089,18.525,0
3.09,16.694,0
3.091,8.454,0
3.092,-6.377,0
3.093,-12.42,0
3.094,-17.913,0
3.095,-29.448,0
3.096,-36.956,0
3.097,-32.927,0
3.098,-29.448,0
3.099,-16.997,0
3.1,-18.645,0
3.101,-23.04,0
3.102,-32.561,0
3.103,-43.731,0
3.104,-60.21,0
3.105,-80.169,0
3.106,-93.535,0
3.107,-105.62,0
3.108,-116.61,0
3.109,-122.65,0
3.11,-124.48,0
3.111,-122.1,0
3.112,-113.86,0
3.113,-97.381,0
3.114,-64.239,0
3.115,7.356,0
3.116,120.33,0
3.117,135.35,0
3.118,176.18,0
3.119,188.63,0
3.12,154.94,0
3.121,83.161,0
3.122,55.146,0
3.123,46.723,0
3.124,39.033,0
3.125,32.075,0
3.126,38.301,0
3.127,67.048,0
3.128,82.612,0
3.129,106.42,0
3.13,110.63,0
3.131,98.908,0
3.132,95.429,0
3.133,92.317,0
3.134,89.387,0
3.135,86.823,0
3.136,69.978,0
3.137,54.597,0
3.138,36.469,0
3.139,38.85,0
3.14,36.653,0
3.141,38.667,0
3.142,22.187,0
3.143,11.201,0
3.144,1.13,0
3.145,-4.363,0
3.146,-15.899,0
3.147,-26.336,0
3.148,-22.307,0
3.149,-30.73,0
3.15,-43.181,0
3.151,-44.829,0
3.152,-46.294,0
3.153,-45.012,0
3.154,-41.533,0
3.155,-44.829,0
3.156,-45.745,0
3.157,-48.491,0
3.158,-52.52,0
3.159,-53.252,0
3.16,-57.83,0
3.161,-59.661,0
3.162,-56.914,0
3.163,-56.365,0
3.164,-48.858,0
3.165,-38.604,0
3.166,-18.096,0
3.167,14.497,0
3.168,-7.11,0
3.169,-34.575,0
3.17,-52.337,0
3.171,-55.449,0
3.172,-52.52,0
3.173,-49.956,0
3.174,-42.815,0
3.175,-40.618,0
3.176,-38.604,0
3.177,-25.786,0
3.178,-20.843,0
3.179,-16.448,0
3.18,-12.42,0
3.181,-8.941,0
3.182,-3.264,0
3.183,-2.349,0
3.184,0.398,0
3.185,6.074,0
3.186,5.342,0
3.187,7.173,0
3.188,10.285,0
3.189,13.032,0
3.19,10.652,0
3.191,11.018,0
3.192,13.032,0
3.193,10.469,0
3.194,7.905,0
3.195,8.637,0
3.196,12.849,0
3.197,13.398,0
3.198,11.75,0
3.199,12.116,0
3.2,7.905,0
3.201,9.553,0
3.202,9.187,0
3.203,8.821,0
3.204,10.835,0
3.205,12.666,0
3.206,9.37,0
3.207,9.736,0
3.208,8.637,0
3.209,6.806,0
3.21,6.99,0
3.211,4.426,0
3.212,8.454,0
3.213,8.271,0
3.214,5.891,0
3.215,12.849,0
3.216,28.047,0
3.217,56.794,0
3.218,52.949,0
3.219,20.722,0
3.22,-9.49,0
3.221,-21.209,0
3.222,-24.688,0
3.223,-27.801,0
3.224,-19.011,0
3.225,-21.575,0
3.226,-14.434,0
3.227,-12.237,0
3.228,-10.222,0
3.229,-8.391,0
3.23,-6.743,0
3.231,-8.208,0
3.232,-1.433,0
3.233,-2.532,0
3.234,0.764,0
3.235,1.679,0
3.236,6.257,0
3.237,5.525,0
3.238,6.257,0
3.239,10.835,0
3.24,9.004,0
3.241,6.257,0
3.242,8.637,0
3.243,4.426,0
3.244,6.074,0
3.245,4.792,0
3.246,3.51,0
3.247,2.412,0
3.248,4.975,0
3.249,6.806,0
3.25,4.792,0
3.251,1.679,0
3.252,4.426,0
3.253,4.06,0
3.254,5.158,0
3.255,4.426,0
3.256,5.158,0
3.257,1.13,0
3.258,2.778,0
3.259,1.496,0
3.26,-1.616,0
3.261,1.13,0
3.262,2.229,0
3.263,-1.067,0
3.264,0.215,0
3.265,-1.8,0
3.266,3.877,0
3.267,16.328,0
3.268,43.794,0
3.269,47.639,0
3.27,22.737,0
3.271,-6.56,0
3.272,-18.279,0
3.273,-21.758,0
3.274,-31.28,0
3.275,-28.35,0
3.276,-25.786,0
3.277,-23.406,0
3.278,-21.209,0
3.279,-15.166,0
3.28,-13.335,0
3.281,-11.687,0
3.282,-7.293,0
3.283,-3.264,0
3.284,-4.363,0
3.285,-1.067,0
3.286,-0.152,0
3.287,6.257,0
3.288,3.877,0
3.289,4.609,0
3.29,5.158,0
3.291,9.553,0
3.292,6.806,0
3.293,3.51,0
3.294,5.708,0
3.295,1.863,0
3.296,4.243,0
3.297,2.046,0
3.298,2.412,0
3.299,5.891,0
3.3,2.778,0
3.301,1.679,0
3.302,2.046,0
3.303,3.144,0
3.304,2.412,0
3.305,3.144,0
3.306,2.412,0
3.307,2.961,0
3.308,1.496,0
3.309,-1.433,0
3.31,-1.8,0
3.311,-0.701,0
3.312,1.13,0
3.313,0.947,0
3.314,0.215,0
3.315,4.609,0
3.316,8.637,0
3.317,17.06,0
3.318,23.103,0
3.319,6.074,0
3.32,8.454,0
3.321,15.046,0
3.322,37.202,0
3.323,45.991,0
3.324,38.117,0
3.325,11.384,0
3.326,-27.984,0
3.327,-33.111,0
3.328,-47.393,0
3.329,-43.181,0
3.33,-39.336,0
3.331,-35.857,0
3.332,-32.744,0
3.333,-23.955,0
3.334,-21.392,0
3.335,-19.011,0
3.336,-8.025,0
3.337,-6.011,0
3.338,-0.518,0
3.339,-2.166,0
3.34,5.342,0
3.341,6.623,0
3.342,5.525,0
3.343,6.623,0
3.344,5.708,0
3.345,6.623,0
3.346,10.652,0
3.347,11.384,0
3.348,10.835,0
3.349,11.384,0
3.35,6.257,0
3.351,9.553,0
3.352,6.44,0
3.353,5.891,0
3.354,6.257,0
3.355,11.384,0
3.356,8.088,0
3.357,8.637,0
3.358,6.99,0
3.359,5.708,0
3.36,3.51,0
3.361,4.609,0
3.362,2.778,0
3.363,3.877,0
3.364,2.412,0
3.365,2.595,0
3.366,3.877,0
3.367,1.496,0
3.368,6.074,0
3.369,16.328,0
3.37,38.85,0
3.371,54.963,0
3.372,52.033,0
3.373,22.553,0
3.374,-4.912,0
3.375,-22.674,0
3.376,-38.787,0
3.377,-35.857,0
3.378,-33.294,0
3.379,-30.913,0
3.38,-28.716,0
3.381,-22.674,0
3.382,-20.843,0
3.383,-15.899,0
3.384,-11.504,0
3.385,-10.222,0
3.386,-4.18,0
3.387,-3.081,0
3.388,1.863,0
3.389,-0.884,0
3.39,3.144,0
3.391,5.342,0
3.392,2.046,0
3.393,5.158,0
3.394,9.004,0
3.395,4.426,0
3.396,6.257,0
3.397,6.806,0
3.398,9.187,0
3.399,4.975,0
3.4,3.327,0
3.401,3.694,0
3.402,4.975,0
3.403,3.877,0
3.404,4.243,0
3.405,4.609,0
3.406,6.074,0
3.407,6.257,0
3.408,3.877,0
3.409,1.863,0
3.41,2.595,0
3.411,1.863,0
3.412,-1.616,0
3.413,-0.335,0
3.414,0.031,0
3.415,2.778,0
3.416,2.412,0
3.417,0.947,0
3.418,2.046,0
3.419,4.792,0
3.42,10.469,0
3.421,22.92,0
3.422,46.723,0
3.423,37.202,0
3.424,22.37,0
3.425,-1.8,0
3.426,-31.096,0
3.427,-34.942,0
3.428,-38.421,0
3.429,-41.533,0
3.43,-32.744,0
3.431,-30.181,0
3.432,-23.04,0
3.433,-20.843,0
3.434,-18.828,0
3.435,-13.335,0
3.436,-8.391,0
3.437,-6.927,0
3.438,-0.152,0
3.439,-1.25,0
3.44,4.426,0
3.441,7.356,0
3.442,4.609,0
3.443,2.229,0
3.444,4.426,0
3.445,4.975,0
3.446,8.088,0
3.447,6.44,0
3.448,4.06,0
3.449,5.342,0
3.45,-0.152,0
3.451,2.046,0
3.452,6.623,0
3.453,4.792,0
3.454,6.44,0
3.455,5.158,0
3.456,8.271,0
3.457,9.37,0
3.458,8.271,0
3.459,3.51,0
3.46,0.398,0
3.461,0.947,0
3.462,-2.349,0
3.463,0.764,0
3.464,1.863,0
3.465,2.229,0
3.466,1.863,0
3.467,-2.166,0
3.468,-0.518,0
3.469,1.13,0
3.47,7.722,0
3.471,21.638,0
3.472,51.85,0
3.473,56.062,0
3.474,20.539,0
3.475,-3.264,0
3.476,-24.871,0
3.477,-28.716,0
3.478,-25.237,0
3.479,-28.35,0
3.48,-25.42,0
3.481,-22.857,0
3.482,-20.476,0
3.483,-18.279,0
3.484,-16.265,0
3.485,-10.772,0
3.486,-9.124,0
3.487,-4.729,0
3.488,-3.448,0
3.489,0.031,0
3.49,3.327,0
3.491,2.412,0
3.492,1.496,0
3.493,0.764,0
3.494,4.609,0
3.495,4.06,0
3.496,4.609,0
3.497,5.158,0
3.498,6.44,0
3.499,5.158,0
3.5,6.257,0
3.501,3.694,0
3.502,2.595,0
3.503,4.609,0
3.504,4.792,0
3.505,2.961,0
3.506,4.426,0
3.507,3.877,0
3.508,4.792,0
3.509,3.144,0
3.51,1.679,0
3.511,1.863,0
3.512,-0.884,0
3.513,-0.518,0
3.514,2.778,0
3.515,2.412,0
3.516,-0.152,0
3.517,-1.983,0
3.518,-1.8,0
3.519,-0.518,0
3.52,-0.335,0
3.521,3.694,0
3.522,12.116,0
3.523,30.61,0
3.524,49.287,0
3.525,56.428,0
3.526,27.68,0
3.527,-7.842,0
3.528,-31.646,0
3.529,-35.857,0
3.53,-39.702,0
3.531,-36.223,0
3.532,-33.111,0
3.533,-30.181,0
3.534,-27.617,0
3.535,-25.237,0
3.536,-14.251,0
3.537,-12.237,0
3.538,-10.406,0
3.539,-5.462,0
3.54,-1.067,0
3.541,0.215,0
3.542,3.694,0
3.543,2.595,0
3.544,1.679,0
3.545,4.426,0
3.546,3.694,0
3.547,9.004,0
3.548,8.454,0
3.549,10.285,0
3.55,6.44,0
3.551,6.074,0
3.552,7.356,0
3.553,5.342,0
3.554,9.553,0
3.555,7.905,0
3.556,9.187,0
3.557,9.553,0
3.558,9.919,0
3.559,4.243,0
3.56,3.51,0
3.561,2.778,0
3.562,7.356,0
3.563,16.877,0
3.564,20.906,0
3.565,2.412,0
3.566,-5.462,0
3.567,-12.603,0
3.568,-14.8,0
3.569,-8.758,0
3.57,-9.307,0
3.571,-7.476,0
3.572,-5.828,0
3.573,16.694,0
3.574,32.807,0
3.575,35.737,0
3.576,43.611,0
3.577,50.752,0
3.578,22.004,0
3.579,-13.518,0
3.58,-37.322,0
3.581,-41.533,0
3.582,-37.688,0
3.583,-41.167,0
3.584,-38.054,0
3.585,-29.265,0
3.586,-21.392,0
3.587,-19.011,0
3.588,-12.42,0
3.589,-10.406,0
3.59,-4.912,0
3.591,-3.264,0
3.592,-1.8,0
3.593,-0.518,0
3.594,0.581,0
3.595,1.679,0
3.596,8.637,0
3.597,5.891,0
3.598,6.623,0
3.599,5.891,0
3.6,6.44,0
3.601,5.891,0
3.602,8.637,0
3.603,9.004,0
3.604,8.637,0
3.605,9.736,0
3.606,10.835,0
3.607,9.736,0
3.608,12.483,0
3.609,6.806,0
3.61,7.539,0
3.611,8.271,0
3.612,2.046,0
3.613,2.778,0
3.614,3.51,0
3.615,2.961,0
3.616,4.792,0
3.617,4.243,0
3.618,1.863,0
3.619,4.06,0
3.62,0.215,0
3.621,2.412,0
3.622,0.031,0
3.623,6.99,0
3.624,22.187,0
3.625,55.329,0
3.626,50.569,0
3.627,46.357,0
3.628,18.891,0
3.629,-13.335,0
3.63,-34.942,0
3.631,-38.787,0
3.632,-42.266,0
3.633,-39.153,0
3.634,-36.223,0
3.635,-28.35,0
3.636,-25.969,0
3.637,-19.378,0
3.638,-13.335,0
3.639,-15.166,0
3.64,-10.222,0
3.641,-2.715,0
3.642,-1.433,0
3.643,-0.335,0
3.644,0.764,0
3.645,1.679,0
3.646,2.595,0
3.647,4.975,0
3.648,8.821,0
3.649,6.99,0
3.65,6.44,0
3.651,5.891,0
3.652,7.173,0
3.653,4.975,0
3.654,7.722,0
3.655,7.356,0
3.656,9.187,0
3.657,4.609,0
3.658,6.44,0
3.659,6.99,0
3.66,5.342,0
3.661,2.961,0
3.662,4.243,0
3.663,1.496,0
3.664,4.06,0
3.665,0.764,0
3.666,1.863,0
3.667,-1.616,0
3.668,2.595,0
3.669,-0.152,0
3.67,1.13,0
3.671,0.764,0
3.672,3.144,0
3.673,2.046,0
3.674,7.722,0
3.675,18.525,0
3.676,41.047,0
3.677,57.16,0
3.678,54.231,0
3.679,24.751,0
3.68,-10.772,0
3.681,-25.054,0
3.682,-29.265,0
3.683,-40.984,0
3.684,-37.505,0
3.685,-27.984,0
3.686,-25.054,0
3.687,-17.18,0
3.688,-14.8,0
3.689,-8.208,0
3.69,-10.222,0
3.691,-4.729,0
3.692,-6.377,0
3.693,-4.912,0
3.694,-3.631,0
3.695,-0.152,0
3.696,0.947,0
3.697,1.863,0
3.698,6.44,0
3.699,5.708,0
3.7,1.863,0
3.701,3.694,0
3.702,5.525,0
3.703,7.173,0
3.704,4.792,0
3.705,7.905,0
3.706,8.271,0
3.707,5.708,0
3.708,7.539,0
3.709,5.525,0
3.71,4.792,0
3.711,4.06,0
3.712,3.877,0
3.713,0.947,0
3.714,3.51,0
3.715,3.144,0
3.716,2.412,0
3.717,-0.701,0
3.718,3.877,0
3.719,4.426,0
3.72,2.778,0
3.721,2.412,0
3.722,4.609,0
3.723,3.877,0
3.724,1.13,0
3.725,6.806,0
3.726,15.962,0
3.727,34.455,0
3.728,53.132,0
3.729,31.159,0
3.73,-7.476,0
3.731,-23.04,0
3.732,-27.801,0
3.733,-32.012,0
3.734,-28.167,0
3.735,-31.646,0
3.736,-28.533,0
3.737,-25.603,0
3.738,-17.73,0
3.739,-10.589,0
3.74,-8.391,0
3.741,-6.377,0
3.742,-4.546,0
3.743,-6.194,0
3.744,-4.729,0
3.745,-0.701,0
3.746,0.398,0
3.747,1.496,0
3.748,4.426,0
3.749,1.679,0
3.75,2.412,0
3.751,4.609,0
3.752,2.778,0
3.753,5.891,0
3.754,4.243,0
3.755,5.525,0
3.756,5.891,0
3.757,5.525,0
3.758,6.623,0
3.759,2.595,0
3.76,1.313,0
3.761,0.947,0
3.762,2.961,0
3.763,3.327,0
3.764,5.158,0
3.765,4.426,0
3.766,3.694,0
3.767,0.215,0
3.768,1.496,0
3.769,1.863,0
3.77,3.694,0
3.771,3.327,0
3.772,2.595,0
3.773,3.327,0
3.774,-1.25,0
3.775,1.679,0
3.776,7.356,0
3.777,19.807,0
3.778,39.948,0
3.779,47.822,0
3.78,54.963,0
3.781,39.582,0
3.782,9.37,0
3.783,-29.632,0
3.784,-45.196,0
3.785,-40.435,0
3.786,-36.223,0
3.787,-40.069,0
3.788,-36.59,0
3.789,-27.068,0
3.79,-24.138,0
3.791,-21.575,0
3.792,-14.434,0
3.793,-12.237,0
3.794,-6.194,0
3.795,-4.363,0
3.796,0.581,0
3.797,2.046,0
3.798,3.327,0
3.799,6.806,0
3.8,5.708,0
3.801,2.778,0
3.802,5.525,0
3.803,3.144,0
3.804,5.342,0
3.805,4.792,0
3.806,6.623,0
3.807,7.173,0
3.808,14.68,0
3.809,31.709,0
3.81,19.624,0
3.811,4.243,0
3.812,-1.8,0
3.813,-7.293,0
3.814,-5.645,0
3.815,-7.11,0
3.816,-8.391,0
3.817,-4.912,0
3.818,-3.814,0
3.819,-0.884,0
3.82,0.031,0
3.821,-0.701,0
3.822,4.609,0
3.823,5.158,0
3.824,4.609,0
3.825,2.412,0
3.826,-1.433,0
3.827,6.074,0
3.828,16.328,0
3.829,34.089,0
3.83,36.469,0
3.831,38.667,0
3.832,36.653,0
3.833,38.484,0
3.834,36.836,0
3.835,14.314,0
3.836,-27.984,0
3.837,-45.196,0
3.838,-50.323,0
3.839,-45.562,0
3.84,-41.35,0
3.841,-37.505,0
3.842,-34.026,0
3.843,-30.913,0
3.844,-22.124,0
3.845,-14.251,0
3.846,-7.11,0
3.847,-0.518,0
3.848,-2.532,0
3.849,2.961,0
3.85,4.609,0
3.851,9.004,0
3.852,13.032,0
3.853,11.933,0
3.854,13.032,0
3.855,13.948,0
3.856,16.694,0
3.857,17.427,0
3.858,15.229,0
3.859,9.004,0
3.86,8.271,0
3.861,10.469,0
3.862,5.891,0
3.863,5.342,0
3.864,9.187,0
3.865,7.905,0
3.866,5.708,0
3.867,3.694,0
3.868,4.792,0
3.869,0.031,0
3.87,4.426,0
3.871,-0.701,0
3.872,6.806,0
3.873,5.891,0
3.874,4.975,0
3.875,-0.701,0
3.876,-0.518,0
3.877,1.679,0
3.878,10.652,0
3.879,21.821,0
3.88,38.301,0
3.881,58.259,0
3.882,44.892,0
3.883,8.454,0
3.884,-17.73,0
3.885,-32.012,0
3.886,-36.223,0
3.887,-40.069,0
3.888,-36.59,0
3.889,-27.068,0
3.89,-29.998,0
3.891,-22.124,0
3.892,-14.983,0
3.893,-12.786,0
3.894,-10.772,0
3.895,-5.279,0
3.896,-3.631,0
3.897,-5.095,0
3.898,1.679,0
3.899,2.778,0
3.9,8.454,0
3.901,7.539,0
3.902,4.792,0
3.903,4.06,0
3.904,6.257,0
3.905,9.553,0
3.906,10.102,0
3.907,8.454,0
3.908,7.173,0
3.909,4.06,0
3.91,2.046,0
3.911,4.609,0
3.912,3.51,0
3.913,2.778,0
3.914,4.06,0
3.915,3.327,0
3.916,3.877,0
3.917,0.947,0
3.918,2.778,0
3.919,0.947,0
3.92,2.961,0
3.921,3.144,0
3.922,3.327,0
3.923,0.215,0
3.924,2.229,0
3.925,-1.25,0
3.926,1.863,0
3.927,-4.18,0
3.928,2.046,0
3.929,12.3,0
3.93,19.074,0
3.931,37.568,0
3.932,61.738,0
3.933,32.441,0
3.934,-3.081,0
3.935,-17.364,0
3.936,-30.181,0
3.937,-34.026,0
3.938,-30.547,0
3.939,-33.66,0
3.94,-18.828,0
3.941,-16.265,0
3.942,-18.645,0
3.943,-12.053,0
3.944,-6.011,0
3.945,-0.518,0
3.946,7.722,0
3.947,9.187,0
3.948,13.215,0
3.949,21.638,0
3.95,20.539,0
3.951,27.497,0
3.952,28.413,0
3.953,27.68,0
3.954,26.948,0
3.955,25.117,0
3.956,19.441,0
3.957,18.708,0
3.958,11.201,0
3.959,-3.997,0
3.96,-14.983,0
3.961,-25.054,0
3.962,-34.209,0
3.963,-39.153,0
3.964,-34.759,0
3.965,-27.984,0
3.966,-16.814,0
3.967,-18.279,0
3.968,-33.294,0
3.969,-51.421,0
3.97,-68.267,0
3.971,-88.225,0
3.972,-106.9,0
3.973,-114.04,0
3.974,-111.85,0
3.975,-129.97,0
3.976,-146.82,0
3.977,-149.02,0
3.978,-137.48,0
3.979,-119.35,0
3.98,-92.62,0
3.981,-53.252,0
3.982,25.483,0
3.983,104.4,0
3.984,155.67,0
3.985,165.01,0
3.986,139.74,0
3.987,116.67,0
3.988,95.796,0
3.989,89.57,0
3.99,83.894,0
3.991,99.458,0
3.992,104.22,0
3.993,125.83,0
3.994,145.42,0
3.995,163.18,0
3.996,166.29,0
3.997,169.22,0
3.998,145.05,0
3.999,128.94,0
4,114.11,0
4.001,95.429,0
4.002,68.696,0
4.003,43.794,0
4.004,34.272,0
4.005,31.343,0
4.006,23.469,0
4.007,21.089,0
4.008,1.13,0
4.009,-6.743,0
4.01,-13.885,0
4.011,-20.476,0
4.012,-38.604,0
4.013,-36.223,0
4.014,-38.421,0
4.015,-48.491,0
4.016,-50.323,0
4.017,-55.266,0
4.018,-56.731,0
4.019,-58.013,0
4.02,-51.97,0
4.021,-57.647,0
4.022,-56.731,0
4.023,-57.647,0
4.024,-56.914,0
4.025,-62.224,0
4.026,-62.774,0
4.027,-65.886,0
4.028,-63.14,0
4.029,-59.844,0
4.03,-55.266,0
4.031,-52.154,0
4.032,-43.731,0
4.033,-25.237,0
4.034,9.736,0
4.035,4.975,0
4.036,-25.237,0
4.037,-44.829,0
4.038,-55.449,0
4.039,-52.337,0
4.04,-49.407,0
4.041,-46.844,0
4.042,-44.463,0
4.043,-37.871,0
4.044,-27.801,0
4.045,-25.969,0
4.046,-14.434,0
4.047,-12.969,0
4.048,-6.194,0
4.049,-5.095,0
4.05,0.581,0
4.051,3.51,0
4.052,6.257,0
4.053,5.525,0
4.054,17.06,0
4.055,38.667,0
4.056,29.878,0
4.057,16.511,0
4.058,9.37,0
4.059,2.778,0
4.06,4.792,0
4.061,-0.701,0
4.062,4.243,0
4.063,5.708,0
4.064,6.99,0
4.065,5.891,0
4.066,6.99,0
4.067,4.06,0
4.068,6.806,0
4.069,9.187,0
4.07,9.919,0
4.071,9.37,0
4.072,11.201,0
4.073,13.948,0
4.074,11.567,0
4.075,12.849,0
4.076,8.271,0
4.077,10.102,0
4.078,8.454,0
4.079,8.088,0
4.08,9.736,0
4.081,9.37,0
4.082,15.595,0
4.083,29.511,0
4.084,51.667,0
4.085,66.499,0
4.086,42.329,0
4.087,6.623,0
4.088,-17.18,0
4.089,-21.392,0
4.09,-25.237,0
4.091,-28.716,0
4.092,-25.603,0
4.093,-22.674,0
4.094,-25.237,0
4.095,-18.096,0
4.096,-11.504,0
4.097,-9.49,0
4.098,-3.997,0
4.099,-2.349,0
4.1,-3.814,0
4.101,-2.532,0
4.102,0.947,0
4.103,4.243,0
4.104,9.187,0
4.105,8.271,0
4.106,12.3,0
4.107,6.99,0
4.108,8.821,0
4.109,9.37,0
4.11,7.722,0
4.111,9.004,0
4.112,8.637,0
4.113,6.623,0
4.114,6.257,0
4.115,6.623,0
4.116,7.356,0
4.117,4.792,0
4.118,5.158,0
4.119,2.412,0
4.12,4.243,0
4.121,-0.518,0
4.122,1.313,0
4.123,4.06,0
4.124,3.694,0
4.125,0.581,0
4.126,3.327,0
4.127,-2.349,0
4.128,1.679,0
4.129,-0.518,0
4.13,2.778,0
4.131,1.679,0
4.132,4.792,0
4.133,8.637,0
4.134,16.145,0
4.135,33.174,0
4.136,59.907,0
4.137,49.287,0
4.138,13.581,0
4.139,-19.744,0
4.14,-23.955,0
4.141,-35.674,0
4.142,-32.195,0
4.143,-35.308,0
4.144,-32.378,0
4.145,-29.815,0
4.146,-22.674,0
4.147,-16.082,0
4.148,-14.068,0
4.149,-12.237,0
4.15,-10.589,0
4.151,-6.194,0
4.152,-4.912,0
4.153,-1.433,0
4.154,1.863,0
4.155,4.792,0
4.156,2.046,0
4.157,6.074,0
4.158,6.806,0
4.159,4.975,0
4.16,4.426,0
4.161,3.877,0
4.162,5.158,0
4.163,9.37,0
4.164,11.018,0
4.165,3.51,0
4.166,4.609,0
4.167,5.525,0
4.168,0.947,0
4.169,4.975,0
4.17,2.778,0
4.171,2.229,0
4.172,0.398,0
4.173,6.623,0
4.174,0.947,0
4.175,3.144,0
4.176,2.595,0
4.177,-3.081,0
4.178,-3.814,0
4.179,-0.518,0
4.18,-2.349,0
4.181,-1.8,0
4.182,0.947,0
4.183,0.581,0
4.184,7.539,0
4.185,22.737,0
4.186,55.879,0
4.187,51.118,0
4.188,38.301,0
4.189,34.455,0
4.19,37.934,0
4.191,28.413,0
4.192,-10.222,0
4.193,-36.406,0
4.194,-60.21,0
4.195,-55.999,0
4.196,-52.154,0
4.197,-48.675,0
4.198,-39.153,0
4.199,-36.223,0
4.2,-33.66,0
4.201,-21.575,0
4.202,-19.378,0
4.203,-9.307,0
4.204,-3.814,0
4.205,-2.166,0
4.206,2.229,0
4.207,6.257,0
4.208,7.356,0
4.209,6.257,0
4.21,11.201,0
4.211,10.285,0
4.212,9.553,0
4.213,11.75,0
4.214,11.201,0
4.215,11.75,0
4.216,10.102,0
4.217,8.821,0
4.218,6.623,0
4.219,8.637,0
4.22,9.004,0
4.221,9.37,0
4.222,12.116,0
4.223,11.018,0
4.224,9.919,0
4.225,9.187,0
4.226,6.623,0
4.227,4.06,0
4.228,5.525,0
4.229,5.342,0
4.23,2.961,0
4.231,0.947,0
4.232,5.158,0
4.233,-1.25,0
4.234,0.581,0
4.235,9.004,0
4.236,20.173,0
4.237,42.695,0
4.238,45.808,0
4.239,42.878,0
4.24,40.315,0
4.241,33.174,0
4.242,13.215,0
4.243,-21.758,0
4.244,-45.562,0
4.245,-49.773,0
4.246,-45.928,0
4.247,-42.449,0
4.248,-39.336,0
4.249,-36.406,0
4.25,-33.843,0
4.251,-26.702,0
4.252,-20.11,0
4.253,-14.068,0
4.254,-8.574,0
4.255,-3.631,0
4.256,-2.166,0
4.257,1.863,0
4.258,5.342,0
4.259,2.046,0
4.26,2.961,0
4.261,3.877,0
4.262,7.905,0
4.263,7.173,0
4.264,10.469,0
4.265,9.919,0
4.266,7.173,0
4.267,7.539,0
4.268,4.426,0
4.269,8.271,0
4.27,10.652,0
4.271,12.849,0
4.272,10.102,0
4.273,12.666,0
4.274,7.173,0
4.275,7.905,0
4.276,3.327,0
4.277,2.778,0
4.278,4.426,0
4.279,-0.152,0
4.28,4.243,0
4.281,2.595,0
4.282,2.961,0
4.283,3.327,0
4.284,1.679,0
4.285,-1.067,0
4.286,-2.166,0
4.287,3.327,0
4.288,14.863,0
4.289,39.765,0
4.29,43.244,0
4.291,46.357,0
4.292,37.568,0
4.293,29.695,0
4.294,-1.983,0
4.295,-32.195,0
4.296,-51.787,0
4.297,-55.266,0
4.298,-52.154,0
4.299,-43.365,0
4.3,-19.195,0
4.301,-3.081,0
4.302,-23.772,0
4.303,-26.336,0
4.304,-23.955,0
4.305,-21.758,0
4.306,-15.716,0
4.307,-10.222,0
4.308,-8.574,0
4.309,1.863,0
4.31,16.877,0
4.311,47.09,0
4.312,51.301,0
4.313,23.835,0
4.314,-8.391,0
4.315,-12.603,0
4.316,-16.448,0
4.317,-19.927,0
4.318,-16.814,0
4.319,-13.885,0
4.32,-6.011,0
4.321,-3.631,0
4.322,-1.433,0
4.323,0.581,0
4.324,2.412,0
4.325,4.06,0
4.326,2.595,0
4.327,3.877,0
4.328,7.356,0
4.329,8.454,0
4.33,5.525,0
4.331,8.271,0
4.332,9.004,0
4.333,6.806,0
4.334,6.257,0
4.335,5.342,0
4.336,11.018,0
4.337,22.553,0
4.338,30.793,0
4.339,53.315,0
4.34,62.837,0
4.341,59.907,0
4.342,24.934,0
4.343,-8.391,0
4.344,-29.998,0
4.345,-33.843,0
4.346,-30.364,0
4.347,-33.477,0
4.348,-24.688,0
4.349,-22.124,0
4.35,-19.744,0
4.351,-17.547,0
4.352,-15.532,0
4.353,-10.039,0
4.354,-1.8,0
4.355,-3.264,0
4.356,0.764,0
4.357,4.243,0
4.358,5.342,0
4.359,6.257,0
4.36,3.51,0
4.361,4.243,0
4.362,3.51,0
4.363,8.088,0
4.364,3.694,0
4.365,3.144,0
4.366,5.525,0
4.367,2.412,0
4.368,2.778,0
4.369,2.412,0
4.37,3.51,0
4.371,3.327,0
4.372,5.158,0
4.373,1.13,0
4.374,3.877,0
4.375,2.595,0
4.376,1.313,0
4.377,0.947,0
4.378,2.778,0
4.379,6.806,0
4.38,-0.701,0
4.381,0.398,0
4.382,3.327,0
4.383,-1.25,0
4.384,-1.983,0
4.385,0.215,0
4.386,0.947,0
4.387,1.496,0
4.388,9.736,0
4.389,6.44,0
4.39,21.638,0
4.391,54.78,0
4.392,30.976,0
4.393,0.764,0
4.394,-18.828,0
4.395,-29.448,0
4.396,-32.561,0
4.397,-29.632,0
4.398,-32.195,0
4.399,-25.054,0
4.4,-22.857,0
4.401,-20.843,0
4.402,-15.349,0
4.403,-13.701,0
4.404,-9.307,0
4.405,-2.532,0
4.406,-1.433,0
4.407,1.863,0
4.408,0.947,0
4.409,0.031,0
4.41,-3.997,0
4.411,-0.152,0
4.412,4.426,0
4.413,4.975,0
4.414,3.327,0
4.415,6.623,0
4.416,2.412,0
4.417,2.961,0
4.418,6.257,0
4.419,8.454,0
4.42,3.877,0
4.421,4.426,0
4.422,7.173,0
4.423,8.454,0
4.424,6.257,0
4.425,6.623,0
4.426,4.06,0
4.427,0.031,0
4.428,0.398,0
4.429,1.679,0
4.43,-4.546,0
4.431,0.031,0
4.432,-2.349,0
4.433,-1.616,0
4.434,0.215,0
4.435,0.764,0
4.436,3.51,0
4.437,0.947,0
4.438,3.327,0
4.439,10.285,0
4.44,25.483,0
4.441,40.864,0
4.442,42.878,0
4.443,52.033,0
4.444,40.498,0
4.445,17.976,0
4.446,-24.322,0
4.447,-29.998,0
4.448,-35.125,0
4.449,-39.885,0
4.45,-35.674,0
4.451,-31.829,0
4.452,-28.35,0
4.453,-18.828,0
4.454,-15.899,0
4.455,-13.335,0
4.456,-10.955,0
4.457,-4.363,0
4.458,-2.349,0
4.459,-4.18,0
4.46,-2.532,0
4.461,-1.067,0
4.462,2.961,0
4.463,4.06,0
4.464,2.961,0
4.465,3.877,0
4.466,10.285,0
4.467,7.905,0
4.468,7.173,0
4.469,7.722,0
4.47,7.173,0
4.471,8.821,0
4.472,9.187,0
4.473,4.06,0
4.474,10.285,0
4.475,4.609,0
4.476,5.342,0
4.477,3.51,0
4.478,4.06,0
4.479,4.609,0
4.48,-0.884,0
4.481,6.074,0
4.482,1.496,0
4.483,-0.884,0
4.484,1.313,0
4.485,-0.518,0
4.486,1.313,0
4.487,2.961,0
4.488,1.679,0
4.489,2.046,0
4.49,9.004,0
4.491,24.201,0
4.492,35.188,0
4.493,45.259,0
4.494,50.752,0
4.495,25.849,0
4.496,-6.377,0
4.497,-27.984,0
4.498,-39.702,0
4.499,-36.223,0
4.5,-39.336,0
4.501,-36.406,0
4.502,-33.843,0
4.503,-26.702,0
4.504,-15.716,0
4.505,-13.701,0
4.506,-11.87,0
4.507,-6.927,0
4.508,-5.462,0
4.509,-4.18,0
4.51,-0.701,0
4.511,0.398,0
4.512,3.327,0
4.513,6.074,0
4.514,6.806,0
4.515,9.004,0
4.516,5.708,0
4.517,7.539,0
4.518,3.694,0
4.519,6.99,0
4.52,3.877,0
4.521,6.623,0
4.522,5.525,0
4.523,7.356,0
4.524,8.821,0
4.525,5.158,0
4.526,1.863,0
4.527,4.975,0
4.528,5.342,0
4.529,3.51,0
4.53,4.609,0
4.531,1.863,0
4.532,2.229,0
4.533,-0.335,0
4.534,2.412,0
4.535,-0.152,0
4.536,3.144,0
4.537,2.046,0
4.538,3.877,0
4.539,-1.25,0
4.54,2.778,0
4.541,5.158,0
4.542,2.961,0
4.543,-1.616,0
4.544,-1.067,0
4.545,7.356,0
4.546,25.849,0
4.547,23.286,0
4.548,1.313,0
4.549,-1.616,0
4.55,17.06,0
4.551,24.201,0
4.552,39.582,0
4.553,33.54,0
4.554,6.074,0
4.555,-21.392,0
4.556,-39.153,0
4.557,-36.04,0
4.558,-38.97,0
4.559,-41.533,0
4.56,-34.392,0
4.561,-27.801,0
4.562,-21.758,0
4.563,-19.927,0
4.564,-14.983,0
4.565,-10.589,0
4.566,-6.56,0
4.567,-5.462,0
4.568,-2.166,0
4.569,0.764,0
4.57,5.342,0
4.571,11.018,0
4.572,10.285,0
4.573,8.454,0
4.574,9.004,0
4.575,5.158,0
4.576,4.792,0
4.577,5.158,0
4.578,7.173,0
4.579,8.271,0
4.58,9.37,0
4.581,9.553,0
4.582,6.99,0
4.583,7.356,0
4.584,2.778,0
4.585,4.609,0
4.586,5.158,0
4.587,3.51,0
4.588,3.144,0
4.589,5.342,0
4.59,6.074,0
4.591,4.975,0
4.592,10.652,0
4.593,23.103,0
4.594,43.244,0
4.595,61.921,0
4.596,49.836,0
4.597,16.694,0
4.598,-16.631,0
4.599,-29.448,0
4.6,-33.294,0
4.601,-36.773,0
4.602,-27.251,0
4.603,-24.322,0
4.604,-21.758,0
4.605,-19.378,0
4.606,-12.786,0
4.607,-14.8,0
4.608,-9.307,0
4.609,-7.659,0
4.61,-6.194,0
4.611,-2.166,0
4.612,-1.067,0
4.613,-2.166,0
4.614,2.778,0
4.615,3.694,0
4.616,2.961,0
4.617,2.229,0
4.618,5.525,0
4.619,4.975,0
4.62,6.623,0
4.621,4.243,0
4.622,5.525,0
4.623,5.891,0
4.624,8.454,0
4.625,7.356,0
4.626,4.06,0
4.627,2.778,0
4.628,2.412,0
4.629,5.891,0
4.63,1.679,0
4.631,1.13,0
4.632,5.708,0
4.633,-2.532,0
4.634,-1.433,0
4.635,-2.349,0
4.636,2.229,0
4.637,6.257,0
4.638,5.525,0
4.639,4.975,0
4.64,1.863,0
4.641,4.609,0
4.642,1.863,0
4.643,9.37,0
4.644,17.243,0
4.645,32.441,0
4.646,56.794,0
4.647,34.272,0
4.648,-4.363,0
4.649,-19.927,0
4.65,-34.209,0
4.651,-29.998,0
4.652,-33.843,0
4.653,-30.364,0
4.654,-27.251,0
4.655,-18.462,0
4.656,-21.026,0
4.657,-13.885,0
4.658,-7.293,0
4.659,-5.279,0
4.66,-10.772,0
4.661,-5.828,0
4.662,-1.433,0
4.663,-0.152,0
4.664,0.947,0
4.665,2.046,0
4.666,6.99,0
4.667,6.074,0
4.668,8.454,0
4.669,4.609,0
4.67,5.158,0
4.671,5.708,0
4.672,7.356,0
4.673,8.637,0
4.674,9.004,0
4.675,4.426,0
4.676,4.975,0
4.677,2.229,0
4.678,1.863,0
4.679,4.06,0
4.68,-2.166,0
4.681,2.412,0
4.682,3.144,0
4.683,0.947,0
4.684,-0.884,0
4.685,2.229,0
4.686,2.778,0
4.687,4.06,0
4.688,3.694,0
4.689,4.792,0
4.69,2.961,0
4.691,2.595,0
4.692,3.877,0
4.693,-0.701,0
4.694,-3.997,0
4.695,5.525,0
4.696,26.032,0
4.697,46.723,0
4.698,54.597,0
4.699,27.864,0
4.7,-4.363,0
4.701,-25.969,0
4.702,-37.688,0
4.703,-41.167,0
4.704,-38.054,0
4.705,-35.125,0
4.706,-27.251,0
4.707,-24.871,0
4.708,-18.279,0
4.709,-20.293,0
4.71,-14.8,0
4.711,-13.152,0
4.712,-5.645,0
4.713,-4.363,0
4.714,-3.264,0
4.715,-4.363,0
4.716,-3.448,0
4.717,-2.532,0
4.718,3.144,0
4.719,8.454,0
4.72,10.285,0
4.721,12.116,0
4.722,15.962,0
4.723,12.666,0
4.724,12.3,0
4.725,8.454,0
4.726,5.158,0
4.727,9.37,0
4.728,7.722,0
4.729,5.342,0
4.73,4.975,0
4.731,6.99,0
4.732,3.51,0
4.733,7.722,0
4.734,3.877,0
4.735,3.51,0
4.736,3.877,0
4.737,5.891,0
4.738,2.412,0
4.739,6.623,0
4.74,3.877,0
4.741,7.173,0
4.742,2.961,0
4.743,3.144,0
4.744,1.496,0
4.745,9.004,0
4.746,26.032,0
4.747,38.117,0
4.748,49.104,0
4.749,59.175,0
4.75,31.709,0
4.751,-11.687,0
4.752,-28.899,0
4.753,-44.463,0
4.754,-39.702,0
4.755,-43.914,0
4.756,-32.195,0
4.757,-28.716,0
4.758,-25.603,0
4.759,-22.674,0
4.76,-20.11,0
4.761,-17.73,0
4.762,-6.743,0
4.763,-4.729,0
4.764,-2.898,0
4.765,-4.546,0
4.766,-3.081,0
4.767,-1.8,0
4.768,1.679,0
4.769,4.975,0
4.77,5.891,0
4.771,10.469,0
4.772,6.44,0
4.773,7.173,0
4.774,9.004,0
4.775,5.891,0
4.776,6.44,0
4.777,6.074,0
4.778,4.792,0
4.779,4.426,0
4.78,6.99,0
4.781,7.356,0
4.782,7.539,0
4.783,3.327,0
4.784,1.496,0
4.785,5.342,0
4.786,2.961,0
4.787,4.243,0
4.788,3.877,0
4.789,1.313,0
4.79,3.877,0
4.791,8.454,0
4.792,18.708,0
4.793,17.243,0
4.794,1.679,0
4.795,-5.095,0
4.796,-11.138,0
4.797,-12.237,0
4.798,2.961,0
4.799,22.92,0
4.8,30.793,0
4.801,47.639,0
4.802,41.047,0
4.803,10.835,0
4.804,-28.167,0
4.805,-43.731,0
4.806,-38.97,0
4.807,-43.181,0
4.808,-39.336,0
4.809,-35.857,0
4.81,-26.336,0
4.811,-23.406,0
4.812,-20.843,0
4.813,-13.701,0
4.814,-11.504,0
4.815,-5.462,0
4.816,-3.631,0
4.817,-1.983,0
4.818,-0.518,0
4.819,3.51,0
4.82,6.99,0
4.821,8.088,0
4.822,11.018,0
4.823,11.933,0
4.824,12.666,0
4.825,10.469,0
4.826,8.637,0
4.827,10.469,0
4.828,13.215,0
4.829,12.849,0
4.83,11.567,0
4.831,12.666,0
4.832,17.61,0
4.833,14.314,0
4.834,19.99,0
4.835,22.187,0
4.836,26.765,0
4.837,28.596,0
4.838,31.343,0
4.839,23.835,0
4.84,20.539,0
4.841,21.455,0
4.842,15.046,0
4.843,11.018,0
4.844,2.595,0
4.845,-5.645,0
4.846,-18.096,0
4.847,-9.856,0
4.848,-8.391,0
4.849,12.116,0
4.85,20.906,0
4.851,23.469,0
4.852,6.623,0
4.853,-26.519,0
4.854,-69.549,0
4.855,-86.76,0
4.856,-112.94,0
4.857,-127.23,0
4.858,-148.83,0
4.859,-144.99,0
4.86,-141.51,0
4.861,-151.03,0
4.862,-159.82,0
4.863,-151.95,0
4.864,-144.81,0
4.865,-133.82,0
4.866,-115.69,0
4.867,-84.014,0
4.868,-19.011,0
4.869,46.357,0
4.87,122.71,0
4.871,153.47,0
4.872,162.81,0
4.873,137.54,0
4.874,129.85,0
4.875,122.89,0
4.876,116.67,0
4.877,122.35,0
4.878,148.53,0
4.879,153.29,0
4.88,174.9,0
4.881,186.62,0
4.882,176,0
4.883,166.47,0
4.884,145.78,0
4.885,132.42,0
4.886,115.57,0
4.887,91.218,0
4.888,68.696,0
4.889,41.963,0
4.89,31.343,0
4.891,21.821,0
4.892,18.891,0
4.893,11.018,0
4.894,-5.828,0
4.895,-12.42,0
4.896,-17.364,0
4.897,-23.406,0
4.898,-28.899,0
4.899,-7.293,0
4.9,1.496,0
4.901,9.37,0
4.902,-7.476,0
4.903,-40.618,0
4.904,-73.943,0
4.905,-86.76,0
4.906,-90.606,0
4.907,-87.127,0
4.908,-90.24,0
4.909,-93.169,0
4.91,-90.606,0
4.911,-92.986,0
4.912,-82,0
4.913,-79.986,0
4.914,-74.492,0
4.915,-69.549,0
4.916,-62.041,0
4.917,-58.013,0
4.918,-49.59,0
4.919,-41.717,0
4.92,-34.759,0
4.921,-32.012,0
4.922,-29.632,0
4.923,-19.561,0
4.924,-18.279,0
4.925,-17.18,0
4.926,-13.885,0
4.927,-10.955,0
4.928,-6.377,0
4.929,-3.997,0
4.93,-0.152,0
4.931,0.398,0
4.932,2.229,0
4.933,2.778,0
4.934,4.06,0
4.935,6.257,0
4.936,5.158,0
4.937,6.99,0
4.938,6.623,0
4.939,8.637,0
4.94,11.75,0
4.941,13.764,0
4.942,8.821,0
4.943,8.271,0
4.944,5.158,0
4.945,7.905,0
4.946,6.623,0
4.947,9.004,0
4.948,9.37,0
4.949,15.595,0
4.95,29.511,0
4.951,47.639,0
4.952,54.78,0
4.953,52.583,0
4.954,30.427,0
4.955,3.694,0
4.956,-21.209,0
4.957,-30.73,0
4.958,-33.66,0
4.959,-31.096,0
4.96,-28.716,0
4.961,-26.519,0
4.962,-24.505,0
4.963,-15.349,0
4.964,-10.406,0
4.965,-8.941,0
4.966,-2.166,0
4.967,-5.645,0
4.968,0.031,0
4.969,-2.898,0
4.97,5.525,0
4.971,11.201,0
4.972,10.285,0
4.973,13.032,0
4.974,10.652,0
4.975,9.919,0
4.976,13.215,0
4.977,10.102,0
4.978,9.553,0
4.979,8.271,0
4.98,12.483,0
4.981,8.637,0
4.982,9.919,0
4.983,7.722,0
4.984,5.708,0
4.985,8.271,0
4.986,6.44,0
4.987,9.736,0
4.988,7.539,0
4.989,5.525,0
4.99,5.158,0
4.991,6.99,0
4.992,3.694,0
4.993,2.412,0
4.994,4.426,0
4.995,0.947,0
4.996,-0.335,0
4.997,1.679,0
4.998,1.679,0
4.999,4.243,0
5,3.877,0
5.001,8.454,0
5.002,18.708,0
5.003,41.23,0
5.004,50.752,0
5.005,35.92,0
5.006,28.047,0
5.007,25.666,0
5.008,23.469,0
5.009,9.37,0
5.01,-3.448,0
5.011,-28.35,0
5.012,-53.252,0
5.013,-56.365,0
5.014,-59.295,0
5.015,-56.731,0
5.016,-49.59,0
5.017,-42.998,0
5.018,-32.927,0
5.019,-27.434,0
5.02,-19.195,0
5.021,-14.8,0
5.022,-5.279,0
5.023,-6.377,0
5.024,1.496,0
5.025,4.426,0
5.026,9.004,0
5.027,8.271,0
5.028,7.539,0
5.029,9.37,0
5.03,18.891,0
5.031,17.61,0
5.032,14.131,0
5.033,13.032,0
5.034,12.116,0
5.035,9.37,0
5.036,10.102,0
5.037,21.638,0
5.038,36.653,0
5.039,26.582,0
5.04,13.764,0
5.041,2.229,0
5.042,-2.166,0
5.043,-6.194,0
5.044,-5.095,0
5.045,-3.997,0
5.046,-3.081,0
5.047,-5.828,0
5.048,-5.095,0
5.049,0.947,0
5.05,-4.363,0
5.051,5.891,0
5.052,25.483,0
5.053,44.16,0
5.054,46.54,0
5.055,53.132,0
5.056,26.948,0
5.057,2.046,0
5.058,-27.251,0
5.059,-38.97,0
5.06,-42.449,0
5.061,-39.336,0
5.062,-36.406,0
5.063,-33.843,0
5.064,-26.702,0
5.065,-24.505,0
5.066,-18.462,0
5.067,-16.631,0
5.068,-11.687,0
5.069,-4.18,0
5.07,-5.462,0
5.071,-1.983,0
5.072,5.891,0
5.073,6.806,0
5.074,5.891,0
5.075,5.158,0
5.076,5.891,0
5.077,6.44,0
5.078,8.271,0
5.079,4.426,0
5.08,6.806,0
5.081,8.088,0
5.082,9.187,0
5.083,7.356,0
5.084,4.06,0
5.085,8.637,0
5.086,5.525,0
5.087,7.173,0
5.088,7.539,0
5.089,8.821,0
5.09,9.187,0
5.091,8.821,0
5.092,4.06,0
5.093,2.229,0
5.094,2.778,0
5.095,0.398,0
5.096,3.51,0
5.097,3.144,0
5.098,2.046,0
5.099,0.215,0
5.1,-4.912,0
5.101,-2.166,0
5.102,-2.532,0
5.103,2.961,0
5.104,14.497,0
5.105,39.399,0
5.106,28.779,0
5.107,-6.927,0
5.108,-21.209,0
5.109,-34.026,0
5.11,-30.181,0
5.111,-33.66,0
5.112,-30.547,0
5.113,-21.758,0
5.114,-13.885,0
5.115,-16.265,0
5.116,-14.068,0
5.117,-8.025,0
5.118,-9.856,0
5.119,-1.616,0
5.12,-3.081,0
5.121,-1.8,0
5.122,1.679,0
5.123,4.975,0
5.124,5.891,0
5.125,3.144,0
5.126,3.877,0
5.127,3.144,0
5.128,4.975,0
5.129,1.863,0
5.13,2.412,0
5.131,6.99,0
5.132,8.821,0
5.133,2.595,0
5.134,3.327,0
5.135,1.13,0
5.136,2.961,0
5.137,3.51,0
5.138,6.257,0
5.139,4.975,0
5.14,6.257,0
5.141,7.356,0
5.142,1.679,0
5.143,2.412,0
5.144,3.144,0
5.145,2.595,0
5.146,0.764,0
5.147,-0.884,0
5.148,0.398,0
5.149,0.031,0
5.15,-0.335,0
5.151,-0.518,0
5.152,-1.616,0
5.153,3.877,0
5.154,15.412,0
5.155,37.019,0
5.156,34.089,0
5.157,47.456,0
5.158,49.836,0
5.159,21.089,0
5.16,-14.434,0
5.161,-38.238,0
5.162,-42.449,0
5.163,-46.294,0
5.164,-35.674,0
5.165,-38.787,0
5.166,-29.998,0
5.167,-27.434,0
5.168,-25.054,0
5.169,-18.462,0
5.17,-8.391,0
5.171,-6.56,0
5.172,-4.912,0
5.173,-0.518,0
5.174,3.51,0
5.175,6.99,0
5.176,1.313,0
5.177,0.398,0
5.178,4.975,0
5.179,4.243,0
5.18,4.975,0
5.181,4.426,0
5.182,6.257,0
5.183,4.609,0
5.184,7.905,0
5.185,4.792,0
5.186,8.637,0
5.187,8.271,0
5.188,8.637,0
5.189,7.539,0
5.19,10.102,0
5.191,6.806,0
5.192,7.905,0
5.193,5.342,0
5.194,2.778,0
5.195,5.525,0
5.196,2.961,0
5.197,4.06,0
5.198,3.327,0
5.199,0.764,0
5.2,-0.335,0
5.201,-0.518,0
5.202,5.342,0
5.203,3.51,0
5.204,7.539,0
5.205,15.962,0
5.206,32.075,0
5.207,52.033,0
5.208,54.597,0
5.209,27.864,0
5.21,-18.645,0
5.211,-37.505,0
5.212,-43.181,0
5.213,-38.054,0
5.214,-33.294,0
5.215,-37.505,0
5.216,-33.66,0
5.217,-30.181,0
5.218,-20.659,0
5.219,-17.73,0
5.22,-9.856,0
5.221,-7.476,0
5.222,-0.884,0
5.223,-2.898,0
5.224,-1.067,0
5.225,0.581,0
5.226,2.046,0
5.227,3.327,0
5.228,2.229,0
5.229,5.525,0
5.23,2.595,0
5.231,3.51,0
5.232,4.243,0
5.233,6.44,0
5.234,5.891,0
5.235,2.778,0
5.236,5.525,0
5.237,5.158,0
5.238,8.271,0
5.239,6.257,0
5.24,6.623,0
5.241,6.257,0
5.242,4.243,0
5.243,1.679,0
5.244,-0.152,0
5.245,1.863,0
5.246,0.031,0
5.247,1.863,0
5.248,1.679,0
5.249,-0.701,0
5.25,-0.518,0
5.251,-3.631,0
5.252,1.863,0
5.253,1.679,0
5.254,0.947,0
5.255,11.201,0
5.256,30.793,0
5.257,60.273,0
5.258,56.428,0
5.259,24.201,0
5.26,-14.8,0
5.261,-30.364,0
5.262,-35.125,0
5.263,-30.913,0
5.264,-27.068,0
5.265,-23.589,0
5.266,-20.476,0
5.267,-17.547,0
5.268,-14.983,0
5.269,-12.603,0
5.27,-6.011,0
5.271,-3.997,0
5.272,-2.166,0
5.273,-0.518,0
5.274,0.947,0
5.275,2.229,0
5.276,1.13,0
5.277,2.229,0
5.278,3.144,0
5.279,4.06,0
5.28,1.679,0
5.281,5.525,0
5.282,7.356,0
5.283,16.877,0
5.284,31.892,0
5.285,13.764,0
5.286,1.679,0
5.287,-4.912,0
5.288,-6.927,0
5.289,-8.758,0
5.29,-7.11,0
5.291,-2.715,0
5.292,-3.997,0
5.293,-7.476,0
5.294,0.398,0
5.295,-2.532,0
5.296,0.215,0
5.297,0.947,0
5.298,1.679,0
5.299,1.13,0
5.3,0.581,0
5.301,2.229,0
5.302,2.595,0
5.303,2.229,0
5.304,0.947,0
5.305,2.046,0
5.306,7.722,0
5.307,20.173,0
5.308,40.315,0
5.309,42.878,0
5.31,54.963,0
5.311,30.61,0
5.312,1.313,0
5.313,-26.153,0
5.314,-36.773,0
5.315,-39.885,0
5.316,-36.956,0
5.317,-39.519,0
5.318,-37.139,0
5.319,-26.153,0
5.32,-24.138,0
5.321,-14.983,0
5.322,-10.039,0
5.323,-5.645,0
5.324,-4.363,0
5.325,-0.884,0
5.326,-1.983,0
5.327,2.961,0
5.328,2.046,0
5.329,4.426,0
5.33,8.271,0
5.331,10.102,0
5.332,8.271,0
5.333,6.623,0
5.334,7.905,0
5.335,5.708,0
5.336,8.454,0
5.337,3.51,0
5.338,8.088,0
5.339,8.637,0
5.34,4.792,0
5.341,5.158,0
5.342,6.44,0
5.343,5.342,0
5.344,2.778,0
5.345,1.679,0
5.346,2.412,0
5.347,0.581,0
5.348,2.961,0
5.349,-1.067,0
5.35,2.778,0
5.351,-2.715,0
5.352,-0.518,0
5.353,1.313,0
5.354,0.764,0
5.355,3.877,0
5.356,4.426,0
5.357,5.708,0
5.358,9.919,0
5.359,18.342,0
5.36,36.836,0
5.361,34.272,0
5.362,-2.166,0
5.363,-17.73,0
5.364,-32.012,0
5.365,-27.801,0
5.366,-31.646,0
5.367,-28.167,0
5.368,-25.054,0
5.369,-16.265,0
5.37,-18.828,0
5.371,-11.687,0
5.372,-13.885,0
5.373,-7.842,0
5.374,-2.349,0
5.375,-3.997,0
5.376,-5.462,0
5.377,-1.433,0
5.378,2.046,0
5.379,3.144,0
5.38,2.229,0
5.381,4.975,0
5.382,4.243,0
5.383,3.51,0
5.384,2.961,0
5.385,3.51,0
5.386,4.06,0
5.387,5.342,0
5.388,5.708,0
5.389,5.342,0
5.39,7.905,0
5.391,4.609,0
5.392,1.863,0
5.393,1.496,0
5.394,3.327,0
5.395,5.342,0
5.396,4.609,0
5.397,1.13,0
5.398,-0.152,0
5.399,0.947,0
5.4,-1.616,0
5.401,-1.983,0
5.402,-1.25,0
5.403,-1.067,0
5.404,1.863,0
5.405,0.764,0
5.406,2.412,0
5.407,4.243,0
5.408,6.257,0
5.409,10.469,0
5.41,19.99,0
5.411,40.498,0
5.412,49.287,0
5.413,25.117,0
5.414,-10.589,0
5.415,-24.871,0
5.416,-37.688,0
5.417,-41.533,0
5.418,-38.054,0
5.419,-28.533,0
5.42,-25.603,0
5.421,-23.04,0
5.422,-20.659,0
5.423,-14.068,0
5.424,-8.025,0
5.425,-9.856,0
5.426,-8.208,0
5.427,-0.701,0
5.428,-1.983,0
5.429,1.496,0
5.43,0.398,0
5.431,5.342,0
5.432,2.595,0
5.433,3.327,0
5.434,4.06,0
5.435,5.891,0
5.436,6.44,0
5.437,5.891,0
5.438,5.525,0
5.439,8.637,0
5.44,9.004,0
5.441,5.525,0
5.442,4.243,0
5.443,1.496,0
5.444,5.708,0
5.445,4.06,0
5.446,4.426,0
5.447,3.144,0
5.448,4.243,0
5.449,3.144,0
5.45,1.313,0
5.451,1.13,0
5.452,1.863,0
5.453,-1.067,0
5.454,4.609,0
5.455,0.581,0
5.456,-0.152,0
5.457,2.412,0
5.458,4.243,0
5.459,13.764,0
5.46,20.539,0
5.461,36.653,0
5.462,38.85,0
5.463,36.836,0
5.464,35.005,0
5.465,26.765,0
5.466,7.173,0
5.467,-16.997,0
5.468,-39.519,0
5.469,-48.308,0
5.47,-50.872,0
5.471,-43.731,0
5.472,-41.533,0
5.473,-35.491,0
5.474,-29.998,0
5.475,-25.054,0
5.476,-20.659,0
5.477,-13.885,0
5.478,-10.406,0
5.479,-4.729,0
5.48,0.215,0
5.481,4.792,0
5.482,5.525,0
5.483,0.215,0
5.484,6.44,0
5.485,8.821,0
5.486,8.088,0
5.487,11.384,0
5.488,6.99,0
5.489,10.835,0
5.49,10.469,0
5.491,14.68,0
5.492,6.257,0
5.493,7.356,0
5.494,6.257,0
5.495,5.342,0
5.496,6.257,0
5.497,3.877,0
5.498,9.187,0
5.499,8.637,0
5.5,5.525,0
5.501,0.398,0
5.502,2.229,0
5.503,2.778,0
5.504,1.13,0
5.505,3.51,0
5.506,3.877,0
5.507,1.863,0
5.508,3.877,0
5.509,1.313,0
5.51,6.806,0
5.511,18.342,0
5.512,43.244,0
5.513,53.865,0
5.514,50.752,0
5.515,12.116,0
5.516,-14.068,0
5.517,-28.35,0
5.518,-32.561,0
5.519,-36.406,0
5.52,-32.927,0
5.521,-29.815,0
5.522,-26.885,0
5.523,-24.322,0
5.524,-17.18,0
5.525,-14.983,0
5.526,-12.969,0
5.527,-7.476,0
5.528,7.539,0
5.529,25.666,0
5.53,28.047,0
5.531,12.666,0
5.532,-5.462,0
5.533,-7.842,0
5.534,-5.645,0
5.535,-7.659,0
5.536,-5.828,0
5.537,-7.476,0
5.538,0.031,0
5.539,1.313,0
5.54,4.792,0
5.541,1.496,0
5.542,-1.433,0
5.543,-2.349,0
5.544,1.679,0
5.545,3.877,0
5.546,2.046,0
5.547,5.158,0
5.548,3.51,0
5.549,5.891,0
5.55,4.609,0
5.551,2.595,0
5.552,3.694,0
5.553,2.595,0
5.554,2.412,0
5.555,4.243,0
5.556,2.412,0
5.557,0.947,0
5.558,1.13,0
5.559,-1.25,0
5.56,1.679,0
5.561,7.905,0
5.562,21.821,0
5.563,48.005,0
5.564,58.625,0
5.565,36.103,0
5.566,3.51,0
5.567,-18.096,0
5.568,-37.688,0
5.569,-34.209,0
5.57,-37.322,0
5.571,-28.533,0
5.572,-20.659,0
5.573,-23.04,0
5.574,-20.843,0
5.575,-14.8,0
5.576,-16.631,0
5.577,-11.687,0
5.578,-7.293,0
5.579,-3.264,0
5.58,-2.166,0
5.581,3.51,0
5.582,4.426,0
5.583,5.342,0
5.584,6.074,0
5.585,8.271,0
5.586,7.722,0
5.587,7.173,0
5.588,8.821,0
5.589,8.454,0
5.59,11.567,0
5.591,10.469,0
5.592,4.792,0
5.593,2.412,0
5.594,3.144,0
5.595,7.722,0
5.596,9.553,0
5.597,7.905,0
5.598,6.623,0
5.599,6.257,0
5.6,3.51,0
5.601,3.877,0
5.602,4.243,0
5.603,4.426,0
5.604,2.595,0
5.605,1.863,0
5.606,3.327,0
5.607,0.031,0
5.608,0.398,0
5.609,-2.349,0
5.61,-2.715,0
5.611,-5.279,0
5.612,0.215,0
5.613,11.75,0
5.614,36.653,0
5.615,54.414,0
5.616,51.301,0
5.617,18.708,0
5.618,-11.504,0
5.619,-31.096,0
5.62,-34.575,0
5.621,-37.688,0
5.622,-28.899,0
5.623,-31.463,0
5.624,-29.082,0
5.625,-26.885,0
5.626,-20.843,0
5.627,-15.349,0
5.628,-13.701,0
5.629,-6.194,0
5.63,-2.166,0
5.631,-5.645,0
5.632,-2.349,0
5.633,-3.264,0
5.634,-2.349,0
5.635,1.679,0
5.636,6.99,0
5.637,5.158,0
5.638,5.708,0
5.639,8.454,0
5.64,7.173,0
5.641,8.454,0
5.642,5.708,0
5.643,3.144,0
5.644,4.243,0
5.645,4.426,0
5.646,1.863,0
5.647,2.961,0
5.648,3.144,0
5.649,3.877,0
5.65,4.609,0
5.651,6.806,0
5.652,5.525,0
5.653,6.257,0
5.654,2.778,0
5.655,4.06,0
5.656,2.778,0
5.657,3.144,0
5.658,2.046,0
5.659,-1.25,0
5.66,4.243,0
5.661,2.412,0
5.662,0.215,0
5.663,10.469,0
5.664,26.948,0
5.665,42.329,0
5.666,44.343,0
5.667,49.836,0
5.668,24.934,0
5.669,-7.293,0
5.67,-28.899,0
5.671,-40.618,0
5.672,-37.139,0
5.673,-40.252,0
5.674,-31.463,0
5.675,-28.899,0
5.676,-31.28,0
5.677,-24.688,0
5.678,-14.617,0
5.679,-12.786,0
5.68,-7.842,0
5.681,-3.448,0
5.682,-2.166,0
5.683,-3.264,0
5.684,-4.363,0
5.685,0.581,0
5.686,3.327,0
5.687,7.356,0
5.688,8.088,0
5.689,14.314,0
5.69,16.694,0
5.691,17.427,0
5.692,20.722,0
5.693,25.117,0
5.694,28.962,0
5.695,28.596,0
5.696,32.807,0
5.697,31.159,0
5.698,27.864,0
5.699,27.497,0
5.7,21.272,0
5.701,12.849,0
5.702,13.948,0
5.703,2.778,0
5.704,-7.659,0
5.705,-14.434,0
5.706,-22.857,0
5.707,-33.111,0
5.708,-37.139,0
5.709,-36.04,0
5.71,-30.364,0
5.711,-19.195,0
5.712,-18.828,0
5.713,-29.265,0
5.714,-27.984,0
5.715,-24.505,0
5.716,-27.801,0
5.717,-40.984,0
5.718,-68.45,0
5.719,-119.72,0
5.72,-140.59,0
5.721,-146.82,0
5.722,-164.03,0
5.723,-148.47,0
5.724,-143.71,0
5.725,-130.89,0
5.726,-95.366,0
5.727,-23.772,0
5.728,68.696,0
5.729,130.95,0
5.73,142.12,0
5.731,131.87,0
5.732,122.53,0
5.733,97.26,0
5.734,89.57,0
5.735,96.528,0
5.736,90.302,0
5.737,95.979,0
5.738,101.11,0
5.739,124.91,0
5.74,129.12,0
5.741,140.84,0
5.742,130.22,0
5.743,120.7,0
5.744,111.91,0
5.745,104.03,0
5.746,101.66,0
5.747,90.669,0
5.748,68.513,0
5.749,47.822,0
5.75,34.455,0
5.751,27.314,0
5.752,33.906,0
5.753,23.835,0
5.754,14.68,0
5.755,-0.335,0
5.756,-6.377,0
5.757,-15.532,0
5.758,-30.547,0
5.759,-36.59,0
5.76,-34.759,0
5.761,-42.998,0
5.762,-50.506,0
5.763,-53.252,0
5.764,-46.477,0
5.765,-49.956,0
5.766,-48.858,0
5.767,-51.787,0
5.768,-50.872,0
5.769,-53.252,0
5.77,-58.562,0
5.771,-55.266,0
5.772,-53.435,0
5.773,-57.281,0
5.774,-49.773,0
5.775,-32.744,0
5.776,-30.364,0
5.777,-45.745,0
5.778,-39.702,0
5.779,-19.561,0
5.78,-6.194,0
5.781,15.779,0
5.782,0.947,0
5.783,-28.533,0
5.784,-55.999,0
5.785,-59.478,0
5.786,-62.591,0
5.787,-59.661,0
5.788,-51.787,0
5.789,-39.702,0
5.79,-33.111,0
5.791,-23.04,0
5.792,-24.871,0
5.793,-19.927,0
5.794,-9.49,0
5.795,-5.462,0
5.796,0.581,0
5.797,1.679,0
5.798,6.623,0
5.799,9.37,0
5.8,6.99,0
5.801,10.835,0
5.802,12.666,0
5.803,13.215,0
5.804,17.06,0
5.805,17.427,0
5.806,18.708,0
5.807,18.342,0
5.808,20.173,0
5.809,18.342,0
5.81,14.314,0
5.811,15.962,0
5.812,13.581,0
5.813,12.3,0
5.814,13.398,0
5.815,8.821,0
5.816,18.342,0
5.817,30.61,0
5.818,48.921,0
5.819,56.062,0
5.82,71.443,0
5.821,41.23,0
5.822,2.229,0
5.823,-23.955,0
5.824,-28.716,0
5.825,-32.927,0
5.826,-36.773,0
5.827,-33.294,0
5.828,-23.772,0
5.829,-20.843,0
5.83,-12.969,0
5.831,-10.589,0
5.832,-3.997,0
5.833,-6.011,0
5.834,-0.518,0
5.835,1.13,0
5.836,5.525,0
5.837,1.496,0
5.838,7.539,0
5.839,8.637,0
5.84,11.567,0
5.841,14.314,0
5.842,5.158,0
5.843,6.257,0
5.844,9.553,0
5.845,8.637,0
5.846,5.891,0
5.847,6.623,0
5.848,5.891,0
5.849,9.187,0
5.85,6.074,0
5.851,7.722,0
5.852,5.342,0
5.853,5.708,0
5.854,6.074,0
5.855,7.905,0
5.856,5.342,0
5.857,7.356,0
5.858,4.792,0
5.859,4.426,0
5.86,2.412,0
5.861,0.581,0
5.862,2.412,0
5.863,-1.067,0
5.864,1.313,0
5.865,1.679,0
5.866,2.046,0
5.867,0.031,0
5.868,5.708,0
5.869,18.159,0
5.87,45.625,0
5.871,57.344,0
5.872,32.441,0
5.873,-9.856,0
5.874,-27.068,0
5.875,-32.195,0
5.876,-36.956,0
5.877,-41.167,0
5.878,-37.322,0
5.879,-26.702,0
5.88,-23.589,0
5.881,-20.659,0
5.882,-12.786,0
5.883,-10.406,0
5.884,-12.603,0
5.885,-10.589,0
5.886,-1.433,0
5.887,-3.081,0
5.888,1.313,0
5.889,2.595,0
5.89,1.496,0
5.891,4.792,0
5.892,1.863,0
5.893,4.609,0
5.894,5.342,0
5.895,6.074,0
5.896,5.525,0
5.897,7.356,0
5.898,7.905,0
5.899,6.623,0
5.9,3.51,0
5.901,3.877,0
5.902,4.243,0
5.903,9.004,0
5.904,7.173,0
5.905,6.623,0
5.906,4.243,0
5.907,5.525,0
5.908,3.51,0
5.909,0.947,0
5.91,3.51,0
5.911,1.496,0
5.912,0.764,0
5.913,0.947,0
5.914,0.398,0
5.915,0.947,0
5.916,-1.25,0
5.917,-3.448,0
5.918,0.764,0
5.919,10.285,0
5.92,30.793,0
5.921,39.582,0
5.922,37.019,0
5.923,5.342,0
5.924,-16.265,0
5.925,-35.857,0
5.926,-32.378,0
5.927,-35.491,0
5.928,-32.561,0
5.929,-29.998,0
5.93,-22.857,0
5.931,-25.054,0
5.932,-14.983,0
5.933,-13.152,0
5.934,-8.208,0
5.935,-9.673,0
5.936,-5.645,0
5.937,-4.546,0
5.938,1.13,0
5.939,2.046,0
5.94,8.454,0
5.941,6.074,0
5.942,2.229,0
5.943,1.679,0
5.944,3.51,0
5.945,6.257,0
5.946,5.891,0
5.947,10.102,0
5.948,8.454,0
5.949,6.074,0
5.95,2.961,0
5.951,3.327,0
5.952,2.229,0
5.953,5.525,0
5.954,5.158,0
5.955,3.327,0
5.956,0.764,0
5.957,5.342,0
5.958,2.046,0
5.959,0.215,0
5.96,-1.433,0
5.961,-0.152,0
5.962,2.961,0
5.963,2.595,0
5.964,3.694,0
5.965,3.327,0
5.966,1.863,0
5.967,-1.25,0
5.968,1.863,0
5.969,8.088,0
5.97,22.004,0
5.971,44.16,0
5.972,35.371,0
5.973,43.244,0
5.974,31.159,0
5.975,24.568,0
5.976,18.525,0
5.977,13.032,0
5.978,8.088,0
5.979,0.581,0
5.98,-6.194,0
5.981,-0.152,0
5.982,7.722,0
5.983,-7.476,0
5.984,-40.618,0
5.985,-64.422,0
5.986,-68.633,0
5.987,-56.914,0
5.988,-53.435,0
5.989,-43.914,0
5.99,-35.125,0
5.991,-27.251,0
5.992,-24.871,0
5.993,-13.885,0
5.994,-3.814,0
5.995,-1.983,0
5.996,6.257,0
5.997,7.722,0
5.998,9.004,0
5.999,15.046,0
6,13.948,0
6.001,14.863,0
6.002,15.779,0
6.003,16.511,0
6.004,18.708,0
6.005,19.258,0
6.006,16.145,0
6.007,17.793,0
6.008,17.427,0
6.009,20.539,0
6.01,14.314,0
6.011,13.398,0
6.012,11.018,0
6.013,14.863,0
6.014,7.356,0
6.015,10.285,0
6.016,9.37,0
6.017,5.342,0
6.018,6.806,0
6.019,7.539,0
6.02,17.793,0
6.021,25.3,0
6.022,21.272,0
6.023,5.158,0
6.024,16.145,0
6.025,30.244,0
6.026,39.399,0
6.027,47.639,0
6.028,25.117,0
6.029,-17.18,0
6.03,-34.392,0
6.031,-39.519,0
6.032,-44.28,0
6.033,-48.491,0
6.034,-44.646,0
6.035,-34.026,0
6.036,-24.505,0
6.037,-21.575,0
6.038,-19.011,0
6.039,-11.87,0
6.04,-9.673,0
6.041,-7.659,0
6.042,1.496,0
6.043,3.144,0
6.044,1.679,0
6.045,2.961,0
6.046,6.44,0
6.047,7.539,0
6.048,8.454,0
6.049,7.539,0
6.05,8.271,0
6.051,9.004,0
6.052,7.173,0
6.053,5.342,0
6.054,6.99,0
6.055,9.37,0
6.056,9.004,0
6.057,9.37,0
6.058,8.271,0
6.059,7.173,0
6.06,3.144,0
6.061,4.792,0
6.062,1.496,0
6.063,4.609,0
6.064,1.863,0
6.065,2.961,0
6.066,3.327,0
6.067,0.031,0
6.068,1.313,0
6.069,3.144,0
6.07,2.046,0
6.071,7.722,0
6.072,20.173,0
6.073,47.639,0
6.074,59.358,0
6.075,19.99,0
6.076,-16.631,0
6.077,-30.913,0
6.078,-26.702,0
6.079,-30.547,0
6.08,-27.068,0
6.081,-23.955,0
6.082,-21.026,0
6.083,-23.589,0
6.084,-21.209,0
6.085,-19.011,0
6.086,-12.969,0
6.087,-7.476,0
6.088,-5.828,0
6.089,1.679,0
6.09,0.398,0
6.091,3.877,0
6.092,0.581,0
6.093,-0.335,0
6.094,4.243,0
6.095,1.863,0
6.096,4.06,0
6.097,5.891,0
6.098,6.44,0
6.099,4.792,0
6.1,1.496,0
6.101,4.609,0
6.102,3.51,0
6.103,4.609,0
6.104,4.975,0
6.105,4.243,0
6.106,6.806,0
6.107,3.51,0
6.108,3.144,0
6.109,4.243,0
6.11,0.947,0
6.111,1.313,0
6.112,-0.518,0
6.113,2.046,0
6.114,1.313,0
6.115,2.595,0
6.116,0.215,0
6.117,-1.25,0
6.118,-4.363,0
6.119,-0.518,0
6.12,-0.518,0
6.121,1.863,0
6.122,8.821,0
6.123,15.779,0
6.124,29.695,0
6.125,39.765,0
6.126,34.272,0
6.127,29.328,0
6.128,24.934,0
6.129,15.412,0
6.13,18.891,0
6.131,19.99,0
6.132,4.792,0
6.133,-28.35,0
6.134,-61.675,0
6.135,-57.464,0
6.136,-53.618,0
6.137,-50.139,0
6.138,-47.027,0
6.139,-38.238,0
6.14,-30.364,0
6.141,-18.279,0
6.142,-16.082,0
6.143,-10.039,0
6.144,-4.546,0
6.145,0.398,0
6.146,4.792,0
6.147,6.074,0
6.148,9.553,0
6.149,15.229,0
6.15,10.285,0
6.151,13.032,0
6.152,15.412,0
6.153,14.68,0
6.154,12.849,0
6.155,14.68,0
6.156,13.032,0
6.157,15.412,0
6.158,15.046,0
6.159,11.201,0
6.16,7.905,0
6.161,3.694,0
6.162,6.44,0
6.163,8.821,0
6.164,8.454,0
6.165,6.44,0
6.166,1.496,0
6.167,-0.335,0
6.168,2.778,0
6.169,6.623,0
6.17,4.243,0
6.171,6.074,0
6.172,2.961,0
6.173,9.187,0
6.174,23.103,0
6.175,41.23,0
6.176,43.611,0
6.177,37.019,0
6.178,22.92,0
6.179,-0.884,0
6.18,-30.181,0
6.181,-41.9,0
6.182,-38.421,0
6.183,-41.533,0
6.184,-38.604,0
6.185,-30.73,0
6.186,-28.35,0
6.187,-26.153,0
6.188,-16.082,0
6.189,-10.589,0
6.19,-8.941,0
6.191,-7.476,0
6.192,-0.701,0
6.193,2.778,0
6.194,-0.518,0
6.195,0.398,0
6.196,1.313,0
6.197,3.694,0
6.198,7.539,0
6.199,5.708,0
6.2,2.595,0
6.201,2.046,0
6.202,5.342,0
6.203,4.06,0
6.204,10.285,0
6.205,9.37,0
6.206,6.99,0
6.207,7.722,0
6.208,7.173,0
6.209,6.623,0
6.21,2.778,0
6.211,1.496,0
6.212,2.778,0
6.213,1.679,0
6.214,3.51,0
6.215,5.342,0
6.216,2.595,0
6.217,-1.616,0
6.218,-4.363,0
6.219,3.144,0
6.22,2.046,0
6.221,-0.884,0
6.222,0.947,0
6.223,1.863,0
6.224,14.314,0
6.225,23.469,0
6.226,41.78,0
6.227,53.865,0
6.228,29.511,0
6.229,0.215,0
6.23,-19.378,0
6.231,-29.998,0
6.232,-33.111,0
6.233,-36.04,0
6.234,-33.477,0
6.235,-26.336,0
6.236,-24.138,0
6.237,-22.124,0
6.238,-16.631,0
6.239,-8.391,0
6.24,-6.927,0
6.241,-2.898,0
6.242,-1.8,0
6.243,-5.095,0
6.244,-2.166,0
6.245,-3.081,0
6.246,0.947,0
6.247,4.792,0
6.248,2.961,0
6.249,4.792,0
6.25,6.44,0
6.251,5.158,0
6.252,4.792,0
6.253,7.539,0
6.254,4.975,0
6.255,6.806,0
6.256,9.553,0
6.257,6.99,0
6.258,5.891,0
6.259,3.877,0
6.26,2.595,0
6.261,1.863,0
6.262,3.327,0
6.263,0.031,0
6.264,2.229,0
6.265,2.595,0
6.266,8.271,0
6.267,20.722,0
6.268,7.905,0
6.269,-3.631,0
6.27,-5.095,0
6.271,-6.377,0
6.272,-7.476,0
6.273,-9.307,0
6.274,-6.011,0
6.275,9.187,0
6.276,15.779,0
6.277,33.906,0
6.278,36.286,0
6.279,38.484,0
6.28,44.526,0
6.281,31.709,0
6.282,6.806,0
6.283,-32.561,0
6.284,-48.125,0
6.285,-43.365,0
6.286,-47.576,0
6.287,-35.857,0
6.288,-32.378,0
6.289,-29.265,0
6.29,-20.476,0
6.291,-17.913,0
6.292,-20.293,0
6.293,-13.701,0
6.294,-3.631,0
6.295,-1.8,0
6.296,3.144,0
6.297,4.609,0
6.298,5.891,0
6.299,6.99,0
6.3,3.694,0
6.301,4.609,0
6.302,7.356,0
6.303,11.384,0
6.304,9.187,0
6.305,9.736,0
6.306,12.849,0
6.307,11.201,0
6.308,10.835,0
6.309,12.116,0
6.31,6.623,0
6.311,5.891,0
6.312,6.44,0
6.313,6.99,0
6.314,7.539,0
6.315,4.243,0
6.316,2.961,0
6.317,2.595,0
6.318,2.961,0
6.319,4.06,0
6.32,0.031,0
6.321,2.778,0
6.322,4.06,0
6.323,0.947,0
6.324,0.947,0
6.325,2.046,0
6.326,7.722,0
6.327,20.173,0
6.328,40.315,0
6.329,48.188,0
6.33,41.047,0
6.331,25.666,0
6.332,-0.518,0
6.333,-25.42,0
6.334,-41.533,0
6.335,-38.604,0
6.336,-36.04,0
6.337,-38.421,0
6.338,-31.829,0
6.339,-25.786,0
6.34,-23.955,0
6.341,-19.011,0
6.342,-17.547,0
6.343,-13.518,0
6.344,-7.476,0
6.345,-6.377,0
6.346,2.778,0
6.347,1.679,0
6.348,0.581,0
6.349,3.51,0
6.35,2.595,0
6.351,1.863,0
6.352,4.06,0
6.353,4.609,0
6.354,9.004,0
6.355,9.553,0
6.356,8.271,0
6.357,10.469,0
6.358,9.37,0
6.359,5.158,0
6.36,9.004,0
6.361,3.51,0
6.362,2.778,0
6.363,2.229,0
6.364,0.398,0
6.365,0.947,0
6.366,-0.335,0
6.367,-1.616,0
6.368,-0.518,0
6.369,2.046,0
6.37,2.412,0
6.371,4.426,0
6.372,7.539,0
6.373,5.525,0
6.374,5.891,0
6.375,1.679,0
6.376,0.581,0
6.377,5.158,0
6.378,15.412,0
6.379,37.934,0
6.38,60.456,0
6.381,33.723,0
6.382,8.821,0
6.383,-20.476,0
6.384,-24.322,0
6.385,-34.942,0
6.386,-25.42,0
6.387,-22.49,0
6.388,-19.927,0
6.389,-17.547,0
6.39,-15.349,0
6.391,-9.307,0
6.392,-7.476,0
6.393,-5.828,0
6.394,-4.363,0
6.395,-3.081,0
6.396,-4.18,0
6.397,-3.081,0
6.398,-3.997,0
6.399,2.412,0
6.4,0.031,0
6.401,-0.701,0
6.402,5.525,0
6.403,4.792,0
6.404,6.99,0
6.405,3.694,0
6.406,4.243,0
6.407,2.595,0
6.408,2.229,0
6.409,1.863,0
6.41,2.229,0
6.411,3.327,0
6.412,3.694,0
6.413,1.679,0
6.414,0.947,0
6.415,-0.335,0
6.416,-1.8,0
6.417,-4.18,0
6.418,0.398,0
6.419,-0.152,0
6.42,4.243,0
6.421,1.496,0
6.422,1.863,0
6.423,0.581,0
6.424,0.215,0
6.425,2.778,0
6.426,-1.983,0
6.427,-1.616,0
6.428,2.961,0
6.429,13.215,0
6.43,35.737,0
6.431,58.259,0
6.432,55.329,0
6.433,15.046,0
6.434,-13.701,0
6.435,-29.265,0
6.436,-34.026,0
6.437,-29.815,0
6.438,-25.969,0
6.439,-29.448,0
6.44,-19.927,0
6.441,-16.997,0
6.442,-19.561,0
6.443,-12.42,0
6.444,-14.617,0
6.445,-8.574,0
6.446,-6.743,0
6.447,-1.8,0
6.448,-3.264,0
6.449,0.764,0
6.45,1.863,0
6.451,0.764,0
6.452,5.708,0
6.453,6.623,0
6.454,5.891,0
6.455,5.158,0
6.456,9.736,0
6.457,6.623,0
6.458,7.173,0
6.459,4.792,0
6.46,6.99,0
6.461,4.243,0
6.462,6.806,0
6.463,3.51,0
6.464,6.257,0
6.465,5.158,0
6.466,5.525,0
6.467,5.342,0
6.468,2.229,0
6.469,0.215,0
6.47,4.426,0
6.471,4.975,0
6.472,4.609,0
6.473,4.975,0
6.474,2.961,0
6.475,0.398,0
6.476,-0.701,0
6.477,-1.983,0
6.478,-0.518,0
6.479,3.694,0
6.48,13.215,0
6.481,33.723,0
6.482,54.414,0
6.483,56.977,0
6.484,40.132,0
6.485,11.384,0
6.486,-8.208,0
6.487,-11.687,0
6.488,-8.574,0
6.489,-11.504,0
6.49,-8.941,0
6.491,-11.321,0
6.492,-13.518,0
6.493,-11.504,0
6.494,-9.673,0
6.495,-17.913,0
6.496,-28.35,0
6.497,-32.378,0
6.498,-35.857,0
6.499,-41.533,0
6.5,-44.463,0
6.501,-36.04,0
6.502,-21.209,0
6.503,-19.195,0
6.504,-21.026,0
6.505,-39.336,0
6.506,-51.421,0
6.507,-62.407,0
6.508,-92.62,0
6.509,-105.44,0
6.51,-109.28,0
6.511,-105.8,0
6.512,-108.92,0
6.513,-105.99,0
6.514,-130.16,0
6.515,-127.04,0
6.516,-118.25,0
6.517,-104.89,0
6.518,-68.45,0
6.519,10.285,0
6.52,89.204,0
6.521,140.47,0
6.522,149.81,0
6.523,141.39,0
6.524,133.7,0
6.525,112.82,0
6.526,106.6,0
6.527,112.28,0
6.528,99.092,0
6.529,114.66,0
6.53,147.98,0
6.531,178.19,0
6.532,189.91,0
6.533,193.39,0
6.534,183.87,0
6.535,163.18,0
6.536,144.5,0
6.537,132.42,0
6.538,108.06,0
6.539,85.542,0
6.54,46.906,0
6.541,-0.335,0
6.542,-32.012,0
6.543,-49.224,0
6.544,-44.097,0
6.545,-48.858,0
6.546,-53.069,0
6.547,-56.914,0
6.548,-60.393,0
6.549,-63.506,0
6.55,-60.576,0
6.551,-52.703,0
6.552,-55.083,0
6.553,-61.675,0
6.554,-55.633,0
6.555,-50.139,0
6.556,-45.196,0
6.557,-49.59,0
6.558,-45.562,0
6.559,-46.66,0
6.56,-49.956,0
6.561,-47.027,0
6.562,-49.773,0
6.563,-55.449,0
6.564,-47.027,0
6.565,-50.323,0
6.566,-47.393,0
6.567,-46.477,0
6.568,-40.801,0
6.569,-36.956,0
6.57,-30.73,0
6.571,-28.35,0
6.572,-23.04,0
6.573,-19.744,0
6.574,-19.195,0
6.575,-17.547,0
6.576,-14.251,0
6.577,-12.969,0
6.578,-9.124,0
6.579,-8.574,0
6.58,-7.293,0
6.581,-0.335,0
6.582,14.863,0
6.583,34.822,0
6.584,42.695,0
6.585,35.554,0
6.586,20.173,0
6.587,-1.983,0
6.588,-22.674,0
6.589,-30.547,0
6.59,-32.927,0
6.591,-30.73,0
6.592,-28.716,0
6.593,-23.223,0
6.594,-21.575,0
6.595,-17.18,0
6.596,-13.152,0
6.597,-9.673,0
6.598,-1.8,0
6.599,3.144,0
6.6,0.398,0
6.601,6.074,0
6.602,9.919,0
6.603,11.75,0
6.604,12.3,0
6.605,13.948,0
6.606,15.229,0
6.607,17.427,0
6.608,16.328,0
6.609,11.384,0
6.61,10.835,0
6.611,10.285,0
6.612,9.736,0
6.613,13.032,0
6.614,15.229,0
6.615,10.652,0
6.616,6.257,0
6.617,5.708,0
6.618,6.99,0
6.619,9.187,0
6.62,6.44,0
6.621,6.074,0
6.622,10.102,0
6.623,11.384,0
6.624,10.102,0
6.625,7.356,0
6.626,8.454,0
6.627,6.623,0
6.628,3.327,0
6.629,4.609,0
6.63,0.215,0
6.631,2.961,0
6.632,8.637,0
6.633,21.089,0
6.634,48.554,0
6.635,52.4,0
6.636,27.497,0
6.637,-1.8,0
6.638,-13.518,0
6.639,-24.138,0
6.64,-27.251,0
6.641,-24.322,0
6.642,-26.885,0
6.643,-19.744,0
6.644,-17.547,0
6.645,-15.532,0
6.646,-13.701,0
6.647,-8.758,0
6.648,-7.293,0
6.649,-6.011,0
6.65,-4.912,0
6.651,-1.616,0
6.652,-0.701,0
6.653,2.046,0
6.654,2.778,0
6.655,6.623,0
6.656,6.074,0
6.657,7.905,0
6.658,9.553,0
6.659,6.257,0
6.66,5.891,0
6.661,1.313,0
6.662,3.144,0
6.663,3.694,0
6.664,6.074,0
6.665,0.031,0
6.666,0.764,0
6.667,-1.433,0
6.668,-0.884,0
6.669,2.229,0
6.67,4.975,0
6.671,2.595,0
6.672,3.877,0
6.673,1.13,0
6.674,4.609,0
6.675,2.412,0
6.676,2.778,0
6.677,2.412,0
6.678,2.778,0
6.679,0.764,0
6.68,4.975,0
6.681,3.144,0
6.682,2.595,0
6.683,11.018,0
6.684,19.441,0
6.685,36.469,0
6.686,58.442,0
6.687,43.611,0
6.688,8.637,0
6.689,-15.166,0
6.69,-27.984,0
6.691,-31.829,0
6.692,-35.308,0
6.693,-32.195,0
6.694,-29.265,0
6.695,-26.702,0
6.696,-24.322,0
6.697,-22.124,0
6.698,-16.082,0
6.699,-10.589,0
6.7,-8.941,0
6.701,-7.476,0
6.702,-3.448,0
6.703,-2.349,0
6.704,0.947,0
6.705,1.863,0
6.706,10.285,0
6.707,6.99,0
6.708,6.074,0
6.709,6.99,0
6.71,6.257,0
6.711,4.06,0
6.712,7.356,0
6.713,7.905,0
6.714,5.158,0
6.715,2.778,0
6.716,2.412,0
6.717,1.313,0
6.718,4.792,0
6.719,2.595,0
6.72,2.961,0
6.721,3.327,0
6.722,2.961,0
6.723,4.426,0
6.724,6.99,0
6.725,2.229,0
6.726,2.778,0
6.727,1.13,0
6.728,2.412,0
6.729,-0.701,0
6.73,-1.067,0
6.731,-2.166,0
6.732,0.947,0
6.733,2.046,0
6.734,6.623,0
6.735,16.877,0
6.736,39.399,0
6.737,42.512,0
6.738,39.582,0
6.739,26.216,0
6.74,-5.462,0
6.741,-27.068,0
6.742,-38.787,0
6.743,-42.266,0
6.744,-39.153,0
6.745,-36.223,0
6.746,-33.66,0
6.747,-26.519,0
6.748,-24.322,0
6.749,-14.251,0
6.75,-12.42,0
6.751,-10.772,0
6.752,-6.377,0
6.753,-2.349,0
6.754,-1.25,0
6.755,4.426,0
6.756,7.356,0
6.757,15.779,0
6.758,32.807,0
6.759,25.666,0
6.76,10.285,0
6.761,4.243,0
6.762,-1.25,0
6.763,-6.194,0
6.764,1.313,0
6.765,0.031,0
6.766,1.13,0
6.767,0.031,0
6.768,0.947,0
6.769,1.863,0
6.77,1.13,0
6.771,-2.715,0
6.772,1.863,0
6.773,6.257,0
6.774,7.905,0
6.775,4.609,0
6.776,4.975,0
6.777,2.229,0
6.778,4.06,0
6.779,2.229,0
6.78,5.525,0
6.781,1.313,0
6.782,4.06,0
6.783,0.215,0
6.784,1.496,0
6.785,8.454,0
6.786,23.652,0
6.787,52.4,0
6.788,56.245,0
6.789,38.484,0
6.79,2.778,0
6.791,-21.026,0
6.792,-25.237,0
6.793,-29.082,0
6.794,-32.561,0
6.795,-29.448,0
6.796,-26.519,0
6.797,-18.645,0
6.798,-16.265,0
6.799,-14.068,0
6.8,-16.082,0
6.801,-6.927,0
6.802,-5.279,0
6.803,-0.884,0
6.804,0.398,0
6.805,3.877,0
6.806,2.778,0
6.807,3.694,0
6.808,4.609,0
6.809,5.342,0
6.81,4.609,0
6.811,4.06,0
6.812,3.51,0
6.813,6.257,0
6.814,5.891,0
6.815,7.173,0
6.816,6.074,0
6.817,4.243,0
6.818,3.877,0
6.819,5.342,0
6.82,5.525,0
6.821,3.694,0
6.822,6.806,0
6.823,1.313,0
6.824,8.271,0
6.825,5.525,0
6.826,-0.152,0
6.827,-0.884,0
6.828,0.947,0
6.829,-0.884,0
6.83,2.961,0
6.831,-0.335,0
6.832,2.778,0
6.833,-3.448,0
6.834,-0.518,0
6.835,2.229,0
6.836,14.68,0
6.837,23.835,0
6.838,48.738,0
6.839,59.358,0
6.84,36.836,0
6.841,-1.8,0
6.842,-27.984,0
6.843,-32.744,0
6.844,-36.956,0
6.845,-33.111,0
6.846,-29.632,0
6.847,-26.519,0
6.848,-23.589,0
6.849,-21.026,0
6.85,-18.645,0
6.851,-16.448,0
6.852,-10.406,0
6.853,-4.912,0
6.854,-6.56,0
6.855,-2.166,0
6.856,1.863,0
6.857,2.961,0
6.858,6.257,0
6.859,5.342,0
6.86,2.595,0
6.861,1.863,0
6.862,7.173,0
6.863,5.342,0
6.864,7.173,0
6.865,5.525,0
6.866,0.031,0
6.867,2.229,0
6.868,0.398,0
6.869,4.792,0
6.87,4.243,0
6.871,5.525,0
6.872,5.158,0
6.873,4.792,0
6.874,6.623,0
6.875,1.13,0
6.876,-2.715,0
6.877,-0.884,0
6.878,-0.335,0
6.879,-3.081,0
6.88,3.51,0
6.881,2.595,0
6.882,1.863,0
6.883,-1.983,0
6.884,-1.433,0
6.885,1.679,0
6.886,2.229,0
6.887,10.652,0
6.888,26.765,0
6.889,42.146,0
6.89,48.188,0
6.891,50.019,0
6.892,25.117,0
6.893,-14.251,0
6.894,-29.815,0
6.895,-44.097,0
6.896,-39.885,0
6.897,-36.04,0
6.898,-39.519,0
6.899,-29.998,0
6.9,-27.068,0
6.901,-24.505,0
6.902,-17.364,0
6.903,-10.772,0
6.904,-8.758,0
6.905,0.398,0
6.906,-1.25,0
6.907,3.144,0
6.908,4.426,0
6.909,0.947,0
6.91,2.046,0
6.911,4.975,0
6.912,5.891,0
6.913,8.271,0
6.914,6.074,0
6.915,6.623,0
6.916,6.074,0
6.917,9.919,0
6.918,4.426,0
6.919,8.271,0
6.92,4.975,0
6.921,5.525,0
6.922,7.173,0
6.923,3.877,0
6.924,4.243,0
6.925,1.496,0
6.926,4.06,0
6.927,2.961,0
6.928,2.229,0
6.929,0.947,0
6.93,2.229,0
6.931,0.031,0
6.932,3.144,0
6.933,0.398,0
6.934,-0.701,0
6.935,0.398,0
6.936,3.877,0
6.937,4.609,0
6.938,8.821,0
6.939,18.342,0
6.94,38.85,0
6.941,65.583,0
6.942,47.822,0
6.943,5.525,0
6.944,-23.223,0
6.945,-38.787,0
6.946,-43.548,0
6.947,-30.73,0
6.948,-34.575,0
6.949,-38.054,0
6.95,-28.533,0
6.951,-19.744,0
6.952,-17.18,0
6.953,-14.8,0
6.954,-12.603,0
6.955,-6.56,0
6.956,-4.729,0
6.957,0.215,0
6.958,1.679,0
6.959,2.961,0
6.96,-0.518,0
6.961,2.778,0
6.962,3.694,0
6.963,8.271,0
6.964,7.539,0
6.965,8.271,0
6.966,6.44,0
6.967,3.327,0
6.968,6.074,0
6.969,8.454,0
6.97,7.173,0
6.971,6.074,0
6.972,7.173,0
6.973,6.074,0
6.974,7.539,0
6.975,6.806,0
6.976,2.778,0
6.977,1.13,0
6.978,0.764,0
6.979,2.961,0
6.98,-1.616,0
6.981,2.778,0
6.982,1.13,0
6.983,-1.25,0
6.984,-0.884,0
6.985,1.13,0
6.986,2.229,0
6.987,0.215,0
6.988,2.046,0
6.989,6.623,0
6.99,16.877,0
6.991,39.399,0
6.992,61.921,0
6.993,35.188,0
6.994,-4.18,0
6.995,-19.744,0
6.996,-24.505,0
6.997,-37.322,0
6.998,-33.477,0
6.999,-29.998,0
7,-26.885,0
7.001,-23.955,0
7.002,-21.392,0
7.003,-4.546,0
7.004,10.835,0
7.005,8.821,0
7.006,-3.997,0
7.007,-2.349,0
7.008,-12.786,0
7.009,-11.504,0
7.01,-12.603,0
7.011,-11.504,0
7.012,-6.56,0
7.013,-1.983,0
7.014,-4.363,0
7.015,0.947,0
7.016,0.398,0
7.017,-1.433,0
7.018,3.694,0
7.019,6.99,0
7.02,7.539,0
7.021,11.384,0
7.022,10.102,0
7.023,8.821,0
7.024,8.454,0
7.025,3.51,0
7.026,2.961,0
7.027,4.792,0
7.028,5.342,0
7.029,2.046,0
7.03,4.243,0
7.031,2.229,0
7.032,-0.335,0
7.033,0.764,0
7.034,5.342,0
7.035,2.046,0
7.036,3.877,0
7.037,1.13,0
7.038,5.342,0
7.039,5.708,0
7.04,10.835,0
7.041,21.089,0
7.042,37.568,0
7.043,44.16,0
7.044,58.259,0
7.045,41.78,0
7.046,8.637,0
7.047,-24.688,0
7.048,-37.505,0
7.049,-41.35,0
7.05,-44.829,0
7.051,-41.717,0
7.052,-32.927,0
7.053,-30.364,0
7.054,-23.223,0
7.055,-16.631,0
7.056,-6.56,0
7.057,-8.391,0
7.058,-3.448,0
7.059,-1.983,0
7.06,-0.701,0
7.061,0.398,0
7.062,-0.701,0
7.063,0.215,0
7.064,6.623,0
7.065,5.891,0
7.066,0.581,0
7.067,5.158,0
7.068,6.99,0
7.069,8.637,0
7.07,7.356,0
7.071,8.637,0
7.072,9.004,0
7.073,11.567,0
7.074,11.201,0
7.075,6.623,0
7.076,2.046,0
7.077,3.877,0
7.078,2.229,0
7.079,3.51,0
7.08,2.229,0
7.081,4.975,0
7.082,3.877,0
7.083,-0.884,0
7.084,4.792,0
7.085,0.947,0
7.086,2.778,0
7.087,-0.335,0
7.088,3.51,0
7.089,3.877,0
7.09,4.243,0
7.091,9.37,0
7.092,19.624,0
7.093,36.103,0
7.094,47.09,0
7.095,57.16,0
7.096,29.695,0
7.097,-5.828,0
7.098,-29.632,0
7.099,-33.843,0
7.1,-37.688,0
7.101,-41.167,0
7.102,-38.054,0
7.103,-29.265,0
7.104,-26.702,0
7.105,-19.561,0
7.106,-12.969,0
7.107,-10.955,0
7.108,-9.124,0
7.109,-7.476,0
7.11,-3.081,0
7.111,-1.8,0
7.112,-2.898,0
7.113,0.398,0
7.114,5.342,0
7.115,4.426,0
7.116,2.046,0
7.117,4.243,0
7.118,3.694,0
7.119,8.088,0
7.12,6.44,0
7.121,7.722,0
7.122,9.004,0
7.123,7.905,0
7.124,9.004,0
7.125,7.173,0
7.126,4.426,0
7.127,7.905,0
7.128,8.271,0
7.129,7.173,0
7.13,4.609,0
7.131,2.778,0
7.132,4.792,0
7.133,0.581,0
7.134,0.031,0
7.135,5.158,0
7.136,0.581,0
7.137,4.975,0
7.138,1.13,0
7.139,1.496,0
7.14,1.679,0
7.141,1.313,0
7.142,-2.532,0
7.143,4.975,0
7.144,22.004,0
7.145,38.85,0
7.146,41.047,0
7.147,22.92,0
7.148,-3.814,0
7.149,-28.716,0
7.15,-44.829,0
7.151,-41.9,0
7.152,-39.336,0
7.153,-32.195,0
7.154,-25.603,0
7.155,-23.589,0
7.156,-18.096,0
7.157,-13.152,0
7.158,-11.687,0
7.159,-4.912,0
7.16,-3.814,0
7.161,-2.715,0
7.162,0.215,0
7.163,4.792,0
7.164,2.412,0
7.165,4.609,0
7.166,1.313,0
7.167,1.863,0
7.168,3.51,0
7.169,2.229,0
7.17,3.51,0
7.171,4.609,0
7.172,7.173,0
7.173,10.469,0
7.174,11.567,0
7.175,12.666,0
7.176,10.835,0
7.177,7.539,0
7.178,2.412,0
7.179,5.708,0
7.18,3.877,0
7.181,5.525,0
7.182,4.243,0
7.183,0.031,0
7.184,2.778,0
7.185,3.144,0
7.186,3.51,0
7.187,3.144,0
7.188,2.046,0
7.189,6.806,0
7.19,7.356,0
7.191,6.074,0
7.192,0.947,0
7.193,11.201,0
7.194,27.68,0
7.195,52.033,0
7.196,55.146,0
7.197,22.553,0
7.198,-7.659,0
7.199,-19.378,0
7.2,-29.998,0
7.201,-33.111,0
7.202,-30.181,0
7.203,-27.617,0
7.204,-25.237,0
7.205,-18.645,0
7.206,-16.631,0
7.207,-11.138,0
7.208,-12.786,0
7.209,-14.251,0
7.21,-4.729,0
7.211,-3.631,0
7.212,-2.532,0
7.213,0.398,0
7.214,-0.518,0
7.215,5.158,0
7.216,-1.8,0
7.217,-2.715,0
7.218,-5.095,0
7.219,1.863,0
7.22,2.778,0
7.221,5.158,0
7.222,7.356,0
7.223,7.905,0
7.224,4.792,0
7.225,4.243,0
7.226,0.947,0
7.227,1.313,0
7.228,1.679,0
7.229,4.243,0
7.23,2.412,0
7.231,1.679,0
7.232,5.342,0
7.233,2.046,0
7.234,0.764,0
7.235,1.863,0
7.236,2.229,0
7.237,4.792,0
7.238,0.764,0
7.239,3.51,0
7.24,2.229,0
7.241,1.863,0
7.242,-1.983,0
7.243,-0.884,0
7.244,0.947,0
7.245,-0.884,0
7.246,-0.152,0
7.247,-1.983,0
7.248,-1.8,0
7.249,1.679,0
7.25,9.187,0
7.251,12.483,0
7.252,3.327,0
7.253,11.75,0
7.254,28.779,0
7.255,35.92,0
7.256,46.906,0
7.257,16.694,0
7.258,-13.518,0
7.259,-40.984,0
7.26,-44.463,0
7.261,-47.576,0
7.262,-44.646,0
7.263,-36.773,0
7.264,-34.392,0
7.265,-27.801,0
7.266,-25.786,0
7.267,-20.293,0
7.268,-15.349,0
7.269,-7.842,0
7.27,-3.814,0
7.271,2.229,0
7.272,1.13,0
7.273,6.074,0
7.274,5.158,0
7.275,7.539,0
7.276,8.271,0
7.277,4.975,0
7.278,5.525,0
7.279,4.975,0
7.28,11.567,0
7.281,10.652,0
7.282,11.384,0
7.283,9.187,0
7.284,11.018,0
7.285,15.412,0
7.286,17.06,0
7.287,17.427,0
7.288,22.553,0
7.289,24.385,0
7.29,26.216,0
7.291,32.441,0
7.292,30.061,0
7.293,22.92,0
7.294,26.765,0
7.295,23.469,0
7.296,32.99,0
7.297,39.765,0
7.298,55.879,0
7.299,44.892,0
7.3,14.68,0
7.301,-41.717,0
7.302,-64.788,0
7.303,-71.746,0
7.304,-77.971,0
7.305,-60.76,0
7.306,-45.196,0
7.307,-40.435,0
7.308,-44.646,0
7.309,-72.112,0
7.31,-82.732,0
7.311,-98.845,0
7.312,-113.68,0
7.313,-121.55,0
7.314,-119.17,0
7.315,-130.16,0
7.316,-144.26,0
7.317,-142.43,0
7.318,-137.48,0
7.319,-123.93,0
7.32,-107.45,0
7.321,-78.704,0
7.322,-19.561,0
7.323,56.794,0
7.324,108.06,0
7.325,136.08,0
7.326,161.35,0
7.327,153.66,0
7.328,132.78,0
7.329,126.56,0
7.33,120.88,0
7.331,115.75,0
7.332,130.04,0
7.333,142.85,0
7.334,162.45,0
7.335,180.21,0
7.336,177.09,0
7.337,168.31,0
7.338,149.63,0
7.339,137.54,0
7.34,126.56,0
7.341,104.4,0
7.342,71.809,0
7.343,50.202,0
7.344,33.906,0
7.345,22.187,0
7.346,25.666,0
7.347,35.188,0
7.348,38.117,0
7.349,35.554,0
7.35,37.934,0
7.351,4.792,0
7.352,-38.238,0
7.353,-66.985,0
7.354,-72.112,0
7.355,-86.394,0
7.356,-90.606,0
7.357,-86.76,0
7.358,-90.24,0
7.359,-87.127,0
7.36,-84.197,0
7.361,-76.323,0
7.362,-69.182,0
7.363,-71.38,0
7.364,-65.337,0
7.365,-70.83,0
7.366,-69.182,0
7.367,-70.647,0
7.368,-63.872,0
7.369,-57.83,0
7.37,-52.154,0
7.371,-47.21,0
7.372,-44.463,0
7.373,-35.308,0
7.374,-31.829,0
7.375,-30.73,0
7.376,-25.786,0
7.377,-24.871,0
7.378,-17.364,0
7.379,-20.293,0
7.38,-13.885,0
7.381,-11.504,0
7.382,-7.659,0
7.383,-9.49,0
7.384,-6.377,0
7.385,-2.532,0
7.386,0.764,0
7.387,2.961,0
7.388,1.863,0
7.389,2.961,0
7.39,6.257,0
7.391,3.51,0
7.392,3.144,0
7.393,7.905,0
7.394,4.792,0
7.395,7.539,0
7.396,8.088,0
7.397,15.595,0
7.398,25.849,0
7.399,46.357,0
7.4,43.427,0
7.401,45.991,0
7.402,43.611,0
7.403,41.413,0
7.404,23.286,0
7.405,-8.391,0
7.406,-29.998,0
7.407,-41.717,0
7.408,-38.238,0
7.409,-41.35,0
7.41,-32.561,0
7.411,-29.998,0
7.412,-17.913,0
7.413,-15.716,0
7.414,-13.701,0
7.415,-8.208,0
7.416,-3.264,0
7.417,1.13,0
7.418,5.158,0
7.419,8.637,0
7.42,7.539,0
7.421,8.454,0
7.422,16.877,0
7.423,13.581,0
7.424,12.666,0
7.425,17.243,0
7.426,13.215,0
7.427,17.06,0
7.428,10.835,0
7.429,11.567,0
7.43,10.835,0
7.431,10.285,0
7.432,10.835,0
7.433,10.285,0
7.434,9.919,0
7.435,7.722,0
7.436,8.821,0
7.437,8.454,0
7.438,8.821,0
7.439,7.356,0
7.44,8.088,0
7.441,7.356,0
7.442,3.877,0
7.443,2.595,0
7.444,1.313,0
7.445,1.679,0
7.446,3.144,0
7.447,4.975,0
7.448,10.469,0
7.449,22.004,0
7.45,40.315,0
7.451,52.4,0
7.452,50.202,0
7.453,19.99,0
7.454,-10.222,0
7.455,-29.815,0
7.456,-26.336,0
7.457,-29.448,0
7.458,-32.378,0
7.459,-29.815,0
7.46,-22.674,0
7.461,-20.476,0
7.462,-18.462,0
7.463,-12.969,0
7.464,-11.321,0
7.465,-9.856,0
7.466,-3.081,0
7.467,-1.983,0
7.468,-3.081,0
7.469,3.877,0
7.47,2.961,0
7.471,5.342,0
7.472,7.539,0
7.473,9.37,0
7.474,6.257,0
7.475,5.708,0
7.476,3.327,0
7.477,4.609,0
7.478,3.51,0
7.479,4.609,0
7.48,4.975,0
7.481,4.243,0
7.482,4.426,0
7.483,5.158,0
7.484,2.961,0
7.485,5.525,0
7.486,7.356,0
7.487,4.609,0
7.488,3.51,0
7.489,3.144,0
7.49,3.877,0
7.491,3.144,0
7.492,1.863,0
7.493,0.764,0
7.494,4.06,0
7.495,11.018,0
7.496,26.216,0
7.497,8.271,0
7.498,-7.11,0
7.499,-5.095,0
7.5,-17.913,0
7.501,0.398,0
7.502,2.778,0
7.503,35.92,0
7.504,50.202,0
7.505,28.596,0
7.506,-6.927,0
7.507,-30.73,0
7.508,-34.942,0
7.509,-38.787,0
7.51,-35.308,0
7.511,-32.195,0
7.512,-29.265,0
7.513,-26.702,0
7.514,-19.561,0
7.515,-17.364,0
7.516,-15.349,0
7.517,-9.856,0
7.518,-8.208,0
7.519,-0.701,0
7.52,0.581,0
7.521,6.623,0
7.522,5.525,0
7.523,4.609,0
7.524,9.187,0
7.525,5.158,0
7.526,7.356,0
7.527,4.06,0
7.528,3.51,0
7.529,6.257,0
7.53,3.877,0
7.531,6.074,0
7.532,7.173,0
7.533,4.609,0
7.534,3.51,0
7.535,2.778,0
7.536,4.06,0
7.537,6.99,0
7.538,5.158,0
7.539,4.792,0
7.54,6.806,0
7.541,5.525,0
7.542,1.496,0
7.543,0.947,0
7.544,-2.349,0
7.545,0.764,0
7.546,1.13,0
7.547,4.609,0
7.548,3.877,0
7.549,0.764,0
7.55,6.99,0
7.551,20.906,0
7.552,39.033,0
7.553,46.174,0
7.554,39.582,0
7.555,25.483,0
7.556,1.679,0
7.557,-27.617,0
7.558,-39.336,0
7.559,-42.815,0
7.56,-39.702,0
7.561,-36.773,0
7.562,-28.899,0
7.563,-26.519,0
7.564,-15.532,0
7.565,-17.547,0
7.566,-12.053,0
7.567,-10.406,0
7.568,-6.011,0
7.569,0.764,0
7.57,1.863,0
7.571,2.961,0
7.572,7.905,0
7.573,5.158,0
7.574,7.539,0
7.575,5.342,0
7.576,7.173,0
7.577,6.623,0
7.578,6.074,0
7.579,3.694,0
7.58,7.905,0
7.581,9.553,0
7.582,4.975,0
7.583,1.863,0
7.584,3.51,0
7.585,2.229,0
7.586,4.426,0
7.587,4.792,0
7.588,2.961,0
7.589,3.327,0
7.59,5.342,0
7.591,5.525,0
7.592,3.694,0
7.593,3.877,0
7.594,0.947,0
7.595,-0.884,0
7.596,-0.518,0
7.597,-2.532,0
7.598,-1.25,0
7.599,2.412,0
7.6,1.679,0
7.601,3.877,0
7.602,8.088,0
7.603,17.61,0
7.604,38.117,0
7.605,58.808,0
7.606,29.328,0
7.607,-6.194,0
7.608,-29.998,0
7.609,-42.815,0
7.61,-38.97,0
7.611,-35.491,0
7.612,-32.378,0
7.613,-29.448,0
7.614,-26.885,0
7.615,-14.8,0
7.616,-12.603,0
7.617,-14.617,0
7.618,-9.124,0
7.619,-4.18,0
7.62,0.215,0
7.621,1.496,0
7.622,0.398,0
7.623,3.694,0
7.624,4.609,0
7.625,3.694,0
7.626,2.961,0
7.627,6.806,0
7.628,4.975,0
7.629,5.525,0
7.63,7.173,0
7.631,10.469,0
7.632,7.356,0
7.633,4.609,0
7.634,4.975,0
7.635,3.877,0
7.636,6.623,0
7.637,6.99,0
7.638,6.623,0
7.639,6.806,0
7.64,8.088,0
7.641,5.158,0
7.642,1.679,0
7.643,1.313,0
7.644,-1.433,0
7.645,1.13,0
7.646,2.229,0
7.647,1.496,0
7.648,0.215,0
7.649,2.595,0
7.65,2.412,0
7.651,0.947,0
7.652,5.158,0
7.653,14.68,0
7.654,32.441,0
7.655,49.287,0
7.656,51.484,0
7.657,25.3,0
7.658,-6.927,0
7.659,-28.533,0
7.66,-40.252,0
7.661,-43.731,0
7.662,-40.618,0
7.663,-37.688,0
7.664,-35.125,0
7.665,-32.744,0
7.666,-21.758,0
7.667,-19.744,0
7.668,-14.251,0
7.669,-9.307,0
7.67,-7.842,0
7.671,-3.814,0
7.672,-0.335,0
7.673,2.961,0
7.674,7.905,0
7.675,-0.518,0
7.676,0.581,0
7.677,1.496,0
7.678,2.412,0
7.679,3.144,0
7.68,3.877,0
7.681,4.426,0
7.682,7.539,0
7.683,4.792,0
7.684,7.173,0
7.685,7.539,0
7.686,8.637,0
7.687,5.158,0
7.688,10.285,0
7.689,6.99,0
7.69,10.102,0
7.691,7.356,0
7.692,4.975,0
7.693,-0.152,0
7.694,0.398,0
7.695,0.947,0
7.696,0.398,0
7.697,2.778,0
7.698,-1.433,0
7.699,3.694,0
7.7,1.863,0
7.701,2.412,0
7.702,4.243,0
7.703,12.666,0
7.704,31.159,0
7.705,55.329,0
7.706,58.442,0
7.707,25.849,0
7.708,-4.363,0
7.709,-23.955,0
7.71,-27.434,0
7.711,-30.547,0
7.712,-27.617,0
7.713,-30.181,0
7.714,-23.04,0
7.715,-20.843,0
7.716,-18.828,0
7.717,-13.335,0
7.718,-14.983,0
7.719,-10.589,0
7.72,-6.56,0
7.721,-3.081,0
7.722,-1.983,0
7.723,2.961,0
7.724,3.877,0
7.725,4.609,0
7.726,9.919,0
7.727,10.469,0
7.728,9.919,0
7.729,9.37,0
7.73,6.074,0
7.731,2.961,0
7.732,5.708,0
7.733,1.496,0
7.734,4.243,0
7.735,0.947,0
7.736,4.06,0
7.737,3.694,0
7.738,4.792,0
7.739,5.891,0
7.74,10.469,0
7.741,20.722,0
7.742,25.117,0
7.743,4.609,0
7.744,-4.18,0
7.745,-6.743,0
7.746,-13.885,0
7.747,-11.687,0
7.748,-9.673,0
7.749,-11.504,0
7.75,-9.856,0
7.751,-8.391,0
7.752,-5.645,0
7.753,-4.363,0
7.754,9.187,0
7.755,22.004,0
7.756,46.906,0
7.757,50.385,0
7.758,21.089,0
7.759,-6.377,0
7.76,-16.997,0
7.761,-26.519,0
7.762,-29.448,0
7.763,-21.575,0
7.764,-23.955,0
7.765,-17.364,0
7.766,-15.349,0
7.767,-13.518,0
7.768,-8.574,0
7.769,-4.18,0
7.77,-5.462,0
7.771,0.581,0
7.772,-0.518,0
7.773,4.426,0
7.774,3.51,0
7.775,1.13,0
7.776,0.398,0
7.777,2.229,0
7.778,4.06,0
7.779,7.905,0
7.78,4.609,0
7.781,4.975,0
7.782,6.99,0
7.783,8.821,0
7.784,8.454,0
7.785,4.426,0
7.786,9.553,0
7.787,6.257,0
7.788,5.708,0
7.789,7.356,0
7.79,7.722,0
7.791,2.595,0
7.792,0.764,0
7.793,-1.067,0
7.794,-0.518,0
7.795,4.06,0
7.796,7.173,0
7.797,-0.152,0
7.798,0.764,0
7.799,-1.983,0
7.8,-1.25,0
7.801,-0.518,0
7.802,0.031,0
7.803,-0.518,0
7.804,0.031,0
7.805,8.454,0
7.806,26.948,0
7.807,45.625,0
7.808,57.71,0
7.809,28.962,0
7.81,9.37,0
7.811,-15.532,0
7.812,-31.646,0
7.813,-34.575,0
7.814,-32.012,0
7.815,-29.632,0
7.816,-31.829,0
7.817,-25.786,0
7.818,-20.293,0
7.819,-12.053,0
7.82,-13.518,0
7.821,-9.49,0
7.822,-10.589,0
7.823,-4.912,0
7.824,-1.983,0
7.825,-1.067,0
7.826,1.313,0
7.827,2.046,0
7.828,3.877,0
7.829,4.426,0
7.83,6.074,0
7.831,6.44,0
7.832,7.722,0
7.833,3.877,0
7.834,8.454,0
7.835,7.905,0
7.836,7.356,0
7.837,4.975,0
7.838,7.173,0
7.839,6.806,0
7.84,5.708,0
7.841,7.539,0
7.842,2.961,0
7.843,3.51,0
7.844,4.06,0
7.845,1.313,0
7.846,3.694,0
7.847,1.496,0
7.848,2.595,0
7.849,2.229,0
7.85,4.06,0
7.851,0.031,0
7.852,0.581,0
7.853,0.215,0
7.854,-0.518,0
7.855,0.764,0
7.856,6.99,0
7.857,20.906,0
7.858,51.118,0
7.859,46.906,0
7.86,19.441,0
7.861,-12.786,0
7.862,-25.603,0
7.863,-29.448,0
7.864,-25.969,0
7.865,-29.082,0
7.866,-26.153,0
7.867,-23.589,0
7.868,-21.209,0
7.869,-14.617,0
7.87,-12.603,0
7.871,-10.772,0
7.872,-5.828,0
7.873,-1.433,0
7.874,-0.152,0
7.875,0.947,0
7.876,-4.729,0
7.877,4.426,0
7.878,3.327,0
7.879,2.229,0
7.88,5.158,0
7.881,6.074,0
7.882,5.342,0
7.883,0.031,0
7.884,4.609,0
7.885,5.158,0
7.886,5.708,0
7.887,5.342,0
7.888,4.975,0
7.889,6.99,0
7.89,5.891,0
7.891,5.525,0
7.892,1.496,0
7.893,-0.152,0
7.894,3.144,0
7.895,4.426,0
7.896,2.412,0
7.897,-0.152,0
7.898,0.947,0
7.899,-1.8,0
7.9,-0.701,0
7.901,-2.532,0
7.902,2.046,0
7.903,3.877,0
7.904,3.327,0
7.905,1.679,0
7.906,5.525,0
7.907,10.102,0
7.908,19.624,0
7.909,40.132,0
7.91,54.963,0
7.911,25.483,0
7.912,-10.039,0
7.913,-24.322,0
7.914,-28.533,0
7.915,-32.378,0
7.916,-28.899,0
7.917,-32.012,0
7.918,-29.082,0
7.919,-21.209,0
7.92,-18.828,0
7.921,-12.237,0
7.922,-2.166,0
7.923,-3.997,0
7.924,-2.349,0
7.925,-0.884,0
7.926,0.398,0
7.927,-3.081,0
7.928,0.215,0
7.929,5.158,0
7.93,6.074,0
7.931,5.342,0
7.932,6.074,0
7.933,4.243,0
7.934,3.694,0
7.935,0.947,0
7.936,2.229,0
7.937,3.51,0
7.938,3.877,0
7.939,4.243,0
7.94,4.609,0
7.941,3.877,0
7.942,3.144,0
7.943,2.412,0
7.944,2.595,0
7.945,3.144,0
7.946,3.327,0
7.947,3.877,0
7.948,5.891,0
7.949,5.525,0
7.95,2.229,0
7.951,3.51,0
7.952,1.496,0
7.953,-0.335,0
7.954,-0.701,0
7.955,3.327,0
7.956,0.215,0
7.957,0.764,0
7.958,8.271,0
7.959,11.567,0
7.96,26.765,0
7.961,55.512,0
7.962,28.047,0
7.963,-4.18,0
7.964,-25.786,0
7.965,-29.632,0
7.966,-33.111,0
7.967,-29.998,0
7.968,-32.927,0
7.969,-25.054,0
7.97,-22.674,0
7.971,-16.082,0
7.972,-10.039,0
7.973,-4.546,0
7.974,-6.194,0
7.975,-4.729,0
7.976,-6.011,0
7.977,0.031,0
7.978,-5.645,0
7.979,-4.729,0
7.98,-1.983,0
7.981,2.046,0
7.982,2.778,0
7.983,2.229,0
7.984,4.06,0
7.985,7.905,0
7.986,15.412,0
7.987,32.441,0
7.988,25.3,0
7.989,9.919,0
7.99,3.877,0
7.991,-5.279,0
7.992,-6.927,0
7.993,-14.434,0
7.994,-7.659,0
7.995,-8.758,0
7.996,-3.081,0
7.997,-0.152,0
7.998,2.595,0
7.999,0.215,0
8,0.947,0
8.001,1.496,0
8.002,3.327,0
8.003,7.173,0
8.004,3.877,0
8.005,6.99,0
8.006,10.835,0
8.007,7.539,0
8.008,7.905,0
8.009,14.863,0
8.01,26.032,0
8.011,45.625,0
8.012,58.991,0
8.013,51.85,0
8.014,18.708,0
8.015,-24.322,0
8.016,-29.998,0
8.017,-35.125,0
8.018,-39.885,0
8.019,-35.674,0
8.02,-31.829,0
8.021,-21.209,0
8.022,-18.096,0
8.023,-15.166,0
8.024,-7.293,0
8.025,-4.912,0
8.026,-2.715,0
8.027,-4.729,0
8.028,-2.898,0
8.029,-7.842,0
8.03,-3.448,0
8.031,-2.166,0
8.032,1.313,0
8.033,0.215,0
8.034,1.13,0
8.035,7.539,0
8.036,5.158,0
8.037,9.004,0
8.038,8.454,0
8.039,6.623,0
8.04,9.37,0
8.041,8.088,0
8.042,7.722,0
8.043,4.975,0
8.044,5.342,0
8.045,2.778,0
8.046,6.806,0
8.047,5.158,0
8.048,5.525,0
8.049,1.313,0
8.05,-0.335,0
8.051,2.046,0
8.052,2.412,0
8.053,-0.335,0
8.054,0.764,0
8.055,3.327,0
8.056,4.06,0
8.057,0.398,0
8.058,3.144,0
8.059,1.863,0
8.06,8.821,0
8.061,22.004,0
8.062,38.484,0
8.063,31.892,0
8.064,17.793,0
8.065,23.286,0
8.066,18.342,0
8.067,16.877,0
8.068,26.399,0
8.069,7.905,0
8.07,-32.378,0
8.071,-49.59,0
8.072,-54.717,0
8.073,-49.956,0
8.074,-54.168,0
8.075,-42.449,0
8.076,-38.97,0
8.077,-35.857,0
8.078,-27.068,0
8.079,-19.195,0
8.08,-12.053,0
8.081,-9.856,0
8.082,-3.814,0
8.083,-1.983,0
8.084,2.961,0
8.085,7.356,0
8.086,11.384,0
8.087,12.483,0
8.088,18.159,0
8.089,19.074,0
8.09,19.99,0
8.091,15.962,0
8.092,16.694,0
8.093,13.398,0
8.094,13.948,0
8.095,10.102,0
8.096,13.398,0
8.097,19.441,0
8.098,17.06,0
8.099,20.906,0
8.1,22.737,0
8.101,23.286,0
8.102,29.511,0
8.103,30.244,0
8.104,29.511,0
8.105,26.216,0
8.106,21.821,0
8.107,20.173,0
8.108,14.68,0
8.109,12.666,0
8.11,1.13,0
8.111,-10.406,0
8.112,-8.941,0
8.113,11.567,0
8.114,20.356,0
8.115,-3.814,0
8.116,-39.519,0
8.117,-53.802,0
8.118,-40.984,0
8.119,-52.703,0
8.12,-70.464,0
8.121,-86.577,0
8.122,-95.366,0
8.123,-114.04,0
8.124,-126.13,0
8.125,-128.32,0
8.126,-130.34,0
8.127,-139.5,0
8.128,-141.14,0
8.129,-142.61,0
8.13,-130.34,0
8.131,-125.4,0
8.132,-105.8,0
8.133,-65.52,0
8.134,21.089,0
8.135,83.344,0
8.136,139.74,0
8.137,150,0
8.138,159.33,0
8.139,134.06,0
8.14,126.37,0
8.141,119.42,0
8.142,113.19,0
8.143,107.51,0
8.144,123.08,0
8.145,137.36,0
8.146,158.97,0
8.147,162.81,0
8.148,159.33,0
8.149,143.22,0
8.15,128.39,0
8.151,120.52,0
8.152,108.43,0
8.153,88.471,0
8.154,69.795,0
8.155,47.822,0
8.156,39.033,0
8.157,25.666,0
8.158,23.286,0
8.159,21.089,0
8.16,5.342,0
8.161,-4.729,0
8.162,-10.222,0
8.163,-5.279,0
8.164,2.229,0
8.165,11.75,0
8.166,17.793,0
8.167,0.764,0
8.168,-35.674,0
8.169,-82.915,0
8.17,-89.141,0
8.171,-94.817,0
8.172,-89.69,0
8.173,-94.451,0
8.174,-90.24,0
8.175,-86.394,0
8.176,-82.915,0
8.177,-79.802,0
8.178,-76.873,0
8.179,-68.999,0
8.18,-66.619,0
8.181,-64.422,0
8.182,-58.379,0
8.183,-52.886,0
8.184,-47.942,0
8.185,-40.435,0
8.186,-33.66,0
8.187,-30.181,0
8.188,-24.505,0
8.189,-15.349,0
8.19,-11.87,0
8.191,-8.574,0
8.192,-11.504,0
8.193,-8.758,0
8.194,-8.025,0
8.195,-4.18,0
8.196,-3.631,0
8.197,0.764,0
8.198,2.412,0
8.199,1.13,0
8.2,-0.152,0
8.201,0.215,0
8.202,4.426,0
8.203,8.271,0
8.204,8.637,0
8.205,7.356,0
8.206,8.454,0
8.207,8.088,0
8.208,8.454,0
8.209,3.877,0
8.21,8.454,0
8.211,8.271,0
8.212,8.821,0
8.213,17.243,0
8.214,35.737,0
8.215,59.907,0
8.216,63.02,0
8.217,30.427,0
8.218,0.215,0
8.219,-19.378,0
8.22,-22.857,0
8.221,-25.969,0
8.222,-17.18,0
8.223,-19.744,0
8.224,-17.364,0
8.225,-15.166,0
8.226,-13.152,0
8.227,-7.659,0
8.228,-6.011,0
8.229,-1.616,0
8.23,5.158,0
8.231,6.257,0
8.232,23.286,0
