0,1.579,0
0.001,4.875,0
0.002,5.241,0
0.003,3.227,0
0.004,2.861,0
0.005,8.354,0
0.006,19.89,0
0.007,28.129,0
0.008,8.537,0
0.009,5.974,0
0.01,18.059,0
0.011,42.412,0
0.012,58.525,0
0.013,43.693,0
0.014,8.72,0
0.015,-15.083,0
0.016,-27.901,0
0.017,-39.62,0
0.018,-43.099,0
0.019,-39.986,0
0.02,-42.916,0
0.021,-40.352,0
0.022,-37.972,0
0.023,-31.38,0
0.024,-25.337,0
0.025,-19.844,0
0.026,-14.9,0
0.027,-13.436,0
0.028,-14.717,0
0.029,-11.238,0
0.03,-7.942,0
0.031,1.213,0
0.032,0.114,0
0.033,1.213,0
0.034,2.128,0
0.035,3.044,0
0.036,3.776,0
0.037,1.579,0
0.038,1.03,0
0.039,6.706,0
0.04,10.551,0
0.041,12.382,0
0.042,11.833,0
0.043,12.382,0
0.044,7.805,0
0.045,9.636,0
0.046,7.988,0
0.047,8.354,0
0.048,7.988,0
0.049,10.734,0
0.05,11.833,0
0.051,4.509,0
0.052,7.072,0
0.053,11.65,0
0.054,21.904,0
0.055,44.426,0
0.056,66.948,0
0.057,81.779,0
0.058,57.609,0
0.059,21.904,0
0.06,-1.9,0
0.061,-23.506,0
0.062,-35.225,0
0.063,-31.746,0
0.064,-28.633,0
0.065,-31.563,0
0.066,-34.126,0
0.067,-31.746,0
0.068,-25.154,0
0.069,-27.168,0
0.07,-25.337,0
0.071,-20.394,0
0.072,-21.858,0
0.073,-15.083,0
0.074,-11.604,0
0.075,-8.309,0
0.076,-7.393,0
0.077,-4.646,0
0.078,-7.027,0
0.079,-1.717,0
0.08,0.114,0
0.081,1.945,0
0.082,2.495,0
0.083,4.875,0
0.084,-0.252,0
0.085,7.255,0
0.086,4.326,0
0.087,5.241,0
0.088,4.509,0
0.089,5.241,0
0.09,4.692,0
0.091,6.523,0
0.092,7.072,0
0.093,9.453,0
0.094,6.34,0
0.095,5.241,0
0.096,7.072,0
0.097,9.636,0
0.098,8.903,0
0.099,4.692,0
0.1,4.143,0
0.101,7.988,0
0.102,8.171,0
0.103,3.593,0
0.104,13.115,0
0.105,33.623,0
0.106,60.356,0
0.107,70.976,0
0.108,54.863,0
0.109,16.228,0
0.11,0.664,0
0.111,-23.14,0
0.112,-27.352,0
0.113,-31.197,0
0.114,-27.718,0
0.115,-24.605,0
0.116,-27.535,0
0.117,-24.971,0
0.118,-22.591,0
0.119,-20.394,0
0.12,-18.379,0
0.121,-16.548,0
0.122,-14.9,0
0.123,-10.506,0
0.124,-9.224,0
0.125,-5.745,0
0.126,-2.449,0
0.127,-3.365,0
0.128,-6.111,0
0.129,-2.083,0
0.13,0.114,0
0.131,3.41,0
0.132,3.959,0
0.133,7.805,0
0.134,6.523,0
0.135,9.636,0
0.136,5.791,0
0.137,5.424,0
0.138,4.143,0
0.139,6.889,0
0.14,1.945,0
0.141,2.495,0
0.142,3.044,0
0.143,4.692,0
0.144,5.058,0
0.145,3.776,0
0.146,4.875,0
0.147,8.354,0
0.148,12.565,0
0.149,18.791,0
0.15,21.171,0
0.151,26.481,0
0.152,24.65,0
0.153,25.017,0
0.154,29.411,0
0.155,35.637,0
0.156,46.44,0
0.157,66.032,0
0.158,73.906,0
0.159,71.525,0
0.16,64.934,0
0.161,34.721,0
0.162,-21.675,0
0.163,-44.747,0
0.164,-65.621,0
0.165,-84.48,0
0.166,-90.157,0
0.167,-85.03,0
0.168,-80.269,0
0.169,-67.452,0
0.17,-55.733,0
0.171,-52.254,0
0.172,-61.775,0
0.173,-76.607,0
0.174,-95.284,0
0.175,-107.37,0
0.176,-118.36,0
0.177,-128.43,0
0.178,-137.58,0
0.179,-142.53,0
0.18,-143.99,0
0.181,-128.97,0
0.182,-114.88,0
0.183,-98.396,0
0.184,-74.043,0
0.185,-25.337,0
0.186,79.765,0
0.187,155.02,0
0.188,168.57,0
0.189,156.12,0
0.19,144.95,0
0.191,114.19,0
0.192,104.85,0
0.193,96.428,0
0.194,88.737,0
0.195,81.779,0
0.196,100.64,0
0.197,129.39,0
0.198,144.95,0
0.199,149.71,0
0.2,145.5,0
0.201,141.66,0
0.202,131.03,0
0.203,121.51,0
0.204,120.23,0
0.205,105.4,0
0.206,92.033,0
0.207,84.892,0
0.208,100.27,0
0.209,110.34,0
0.21,93.864,0
0.211,60.722,0
0.212,8.171,0
0.213,-12.703,0
0.214,-31.563,0
0.215,-37.239,0
0.216,-52.803,0
0.217,-57.564,0
0.218,-53.353,0
0.219,-65.071,0
0.22,-75.691,0
0.221,-72.579,0
0.222,-69.649,0
0.223,-67.085,0
0.224,-64.705,0
0.225,-71.297,0
0.226,-69.283,0
0.227,-74.776,0
0.228,-76.424,0
0.229,-77.889,0
0.23,-79.17,0
0.231,-75.691,0
0.232,-70.015,0
0.233,-65.071,0
0.234,-58.663,0
0.235,-54.634,0
0.236,-47.676,0
0.237,-46.761,0
0.238,-42.732,0
0.239,-34.31,0
0.24,-31.014,0
0.241,-26.07,0
0.242,-21.492,0
0.243,-17.464,0
0.244,-19.661,0
0.245,-15.083,0
0.246,-9.407,0
0.247,-7.21,0
0.248,-3.914,0
0.249,0.48,0
0.25,3.227,0
0.251,10.734,0
0.252,27.763,0
0.253,30.144,0
0.254,14.763,0
0.255,5.974,0
0.256,3.959,0
0.257,9.453,0
0.258,14.396,0
0.259,36.918,0
0.26,72.624,0
0.261,48.82,0
0.262,18.608,0
0.263,-8.858,0
0.264,-12.337,0
0.265,-21.858,0
0.266,-24.788,0
0.267,-27.352,0
0.268,-24.971,0
0.269,-22.774,0
0.27,-24.788,0
0.271,-19.295,0
0.272,-14.351,0
0.273,-12.886,0
0.274,-11.604,0
0.275,-8.125,0
0.276,-2.449,0
0.277,0.48,0
0.278,3.227,0
0.279,0.847,0
0.28,6.157,0
0.281,7.988,0
0.282,8.537,0
0.283,12.382,0
0.284,11.101,0
0.285,10.734,0
0.286,11.833,0
0.287,10.002,0
0.288,11.101,0
0.289,13.115,0
0.29,8.903,0
0.291,10.734,0
0.292,9.086,0
0.293,11.467,0
0.294,10.185,0
0.295,9.819,0
0.296,6.34,0
0.297,12.382,0
0.298,11.65,0
0.299,10.917,0
0.3,14.213,0
0.301,13.664,0
0.302,8.537,0
0.303,6.706,0
0.304,6.157,0
0.305,5.607,0
0.306,3.776,0
0.307,6.157,0
0.308,13.115,0
0.309,20.073,0
0.31,33.989,0
0.311,64.201,0
0.312,59.99,0
0.313,24.467,0
0.314,0.664,0
0.315,-12.154,0
0.316,-23.873,0
0.317,-27.352,0
0.318,-30.464,0
0.319,-33.394,0
0.32,-30.831,0
0.321,-28.45,0
0.322,-21.858,0
0.323,-19.844,0
0.324,-21.675,0
0.325,-16.731,0
0.326,-12.337,0
0.327,-11.055,0
0.328,-7.576,0
0.329,-8.675,0
0.33,-5.745,0
0.331,2.678,0
0.332,-0.618,0
0.333,4.326,0
0.334,3.41,0
0.335,2.678,0
0.336,4.875,0
0.337,5.424,0
0.338,8.537,0
0.339,4.692,0
0.34,3.41,0
0.341,5.607,0
0.342,3.593,0
0.343,1.03,0
0.344,2.861,0
0.345,3.044,0
0.346,3.776,0
0.347,4.509,0
0.348,7.622,0
0.349,3.044,0
0.35,1.213,0
0.351,6.34,0
0.352,5.791,0
0.353,3.959,0
0.354,0.114,0
0.355,5.607,0
0.356,1.762,0
0.357,0.847,0
0.358,0.297,0
0.359,9.819,0
0.36,24.833,0
0.361,51.018,0
0.362,75.92,0
0.363,59.807,0
0.364,27.214,0
0.365,-2.999,0
0.366,-14.717,0
0.367,-32.479,0
0.368,-29.366,0
0.369,-32.295,0
0.37,-34.859,0
0.371,-32.479,0
0.372,-30.281,0
0.373,-32.295,0
0.374,-26.802,0
0.375,-21.858,0
0.376,-14.351,0
0.377,-10.323,0
0.378,-11.421,0
0.379,-5.745,0
0.38,-8.675,0
0.381,-7.759,0
0.382,-5.379,0
0.383,-1.534,0
0.384,4.692,0
0.385,2.312,0
0.386,4.509,0
0.387,2.678,0
0.388,2.128,0
0.389,4.875,0
0.39,7.255,0
0.391,9.453,0
0.392,7.438,0
0.393,5.607,0
0.394,0.847,0
0.395,-0.984,0
0.396,1.762,0
0.397,4.143,0
0.398,1.945,0
0.399,3.959,0
0.4,2.861,0
0.401,7.622,0
0.402,3.227,0
0.403,2.678,0
0.404,3.044,0
0.405,4.326,0
0.406,6.34,0
0.407,5.974,0
0.408,1.579,0
0.409,4.143,0
0.41,8.72,0
0.411,12.016,0
0.412,21.538,0
0.413,42.045,0
0.414,62.736,0
0.415,22.453,0
0.416,5.241,0
0.417,-20.943,0
0.418,-25.704,0
0.419,-29.915,0
0.42,-33.76,0
0.421,-37.239,0
0.422,-34.126,0
0.423,-31.197,0
0.424,-23.323,0
0.425,-25.704,0
0.426,-14.717,0
0.427,-12.703,0
0.428,-14.534,0
0.429,-9.59,0
0.43,-5.196,0
0.431,-3.914,0
0.432,-0.435,0
0.433,2.861,0
0.434,3.776,0
0.435,1.03,0
0.436,3.41,0
0.437,2.678,0
0.438,2.128,0
0.439,-0.984,0
0.44,2.861,0
0.441,5.241,0
0.442,5.607,0
0.443,8.354,0
0.444,5.791,0
0.445,3.227,0
0.446,7.255,0
0.447,5.607,0
0.448,7.988,0
0.449,11.101,0
0.45,10.002,0
0.451,6.523,0
0.452,6.157,0
0.453,6.523,0
0.454,0.847,0
0.455,4.875,0
0.456,-0.435,0
0.457,-2.266,0
0.458,0.847,0
0.459,0.847,0
0.46,3.593,0
0.461,11.101,0
0.462,25.932,0
0.463,52.116,0
0.464,62.736,0
0.465,53.215,0
0.466,26.481,0
0.467,1.579,0
0.468,-20.943,0
0.469,-29.732,0
0.47,-37.605,0
0.471,-35.225,0
0.472,-33.028,0
0.473,-31.014,0
0.474,-29.183,0
0.475,-27.535,0
0.476,-23.14,0
0.477,-21.858,0
0.478,-18.379,0
0.479,-15.083,0
0.48,-12.154,0
0.481,-5.745,0
0.482,-6.478,0
0.483,-2.632,0
0.484,-2.083,0
0.485,-1.534,0
0.486,3.593,0
0.487,1.762,0
0.488,3.593,0
0.489,3.044,0
0.49,1.762,0
0.491,1.396,0
0.492,5.241,0
0.493,4.875,0
0.494,5.241,0
0.495,7.988,0
0.496,13.664,0
0.497,26.115,0
0.498,42.595,0
0.499,27.214,0
0.5,13.115,0
0.501,7.622,0
0.502,2.678,0
0.503,-1.717,0
0.504,-2.999,0
0.505,-6.478,0
0.506,-9.773,0
0.507,-6.844,0
0.508,-5.928,0
0.509,-5.196,0
0.51,-9.407,0
0.511,-7.21,0
0.512,3.044,0
0.513,22.636,0
0.514,41.313,0
0.515,53.398,0
0.516,68.779,0
0.517,54.68,0
0.518,30.876,0
0.519,-4.83,0
0.52,-28.633,0
0.521,-32.845,0
0.522,-36.69,0
0.523,-40.169,0
0.524,-37.056,0
0.525,-39.986,0
0.526,-32.112,0
0.527,-29.732,0
0.528,-31.929,0
0.529,-25.887,0
0.53,-16.731,0
0.531,-21.675,0
0.532,-11.238,0
0.533,-9.957,0
0.534,-6.478,0
0.535,-3.182,0
0.536,-2.266,0
0.537,-1.351,0
0.538,1.03,0
0.539,3.227,0
0.54,2.678,0
0.541,4.509,0
0.542,8.354,0
0.543,2.861,0
0.544,6.706,0
0.545,6.157,0
0.546,7.988,0
0.547,8.537,0
0.548,8.903,0
0.549,11.101,0
0.55,10.002,0
0.551,10.368,0
0.552,7.805,0
0.553,7.988,0
0.554,9.819,0
0.555,5.791,0
0.556,4.143,0
0.557,4.509,0
0.558,1.396,0
0.559,2.495,0
0.56,1.396,0
0.561,3.776,0
0.562,4.143,0
0.563,7.438,0
0.564,8.72,0
0.565,14.946,0
0.566,28.862,0
0.567,59.074,0
0.568,28.862,0
0.569,1.396,0
0.57,-16.365,0
0.571,-25.887,0
0.572,-28.816,0
0.573,-31.38,0
0.574,-29,0
0.575,-31.197,0
0.576,-25.154,0
0.577,-23.323,0
0.578,-21.675,0
0.579,-17.281,0
0.58,-15.999,0
0.581,-14.9,0
0.582,-9.224,0
0.583,-6.294,0
0.584,-5.379,0
0.585,-2.999,0
0.586,0.847,0
0.587,1.396,0
0.588,0.847,0
0.589,2.495,0
0.59,1.213,0
0.591,3.41,0
0.592,2.312,0
0.593,-0.252,0
0.594,5.241,0
0.595,1.396,0
0.596,7.622,0
0.597,5.241,0
0.598,7.438,0
0.599,6.889,0
0.6,3.776,0
0.601,3.227,0
0.602,3.593,0
0.603,-0.618,0
0.604,2.128,0
0.605,2.495,0
0.606,5.607,0
0.607,2.861,0
0.608,1.762,0
0.609,2.861,0
0.61,-0.435,0
0.611,-0.801,0
0.612,1.579,0
0.613,2.678,0
0.614,8.354,0
0.615,20.805,0
0.616,48.271,0
0.617,67.863,0
0.618,71.342,0
0.619,48.82,0
0.62,10.185,0
0.621,-15.999,0
0.622,-20.76,0
0.623,-24.971,0
0.624,-36.69,0
0.625,-40.169,0
0.626,-37.056,0
0.627,-34.126,0
0.628,-31.563,0
0.629,-29.183,0
0.63,-22.591,0
0.631,-28.633,0
0.632,-19.478,0
0.633,-17.83,0
0.634,-13.436,0
0.635,-14.717,0
0.636,-8.675,0
0.637,-7.576,0
0.638,-0.618,0
0.639,0.297,0
0.64,1.03,0
0.641,0.297,0
0.642,6.523,0
0.643,7.255,0
0.644,9.453,0
0.645,8.903,0
0.646,8.354,0
0.647,8.903,0
0.648,9.27,0
0.649,7.072,0
0.65,4.326,0
0.651,8.537,0
0.652,9.086,0
0.653,7.805,0
0.654,5.607,0
0.655,4.509,0
0.656,2.678,0
0.657,3.776,0
0.658,3.044,0
0.659,1.213,0
0.66,5.241,0
0.661,5.791,0
0.662,4.509,0
0.663,4.509,0
0.664,4.143,0
0.665,9.636,0
0.666,18.059,0
0.667,35.087,0
0.668,51.933,0
0.669,54.13,0
0.67,44.06,0
0.671,60.539,0
0.672,62.736,0
0.673,36.552,0
0.674,-9.957,0
0.675,-28.816,0
0.676,-46.028,0
0.677,-51.155,0
0.678,-55.916,0
0.679,-51.705,0
0.68,-47.859,0
0.681,-44.38,0
0.682,-47.493,0
0.683,-38.704,0
0.684,-30.831,0
0.685,-23.689,0
0.686,-17.098,0
0.687,-15.083,0
0.688,-16.915,0
0.689,-15.267,0
0.69,-10.872,0
0.691,-4.097,0
0.692,1.945,0
0.693,-1.351,0
0.694,3.593,0
0.695,8.171,0
0.696,7.438,0
0.697,8.171,0
0.698,8.72,0
0.699,8.171,0
0.7,8.72,0
0.701,8.354,0
0.702,11.467,0
0.703,10.368,0
0.704,9.27,0
0.705,6.706,0
0.706,7.438,0
0.707,5.607,0
0.708,3.776,0
0.709,4.326,0
0.71,7.622,0
0.711,9.819,0
0.712,4.326,0
0.713,6.523,0
0.714,5.241,0
0.715,5.791,0
0.716,7.622,0
0.717,16.044,0
0.718,34.538,0
0.719,64.018,0
0.72,60.173,0
0.721,63.652,0
0.722,73.173,0
0.723,46.44,0
0.724,7.072,0
0.725,-19.112,0
0.726,-42.916,0
0.727,-47.127,0
0.728,-50.972,0
0.729,-54.451,0
0.73,-51.338,0
0.731,-42.549,0
0.732,-39.986,0
0.733,-32.845,0
0.734,-30.647,0
0.735,-24.605,0
0.736,-19.112,0
0.737,-17.464,0
0.738,-13.069,0
0.739,-11.788,0
0.74,-5.745,0
0.741,-0.069,0
0.742,13.115,0
0.743,29.594,0
0.744,31.792,0
0.745,13.664,0
0.746,6.523,0
0.747,4.326,0
0.748,2.312,0
0.749,4.143,0
0.75,-0.801,0
0.751,0.664,0
0.752,1.945,0
0.753,-4.097,0
0.754,-7.393,0
0.755,-6.478,0
0.756,-3.731,0
0.757,-4.463,0
0.758,-5.196,0
0.759,-3.365,0
0.76,-0.252,0
0.761,1.396,0
0.762,3.776,0
0.763,1.579,0
0.764,6.157,0
0.765,7.438,0
0.766,9.27,0
0.767,17.692,0
0.768,36.186,0
0.769,71.159,0
0.77,75.92,0
0.771,54.313,0
0.772,18.791,0
0.773,4.509,0
0.774,-8.309,0
0.775,-20.027,0
0.776,-23.506,0
0.777,-26.619,0
0.778,-29.549,0
0.779,-26.985,0
0.78,-24.605,0
0.781,-26.802,0
0.782,-16.731,0
0.783,-14.9,0
0.784,-16.548,0
0.785,-12.154,0
0.786,-5.379,0
0.787,-8.858,0
0.788,-3.182,0
0.789,1.762,0
0.79,0.847,0
0.791,-1.534,0
0.792,-3.731,0
0.793,-0.435,0
0.794,1.396,0
0.795,5.241,0
0.796,3.959,0
0.797,5.241,0
0.798,9.086,0
0.799,4.509,0
0.8,6.34,0
0.801,6.889,0
0.802,8.171,0
0.803,8.537,0
0.804,4.692,0
0.805,7.988,0
0.806,9.27,0
0.807,4.692,0
0.808,0.297,0
0.809,-0.252,0
0.81,1.03,0
0.811,-0.252,0
0.812,1.762,0
0.813,2.128,0
0.814,1.762,0
0.815,-2.815,0
0.816,-2.815,0
0.817,1.762,0
0.818,11.284,0
0.819,29.045,0
0.82,36.186,0
0.821,60.539,0
0.822,70.061,0
0.823,55.229,0
0.824,14.946,0
0.825,-13.802,0
0.826,-29.366,0
0.827,-34.126,0
0.828,-29.915,0
0.829,-33.76,0
0.83,-37.239,0
0.831,-27.718,0
0.832,-24.788,0
0.833,-22.225,0
0.834,-24.605,0
0.835,-22.408,0
0.836,-16.365,0
0.837,-10.872,0
0.838,-12.52,0
0.839,-8.125,0
0.84,-6.844,0
0.841,-10.323,0
0.842,-9.224,0
0.843,-4.28,0
0.844,-3.365,0
0.845,-0.984,0
0.846,-1.717,0
0.847,-6.294,0
0.848,-1.9,0
0.849,-2.449,0
0.85,5.058,0
0.851,3.959,0
0.852,4.875,0
0.853,2.128,0
0.854,6.157,0
0.855,6.889,0
0.856,7.438,0
0.857,10.551,0
0.858,10.002,0
0.859,11.284,0
0.86,10.002,0
0.861,8.903,0
0.862,6.34,0
0.863,3.776,0
0.864,1.762,0
0.865,2.495,0
0.866,2.312,0
0.867,0.847,0
0.868,2.312,0
0.869,5.607,0
0.87,12.565,0
0.871,27.763,0
0.872,60.905,0
0.873,56.145,0
0.874,25.932,0
0.875,-1.534,0
0.876,-19.295,0
0.877,-22.408,0
0.878,-31.197,0
0.879,-28.633,0
0.88,-31.014,0
0.881,-24.422,0
0.882,-26.436,0
0.883,-24.605,0
0.884,-22.957,0
0.885,-18.563,0
0.886,-17.281,0
0.887,-11.238,0
0.888,-7.942,0
0.889,-5.013,0
0.89,-2.266,0
0.891,-1.534,0
0.892,0.664,0
0.893,1.213,0
0.894,1.762,0
0.895,3.41,0
0.896,1.03,0
0.897,4.143,0
0.898,3.776,0
0.899,4.875,0
0.9,3.776,0
0.901,2.312,0
0.902,4.143,0
0.903,8.171,0
0.904,5.424,0
0.905,6.706,0
0.906,7.072,0
0.907,8.171,0
0.908,5.607,0
0.909,3.044,0
0.91,1.579,0
0.911,0.847,0
0.912,-2.083,0
0.913,3.593,0
0.914,2.861,0
0.915,-0.984,0
0.916,-0.435,0
0.917,-0.984,0
0.918,-1.351,0
0.919,1.396,0
0.92,8.903,0
0.921,21.354,0
0.922,39.665,0
0.923,46.806,0
0.924,35.82,0
0.925,45.891,0
0.926,40.397,0
0.927,38.75,0
0.928,31.242,0
0.929,35.271,0
0.93,43.693,0
0.931,26.665,0
0.932,-9.773,0
0.933,-35.958,0
0.934,-59.761,0
0.935,-63.973,0
0.936,-60.127,0
0.937,-63.606,0
0.938,-54.085,0
0.939,-51.155,0
0.94,-48.592,0
0.941,-41.451,0
0.942,-34.859,0
0.943,-28.816,0
0.944,-23.323,0
0.945,-18.379,0
0.946,-13.985,0
0.947,-9.957,0
0.948,-6.478,0
0.949,-0.801,0
0.95,6.157,0
0.951,1.579,0
0.952,5.607,0
0.953,7.805,0
0.954,5.974,0
0.955,6.523,0
0.956,7.072,0
0.957,8.354,0
0.958,11.467,0
0.959,11.101,0
0.96,16.777,0
0.961,16.044,0
0.962,16.777,0
0.963,13.481,0
0.964,12.932,0
0.965,9.086,0
0.966,11.467,0
0.967,14.58,0
0.968,11.833,0
0.969,7.438,0
0.97,7.805,0
0.971,13.298,0
0.972,24.833,0
0.973,49.736,0
0.974,67.497,0
0.975,57.976,0
0.976,37.285,0
0.977,7.805,0
0.978,-3.914,0
0.979,-7.393,0
0.98,-16.915,0
0.981,-8.125,0
0.982,-10.689,0
0.983,-3.548,0
0.984,3.044,0
0.985,9.086,0
0.986,7.255,0
0.987,8.903,0
0.988,13.298,0
0.989,31.059,0
0.99,23.918,0
0.991,8.537,0
0.992,-9.59,0
0.993,-26.436,0
0.994,-41.817,0
0.995,-47.859,0
0.996,-53.353,0
0.997,-58.296,0
0.998,-53.902,0
0.999,-47.127,0
1,-31.014,0
1.001,-28.816,0
1.002,-46.944,0
1.003,-59.029,0
1.004,-70.015,0
1.005,-100.23,0
1.006,-113.05,0
1.007,-109.2,0
1.008,-119.82,0
1.009,-135.93,0
1.01,-138.86,0
1.011,-146.74,0
1.012,-134.65,0
1.013,-119.27,0
1.014,-105.17,0
1.015,-77.706,0
1.016,-18.563,0
1.017,91.667,0
1.018,136.71,0
1.019,177.54,0
1.02,160.51,0
1.021,123.16,0
1.022,134.33,0
1.023,124.08,0
1.024,152.09,0
1.025,177.36,0
1.026,185.05,0
1.027,164.18,0
1.028,157.95,0
1.029,152.28,0
1.03,147.15,0
1.031,142.39,0
1.032,120.78,0
1.033,109.06,0
1.034,105.58,0
1.035,76.286,0
1.036,56.694,0
1.037,31.792,0
1.038,22.27,0
1.039,13.481,0
1.04,16.044,0
1.041,13.664,0
1.042,2.678,0
1.043,-7.393,0
1.044,-12.886,0
1.045,-21.126,0
1.046,-28.633,0
1.047,-21.858,0
1.048,-30.281,0
1.049,-40.535,0
1.05,-44.563,0
1.051,-48.042,0
1.052,-51.338,0
1.053,-52.254,0
1.054,-56.832,0
1.055,-59.212,0
1.056,-61.409,0
1.057,-63.24,0
1.058,-67.635,0
1.059,-74.959,0
1.06,-77.889,0
1.061,-71.48,0
1.062,-70.748,0
1.063,-65.438,0
1.064,-63.606,0
1.065,-59.212,0
1.066,-54.085,0
1.067,-52.254,0
1.068,-46.578,0
1.069,-39.62,0
1.07,-31.197,0
1.071,-26.253,0
1.072,-25.154,0
1.073,-9.957,0
1.074,5.424,0
1.075,27.58,0
1.076,42.412,0
1.077,66.582,0
1.078,44.06,0
1.079,46.989,0
1.08,33.623,0
1.081,31.242,0
1.082,46.623,0
1.083,20.439,0
1.084,-18.929,0
1.085,-45.113,0
1.086,-59.395,0
1.087,-63.606,0
1.088,-67.452,0
1.089,-70.931,0
1.09,-61.409,0
1.091,-52.62,0
1.092,-44.747,0
1.093,-37.605,0
1.094,-31.014,0
1.095,-24.971,0
1.096,-15.816,0
1.097,-10.872,0
1.098,-3.365,0
1.099,0.664,0
1.1,4.143,0
1.101,9.819,0
1.102,12.749,0
1.103,11.833,0
1.104,14.213,0
1.105,16.411,0
1.106,15.861,0
1.107,16.411,0
1.108,18.059,0
1.109,16.777,0
1.11,18.974,0
1.111,20.988,0
1.112,19.157,0
1.113,20.988,0
1.114,18.974,0
1.115,22.636,0
1.116,23.918,0
1.117,21.721,0
1.118,21.354,0
1.119,19.523,0
1.12,19.157,0
1.121,17.143,0
1.122,15.495,0
1.123,14.213,0
1.124,18.242,0
1.125,26.665,0
1.126,45.158,0
1.127,74.638,0
1.128,86.357,0
1.129,61.455,0
1.13,25.749,0
1.131,1.945,0
1.132,-19.661,0
1.133,-31.38,0
1.134,-34.859,0
1.135,-37.972,0
1.136,-40.901,0
1.137,-38.338,0
1.138,-35.958,0
1.139,-33.76,0
1.14,-31.746,0
1.141,-26.253,0
1.142,-21.309,0
1.143,-16.915,0
1.144,-12.886,0
1.145,-6.844,0
1.146,-7.942,0
1.147,-2.999,0
1.148,-0.252,0
1.149,0.48,0
1.15,5.791,0
1.151,7.622,0
1.152,9.453,0
1.153,4.326,0
1.154,7.622,0
1.155,7.072,0
1.156,3.227,0
1.157,5.607,0
1.158,3.41,0
1.159,6.157,0
1.16,7.988,0
1.161,8.354,0
1.162,8.171,0
1.163,3.959,0
1.164,2.128,0
1.165,4.875,0
1.166,4.509,0
1.167,3.227,0
1.168,5.241,0
1.169,4.143,0
1.17,6.706,0
1.171,5.241,0
1.172,7.072,0
1.173,1.579,0
1.174,1.762,0
1.175,5.241,0
1.176,12.749,0
1.177,29.777,0
1.178,66.215,0
1.179,71.342,0
1.18,38.017,0
1.181,-0.984,0
1.182,-16.548,0
1.183,-21.309,0
1.184,-25.521,0
1.185,-29.366,0
1.186,-32.845,0
1.187,-35.958,0
1.188,-38.887,0
1.189,-31.014,0
1.19,-28.633,0
1.191,-26.436,0
1.192,-24.422,0
1.193,-18.929,0
1.194,-17.281,0
1.195,-9.773,0
1.196,-11.055,0
1.197,-7.576,0
1.198,-1.9,0
1.199,-2.815,0
1.2,-0.069,0
1.201,3.959,0
1.202,3.227,0
1.203,5.058,0
1.204,3.227,0
1.205,2.678,0
1.206,2.312,0
1.207,9.27,0
1.208,8.354,0
1.209,5.607,0
1.21,9.636,0
1.211,5.791,0
1.212,2.495,0
1.213,4.326,0
1.214,4.875,0
1.215,0.297,0
1.216,4.692,0
1.217,4.143,0
1.218,5.424,0
1.219,5.791,0
1.22,1.945,0
1.221,4.326,0
1.222,3.959,0
1.223,0.114,0
1.224,3.044,0
1.225,-0.252,0
1.226,3.959,0
1.227,0.114,0
1.228,0.48,0
1.229,-1.717,0
1.23,-3.731,0
1.231,-4.83,0
1.232,-0.069,0
1.233,-0.618,0
1.234,7.805,0
1.235,23.918,0
1.236,26.115,0
1.237,7.988,0
1.238,10.368,0
1.239,34.721,0
1.24,44.243,0
1.241,53.032,0
1.242,45.158,0
1.243,47.539,0
1.244,58.525,0
1.245,36.369,0
1.246,-8.125,0
1.247,-39.803,0
1.248,-45.479,0
1.249,-61.043,0
1.25,-56.282,0
1.251,-60.494,0
1.252,-56.648,0
1.253,-46.028,0
1.254,-49.141,0
1.255,-34.31,0
1.256,-31.746,0
1.257,-29.366,0
1.258,-22.774,0
1.259,-20.76,0
1.26,-15.267,0
1.261,-10.323,0
1.262,-2.815,0
1.263,1.213,0
1.264,0.114,0
1.265,3.41,0
1.266,8.354,0
1.267,11.101,0
1.268,13.481,0
1.269,15.678,0
1.27,13.847,0
1.271,13.298,0
1.272,12.749,0
1.273,12.382,0
1.274,12.016,0
1.275,14.03,0
1.276,11.284,0
1.277,16.96,0
1.278,29.411,0
1.279,56.877,0
1.28,76.469,0
1.281,65.849,0
1.282,36.552,0
1.283,9.086,0
1.284,-8.675,0
1.285,-18.196,0
1.286,-26.985,0
1.287,-34.859,0
1.288,-32.479,0
1.289,-34.676,0
1.29,-32.662,0
1.291,-23.506,0
1.292,-25.154,0
1.293,-20.76,0
1.294,-16.731,0
1.295,-17.83,0
1.296,-14.534,0
1.297,-9.59,0
1.298,-6.844,0
1.299,-2.815,0
1.3,2.495,0
1.301,8.72,0
1.302,4.692,0
1.303,2.495,0
1.304,-0.801,0
1.305,1.03,0
1.306,0.48,0
1.307,2.861,0
1.308,1.579,0
1.309,2.678,0
1.31,4.509,0
1.311,1.945,0
1.312,-0.801,0
1.313,2.678,0
1.314,4.875,0
1.315,7.622,0
1.316,6.523,0
1.317,8.354,0
1.318,6.889,0
1.319,8.171,0
1.32,9.453,0
1.321,5.974,0
1.322,0.48,0
1.323,4.326,0
1.324,6.157,0
1.325,4.326,0
1.326,0.847,0
1.327,3.593,0
1.328,11.101,0
1.329,25.932,0
1.33,48.088,0
1.331,62.919,0
1.332,65.483,0
1.333,53.398,0
1.334,64.384,0
1.335,66.398,0
1.336,38.933,0
1.337,-4.463,0
1.338,-33.211,0
1.339,-48.775,0
1.34,-63.057,0
1.341,-58.846,0
1.342,-62.691,0
1.343,-52.071,0
1.344,-48.958,0
1.345,-46.028,0
1.346,-43.465,0
1.347,-36.324,0
1.348,-29.732,0
1.349,-27.718,0
1.35,-18.563,0
1.351,-10.323,0
1.352,-8.858,0
1.353,-2.083,0
1.354,-3.182,0
1.355,-4.28,0
1.356,-1.351,0
1.357,-0.435,0
1.358,3.593,0
1.359,8.903,0
1.36,8.354,0
1.361,10.185,0
1.362,10.734,0
1.363,7.438,0
1.364,7.072,0
1.365,7.438,0
1.366,7.805,0
1.367,9.636,0
1.368,9.819,0
1.369,13.481,0
1.37,20.073,0
1.371,11.65,0
1.372,8.354,0
1.373,5.424,0
1.374,8.171,0
1.375,7.438,0
1.376,8.171,0
1.377,7.438,0
1.378,5.607,0
1.379,12.565,0
1.38,26.481,0
1.381,52.666,0
1.382,70.427,0
1.383,54.313,0
1.384,39.482,0
1.385,4.509,0
1.386,-19.295,0
1.387,-32.112,0
1.388,-28.267,0
1.389,-31.746,0
1.39,-34.859,0
1.391,-31.929,0
1.392,-29.366,0
1.393,-26.985,0
1.394,-24.788,0
1.395,-22.774,0
1.396,-17.281,0
1.397,-12.337,0
1.398,-10.872,0
1.399,-6.844,0
1.4,-5.745,0
1.401,-4.646,0
1.402,0.297,0
1.403,3.044,0
1.404,0.664,0
1.405,4.509,0
1.406,2.678,0
1.407,2.128,0
1.408,2.678,0
1.409,1.396,0
1.41,3.593,0
1.411,6.34,0
1.412,3.776,0
1.413,9.27,0
1.414,7.072,0
1.415,7.622,0
1.416,4.509,0
1.417,7.255,0
1.418,2.678,0
1.419,5.791,0
1.42,3.044,0
1.421,-1.534,0
1.422,2.861,0
1.423,5.607,0
1.424,4.326,0
1.425,5.607,0
1.426,2.861,0
1.427,2.495,0
1.428,4.509,0
1.429,3.41,0
1.43,7.988,0
1.431,18.242,0
1.432,40.764,0
1.433,63.286,0
1.434,78.117,0
1.435,53.947,0
1.436,11.65,0
1.437,-17.098,0
1.438,-22.225,0
1.439,-36.507,0
1.44,-32.295,0
1.441,-44.014,0
1.442,-33.394,0
1.443,-36.507,0
1.444,-33.577,0
1.445,-31.014,0
1.446,-28.633,0
1.447,-22.042,0
1.448,-15.999,0
1.449,-10.506,0
1.45,-8.858,0
1.451,-10.323,0
1.452,-6.294,0
1.453,-2.815,0
1.454,-6.111,0
1.455,-1.167,0
1.456,1.579,0
1.457,0.847,0
1.458,1.579,0
1.459,2.128,0
1.46,5.241,0
1.461,5.791,0
1.462,7.072,0
1.463,9.27,0
1.464,8.171,0
1.465,10.002,0
1.466,8.903,0
1.467,9.636,0
1.468,9.819,0
1.469,5.791,0
1.47,6.34,0
1.471,9.636,0
1.472,8.354,0
1.473,4.509,0
1.474,4.143,0
1.475,1.945,0
1.476,0.847,0
1.477,5.058,0
1.478,5.607,0
1.479,0.847,0
1.48,8.354,0
1.481,25.383,0
1.482,23.002,0
1.483,7.622,0
1.484,1.579,0
1.485,14.396,0
1.486,36.003,0
1.487,44.792,0
1.488,63.469,0
1.489,56.328,0
1.49,23.186,0
1.491,-10.14,0
1.492,-31.746,0
1.493,-43.465,0
1.494,-46.944,0
1.495,-56.465,0
1.496,-47.676,0
1.497,-45.113,0
1.498,-33.028,0
1.499,-35.225,0
1.5,-25.154,0
1.501,-26.985,0
1.502,-18.746,0
1.503,-14.351,0
1.504,-15.633,0
1.505,-9.59,0
1.506,-10.689,0
1.507,-7.759,0
1.508,-1.351,0
1.509,-0.618,0
1.51,1.579,0
1.511,7.805,0
1.512,3.776,0
1.513,5.974,0
1.514,10.551,0
1.515,12.382,0
1.516,12.932,0
1.517,9.636,0
1.518,10.917,0
1.519,6.34,0
1.52,8.171,0
1.521,10.917,0
1.522,8.537,0
1.523,8.903,0
1.524,5.058,0
1.525,9.636,0
1.526,6.523,0
1.527,2.678,0
1.528,3.044,0
1.529,8.171,0
1.53,8.171,0
1.531,11.467,0
1.532,20.988,0
1.533,33.256,0
1.534,58.159,0
1.535,61.638,0
1.536,64.75,0
1.537,32.158,0
1.538,1.945,0
1.539,-17.647,0
1.54,-21.126,0
1.541,-30.647,0
1.542,-33.577,0
1.543,-36.141,0
1.544,-33.76,0
1.545,-31.563,0
1.546,-33.577,0
1.547,-35.408,0
1.548,-23.873,0
1.549,-16.365,0
1.55,-15.083,0
1.551,-16.182,0
1.552,-12.886,0
1.553,-7.942,0
1.554,0.48,0
1.555,-2.815,0
1.556,0.114,0
1.557,1.03,0
1.558,5.058,0
1.559,2.861,0
1.56,1.03,0
1.561,2.861,0
1.562,4.509,0
1.563,7.805,0
1.564,8.171,0
1.565,8.537,0
1.566,3.593,0
1.567,4.143,0
1.568,3.593,0
1.569,5.241,0
1.57,-0.252,0
1.571,-4.097,0
1.572,-2.266,0
1.573,-0.435,0
1.574,1.213,0
1.575,-0.069,0
1.576,1.213,0
1.577,3.959,0
1.578,2.861,0
1.579,6.889,0
1.58,5.607,0
1.581,5.974,0
1.582,6.34,0
1.583,12.565,0
1.584,26.481,0
1.585,56.694,0
1.586,78.3,0
1.587,58.708,0
1.588,26.481,0
1.589,-3.731,0
1.59,-23.323,0
1.591,-26.802,0
1.592,-29.915,0
1.593,-26.985,0
1.594,-29.549,0
1.595,-27.168,0
1.596,-20.577,0
1.597,-22.591,0
1.598,-20.76,0
1.599,-19.112,0
1.6,-14.717,0
1.601,-10.689,0
1.602,-11.788,0
1.603,-8.492,0
1.604,-3.548,0
1.605,-6.294,0
1.606,-5.562,0
1.607,-4.83,0
1.608,-5.379,0
1.609,-2.266,0
1.61,-1.717,0
1.611,3.776,0
1.612,-0.069,0
1.613,-3.365,0
1.614,-0.252,0
1.615,8.171,0
1.616,4.692,0
1.617,5.791,0
1.618,6.706,0
1.619,7.622,0
1.62,3.593,0
1.621,-1.717,0
1.622,-5.013,0
1.623,-3.182,0
1.624,-1.534,0
1.625,-1.167,0
1.626,3.959,0
1.627,4.509,0
1.628,10.185,0
1.629,9.453,0
1.63,8.903,0
1.631,3.227,0
1.632,0.847,0
1.633,-1.351,0
1.634,8.903,0
1.635,25.383,0
1.636,54.13,0
1.637,57.976,0
1.638,61.455,0
1.639,70.976,0
1.64,68.046,0
1.641,33.073,0
1.642,-9.957,0
1.643,-27.168,0
1.644,-42.732,0
1.645,-47.493,0
1.646,-51.705,0
1.647,-47.859,0
1.648,-51.338,0
1.649,-41.817,0
1.65,-38.887,0
1.651,-36.324,0
1.652,-33.943,0
1.653,-31.746,0
1.654,-25.704,0
1.655,-20.21,0
1.656,-11.971,0
1.657,-10.506,0
1.658,-3.731,0
1.659,-2.632,0
1.66,-3.731,0
1.661,-0.801,0
1.662,1.945,0
1.663,4.326,0
1.664,11.284,0
1.665,10.368,0
1.666,11.101,0
1.667,13.298,0
1.668,15.129,0
1.669,15.678,0
1.67,17.326,0
1.671,9.819,0
1.672,1.945,0
1.673,4.875,0
1.674,0.297,0
1.675,2.678,0
1.676,4.875,0
1.677,3.044,0
1.678,4.875,0
1.679,10.002,0
1.68,8.171,0
1.681,1.213,0
1.682,-1.534,0
1.683,-2.083,0
1.684,-1.351,0
1.685,10.185,0
1.686,21.721,0
1.687,41.313,0
1.688,59.99,0
1.689,72.075,0
1.69,56.694,0
1.691,26.481,0
1.692,-3.731,0
1.693,-15.45,0
1.694,-26.07,0
1.695,-29.183,0
1.696,-32.112,0
1.697,-29.549,0
1.698,-27.168,0
1.699,-20.577,0
1.7,-14.534,0
1.701,-16.365,0
1.702,-18.013,0
1.703,-16.548,0
1.704,-12.52,0
1.705,-15.999,0
1.706,-10.323,0
1.707,-5.379,0
1.708,-2.632,0
1.709,-6.661,0
1.71,-8.858,0
1.711,-8.309,0
1.712,-5.196,0
1.713,-6.844,0
1.714,-3.548,0
1.715,1.579,0
1.716,-0.252,0
1.717,-0.801,0
1.718,-1.351,0
1.719,1.945,0
1.72,4.143,0
1.721,6.157,0
1.722,5.791,0
1.723,6.157,0
1.724,5.974,0
1.725,10.185,0
1.726,19.707,0
1.727,40.214,0
1.728,25.383,0
1.729,6.706,0
1.73,4.326,0
1.731,-2.266,0
1.732,-4.28,0
1.733,-9.773,0
1.734,-10.14,0
1.735,-8.492,0
1.736,1.945,0
1.737,22.453,0
1.738,49.187,0
1.739,66.948,0
1.74,44.426,0
1.741,11.833,0
1.742,-9.773,0
1.743,-21.492,0
1.744,-24.971,0
1.745,-28.084,0
1.746,-31.014,0
1.747,-28.45,0
1.748,-26.07,0
1.749,-23.873,0
1.75,-17.83,0
1.751,-15.999,0
1.752,-17.647,0
1.753,-19.112,0
1.754,-15.083,0
1.755,-3.914,0
1.756,-5.379,0
1.757,-9.407,0
1.758,-5.928,0
1.759,-0.252,0
1.76,4.692,0
1.761,3.776,0
1.762,7.805,0
1.763,8.537,0
1.764,7.988,0
1.765,7.438,0
1.766,5.791,0
1.767,7.072,0
1.768,5.791,0
1.769,3.776,0
1.77,2.678,0
1.771,3.776,0
1.772,1.762,0
1.773,-1.9,0
1.774,0.48,0
1.775,5.607,0
1.776,6.157,0
1.777,3.044,0
1.778,0.297,0
1.779,0.664,0
1.78,4.875,0
1.781,4.326,0
1.782,4.692,0
1.783,4.326,0
1.784,7.072,0
1.785,8.171,0
1.786,7.072,0
1.787,12.565,0
1.788,24.101,0
1.789,49.003,0
1.79,59.624,0
1.791,82.146,0
1.792,96.977,0
1.793,78.3,0
1.794,41.862,0
1.795,5.241,0
1.796,-18.563,0
1.797,-22.774,0
1.798,-34.493,0
1.799,-37.972,0
1.8,-41.084,0
1.801,-49.874,0
1.802,-57.747,0
1.803,-60.127,0
1.804,-62.325,0
1.805,-64.339,0
1.806,-58.846,0
1.807,-43.831,0
1.808,-29.732,0
1.809,-24.239,0
1.81,-25.887,0
1.811,-42.366,0
1.812,-57.747,0
1.813,-75.875,0
1.814,-92.72,0
1.815,-99.312,0
1.816,-105.35,0
1.817,-114.51,0
1.818,-126.05,0
1.819,-139.59,0
1.82,-130.44,0
1.821,-128.79,0
1.822,-112.31,0
1.823,-79.17,0
1.824,-17.098,0
1.825,76.103,0
1.826,138.36,0
1.827,149.53,0
1.828,159.78,0
1.829,131.77,0
1.83,106.5,0
1.831,83.427,0
1.832,76.469,0
1.833,70.244,0
1.834,75.92,0
1.835,102.1,0
1.836,126.82,0
1.837,141.1,0
1.838,153.92,0
1.839,157.77,0
1.84,168.39,0
1.841,171.5,0
1.842,192.19,0
1.843,168.02,0
1.844,119.32,0
1.845,70.427,0
1.846,26.115,0
1.847,20.439,0
1.848,15.312,0
1.849,10.551,0
1.85,-2.266,0
1.851,-13.985,0
1.852,-17.464,0
1.853,-20.577,0
1.854,-35.408,0
1.855,-48.775,0
1.856,-41.634,0
1.857,-48.226,0
1.858,-50.24,0
1.859,-55.733,0
1.86,-50.789,0
1.861,-49.324,0
1.862,-48.042,0
1.863,-51.521,0
1.864,-50.423,0
1.865,-55.367,0
1.866,-59.944,0
1.867,-62.325,0
1.868,-64.522,0
1.869,-66.353,0
1.87,-66.902,0
1.871,-61.775,0
1.872,-61.226,0
1.873,-55.55,0
1.874,-53.353,0
1.875,-47.127,0
1.876,-44.747,0
1.877,-44.014,0
1.878,-37.789,0
1.879,-28.633,0
1.88,-27.535,0
1.881,-24.239,0
1.882,-17.281,0
1.883,-12.703,0
1.884,-13.436,0
1.885,-9.59,0
1.886,-12.886,0
1.887,-5.745,0
1.888,-7.576,0
1.889,0.847,0
1.89,16.96,0
1.891,50.102,0
1.892,64.384,0
1.893,77.202,0
1.894,49.736,0
1.895,10.368,0
1.896,-5.196,0
1.897,-19.478,0
1.898,-23.689,0
1.899,-27.535,0
1.9,-31.014,0
1.901,-27.901,0
1.902,-24.971,0
1.903,-22.408,0
1.904,-15.267,0
1.905,-13.069,0
1.906,-11.055,0
1.907,-5.562,0
1.908,-7.21,0
1.909,-5.745,0
1.91,-1.717,0
1.911,-2.815,0
1.912,2.861,0
1.913,5.791,0
1.914,6.706,0
1.915,10.734,0
1.916,10.002,0
1.917,10.551,0
1.918,13.664,0
1.919,14.213,0
1.92,13.847,0
1.921,13.481,0
1.922,13.847,0
1.923,15.678,0
1.924,14.58,0
1.925,14.763,0
1.926,12.932,0
1.927,10.551,0
1.928,7.255,0
1.929,8.537,0
1.93,5.791,0
1.931,8.354,0
1.932,7.988,0
1.933,8.171,0
1.934,4.509,0
1.935,6.889,0
1.936,1.762,0
1.937,1.213,0
1.938,1.579,0
1.939,4.692,0
1.94,13.115,0
1.941,21.538,0
1.942,38.566,0
1.943,75.004,0
1.944,59.44,0
1.945,26.115,0
1.946,-4.097,0
1.947,-15.816,0
1.948,-19.295,0
1.949,-28.816,0
1.95,-25.887,0
1.951,-28.45,0
1.952,-26.07,0
1.953,-23.873,0
1.954,-25.887,0
1.955,-24.056,0
1.956,-19.112,0
1.957,-14.717,0
1.958,-13.436,0
1.959,-9.957,0
1.96,-6.661,0
1.961,-7.576,0
1.962,-2.999,0
1.963,-2.266,0
1.964,-1.534,0
1.965,1.762,0
1.966,4.875,0
1.967,8.72,0
1.968,10.002,0
1.969,3.959,0
1.97,3.227,0
1.971,11.65,0
1.972,28.679,0
1.973,31.059,0
1.974,20.073,0
1.975,5.974,0
1.976,0.48,0
1.977,-1.167,0
1.978,-5.562,0
1.979,-6.844,0
1.98,-10.323,0
1.981,-11.421,0
1.982,-10.506,0
1.983,-9.59,0
1.984,-8.858,0
1.985,-5.013,0
1.986,-1.717,0
1.987,1.396,0
1.988,-3.731,0
1.989,3.776,0
1.99,4.326,0
1.991,13.847,0
1.992,31.608,0
1.993,48.454,0
1.994,55.046,0
1.995,73.173,0
1.996,61.088,0
1.997,27.946,0
1.998,-5.379,0
1.999,-26.985,0
2,-30.831,0
2.001,-41.451,0
2.002,-44.563,0
2.003,-41.634,0
2.004,-39.07,0
2.005,-36.69,0
2.006,-25.704,0
2.007,-23.689,0
2.008,-21.858,0
2.009,-16.915,0
2.01,-15.45,0
2.011,-14.168,0
2.012,-0.618,0
2.013,-6.111,0
2.014,2.128,0
2.015,0.664,0
2.016,4.692,0
2.017,1.213,0
2.018,0.114,0
2.019,-0.801,0
2.02,-3.548,0
2.021,0.48,0
2.022,2.678,0
2.023,2.128,0
2.024,2.678,0
2.025,5.424,0
2.026,6.706,0
2.027,6.34,0
2.028,3.593,0
2.029,1.762,0
2.03,3.593,0
2.031,3.776,0
2.032,3.044,0
2.033,1.762,0
2.034,2.312,0
2.035,5.607,0
2.036,5.241,0
2.037,5.607,0
2.038,2.128,0
2.039,-0.984,0
2.04,-1.351,0
2.041,0.664,0
2.042,6.34,0
2.043,13.847,0
2.044,29.045,0
2.045,62.187,0
2.046,66.948,0
2.047,27.946,0
2.048,1.762,0
2.049,-12.52,0
2.05,-25.337,0
2.051,-29.183,0
2.052,-25.704,0
2.053,-28.816,0
2.054,-25.887,0
2.055,-23.323,0
2.056,-25.704,0
2.057,-23.506,0
2.058,-21.492,0
2.059,-15.999,0
2.06,-11.055,0
2.061,-9.59,0
2.062,-2.815,0
2.063,-3.914,0
2.064,1.762,0
2.065,0.847,0
2.066,1.762,0
2.067,1.03,0
2.068,4.875,0
2.069,1.579,0
2.07,4.692,0
2.071,7.438,0
2.072,10.734,0
2.073,10.368,0
2.074,10.734,0
2.075,8.903,0
2.076,7.805,0
2.077,8.537,0
2.078,12.749,0
2.079,7.072,0
2.08,10.917,0
2.081,6.34,0
2.082,6.889,0
2.083,0.664,0
2.084,-0.069,0
2.085,-0.801,0
2.086,-2.632,0
2.087,-0.801,0
2.088,-2.449,0
2.089,-2.083,0
2.09,0.114,0
2.091,5.974,0
2.092,6.34,0
2.093,12.016,0
2.094,24.467,0
2.095,48.271,0
2.096,70.793,0
2.097,73.723,0
2.098,49.553,0
2.099,7.255,0
2.1,-9.957,0
2.101,-25.521,0
2.102,-39.803,0
2.103,-35.591,0
2.104,-39.437,0
2.105,-35.958,0
2.106,-32.845,0
2.107,-29.915,0
2.108,-32.479,0
2.109,-25.337,0
2.11,-18.746,0
2.111,-16.731,0
2.112,-14.9,0
2.113,-13.252,0
2.114,-11.788,0
2.115,-10.506,0
2.116,-7.027,0
2.117,-8.125,0
2.118,-7.21,0
2.119,-2.632,0
2.12,-1.9,0
2.121,-1.167,0
2.122,2.128,0
2.123,0.297,0
2.124,5.424,0
2.125,8.72,0
2.126,13.115,0
2.127,15.861,0
2.128,12.565,0
2.129,12.199,0
2.13,9.453,0
2.131,5.974,0
2.132,7.255,0
2.133,9.27,0
2.134,6.706,0
2.135,5.607,0
2.136,4.875,0
2.137,5.058,0
2.138,2.128,0
2.139,1.762,0
2.14,2.128,0
2.141,5.424,0
2.142,-0.618,0
2.143,1.579,0
2.144,7.805,0
2.145,21.721,0
2.146,43.876,0
2.147,46.806,0
2.148,65.483,0
2.149,72.624,0
2.15,52.666,0
2.151,17.692,0
2.152,-15.633,0
2.153,-28.45,0
2.154,-40.169,0
2.155,-43.648,0
2.156,-46.761,0
2.157,-43.831,0
2.158,-35.958,0
2.159,-28.816,0
2.16,-22.225,0
2.161,-28.267,0
2.162,-22.774,0
2.163,-21.126,0
2.164,-22.591,0
2.165,-18.563,0
2.166,-12.52,0
2.167,-11.421,0
2.168,-4.463,0
2.169,-3.548,0
2.17,-1.167,0
2.171,-1.9,0
2.172,4.326,0
2.173,3.593,0
2.174,8.903,0
2.175,15.129,0
2.176,17.509,0
2.177,13.664,0
2.178,9.086,0
2.179,5.974,0
2.18,2.128,0
2.181,7.622,0
2.182,8.354,0
2.183,7.805,0
2.184,4.692,0
2.185,0.847,0
2.186,-1.534,0
2.187,0.664,0
2.188,0.297,0
2.189,-0.069,0
2.19,-1.167,0
2.191,2.861,0
2.192,3.41,0
2.193,2.312,0
2.194,2.678,0
2.195,9.636,0
2.196,24.833,0
2.197,57.976,0
2.198,81.779,0
2.199,60.173,0
2.2,16.777,0
2.201,-0.435,0
2.202,-15.999,0
2.203,-30.281,0
2.204,-34.493,0
2.205,-30.647,0
2.206,-27.168,0
2.207,-24.056,0
2.208,-21.126,0
2.209,-23.689,0
2.21,-16.548,0
2.211,-14.351,0
2.212,-12.337,0
2.213,-14.168,0
2.214,-12.52,0
2.215,-8.125,0
2.216,-4.097,0
2.217,4.326,0
2.218,19.157,0
2.219,25.2,0
2.22,8.72,0
2.221,2.128,0
2.222,0.114,0
2.223,-5.379,0
2.224,-3.731,0
2.225,-5.196,0
2.226,-1.167,0
2.227,-2.266,0
2.228,-5.562,0
2.229,-6.478,0
2.23,-3.731,0
2.231,-2.999,0
2.232,-2.266,0
2.233,-1.717,0
2.234,2.678,0
2.235,5.424,0
2.236,4.143,0
2.237,4.509,0
2.238,3.41,0
2.239,1.579,0
2.24,0.48,0
2.241,1.213,0
2.242,-1.9,0
2.243,0.114,0
2.244,3.776,0
2.245,4.875,0
2.246,10.368,0
2.247,21.904,0
2.248,46.806,0
2.249,86.174,0
2.25,59.99,0
2.251,26.665,0
2.252,-3.548,0
2.253,-15.267,0
2.254,-25.887,0
2.255,-29,0
2.256,-31.929,0
2.257,-29.366,0
2.258,-26.985,0
2.259,-29.183,0
2.26,-27.168,0
2.261,-18.013,0
2.262,-16.365,0
2.263,-14.9,0
2.264,-16.182,0
2.265,-10.14,0
2.266,-6.844,0
2.267,-3.914,0
2.268,-8.492,0
2.269,-2.815,0
2.27,-0.618,0
2.271,1.213,0
2.272,1.762,0
2.273,-0.984,0
2.274,4.509,0
2.275,2.312,0
2.276,2.861,0
2.277,4.692,0
2.278,6.34,0
2.279,5.974,0
2.28,4.692,0
2.281,5.058,0
2.282,7.622,0
2.283,6.523,0
2.284,10.551,0
2.285,4.326,0
2.286,6.706,0
2.287,4.509,0
2.288,2.678,0
2.289,0.847,0
2.29,2.495,0
2.291,2.861,0
2.292,4.143,0
2.293,5.241,0
2.294,7.072,0
2.295,2.312,0
2.296,-0.252,0
2.297,4.326,0
2.298,14.58,0
2.299,37.102,0
2.3,53.215,0
2.301,62.004,0
2.302,69.877,0
2.303,43.144,0
2.304,25.383,0
2.305,-3.914,0
2.306,-31.38,0
2.307,-42,0
2.308,-45.113,0
2.309,-42.183,0
2.31,-39.62,0
2.311,-37.239,0
2.312,-39.437,0
2.313,-33.394,0
2.314,-31.563,0
2.315,-33.211,0
2.316,-25.704,0
2.317,-18.929,0
2.318,-10.506,0
2.319,-11.604,0
2.32,-10.689,0
2.321,-6.111,0
2.322,-0.435,0
2.323,3.41,0
2.324,2.861,0
2.325,8.537,0
2.326,7.805,0
2.327,7.255,0
2.328,9.086,0
2.329,8.537,0
2.33,10.917,0
2.331,8.72,0
2.332,10.734,0
2.333,7.255,0
2.334,7.622,0
2.335,7.255,0
2.336,4.692,0
2.337,2.128,0
2.338,1.396,0
2.339,3.227,0
2.34,3.044,0
2.341,3.227,0
2.342,1.762,0
2.343,4.692,0
2.344,6.706,0
2.345,1.03,0
2.346,5.241,0
2.347,5.974,0
2.348,17.509,0
2.349,29.045,0
2.35,42.595,0
2.351,66.398,0
2.352,75.92,0
2.353,55.229,0
2.354,14.946,0
2.355,-13.802,0
2.356,-18.929,0
2.357,-33.211,0
2.358,-37.422,0
2.359,-41.268,0
2.36,-37.789,0
2.361,-34.676,0
2.362,-31.746,0
2.363,-29.183,0
2.364,-26.802,0
2.365,-20.21,0
2.366,-14.168,0
2.367,-15.999,0
2.368,-11.055,0
2.369,-6.661,0
2.37,-7.942,0
2.371,0.48,0
2.372,1.579,0
2.373,6.523,0
2.374,3.776,0
2.375,7.805,0
2.376,7.072,0
2.377,0.847,0
2.378,1.579,0
2.379,-0.618,0
2.38,5.607,0
2.381,7.988,0
2.382,5.791,0
2.383,6.34,0
2.384,4.509,0
2.385,6.157,0
2.386,6.523,0
2.387,5.241,0
2.388,7.988,0
2.389,3.776,0
2.39,3.227,0
2.391,6.523,0
2.392,5.241,0
2.393,6.34,0
2.394,5.241,0
2.395,7.805,0
2.396,5.791,0
2.397,5.974,0
2.398,1.762,0
2.399,11.284,0
2.4,26.298,0
2.401,52.482,0
2.402,84.709,0
2.403,80.498,0
2.404,44.975,0
2.405,1.945,0
2.406,-15.267,0
2.407,-20.394,0
2.408,-34.676,0
2.409,-38.887,0
2.41,-42.732,0
2.411,-39.253,0
2.412,-36.141,0
2.413,-33.211,0
2.414,-25.337,0
2.415,-22.957,0
2.416,-20.76,0
2.417,-18.746,0
2.418,-13.252,0
2.419,-8.309,0
2.42,-9.773,0
2.421,-8.492,0
2.422,-7.393,0
2.423,-4.097,0
2.424,-1.167,0
2.425,-5.745,0
2.426,-1.717,0
2.427,2.128,0
2.428,5.424,0
2.429,-4.097,0
2.43,2.678,0
2.431,3.776,0
2.432,9.453,0
2.433,10.368,0
2.434,14.946,0
2.435,12.565,0
2.436,10.368,0
2.437,7.072,0
2.438,5.241,0
2.439,0.114,0
2.44,0.664,0
2.441,-8.858,0
2.442,-4.83,0
2.443,1.213,0
2.444,6.889,0
2.445,3.959,0
2.446,3.044,0
2.447,5.424,0
2.448,8.903,0
2.449,11.101,0
2.45,18.608,0
2.451,23.552,0
2.452,37.468,0
2.453,55.595,0
2.454,57.976,0
2.455,55.778,0
2.456,57.792,0
2.457,44.975,0
2.458,20.073,0
2.459,-19.295,0
2.46,-34.859,0
2.461,-49.141,0
2.462,-53.353,0
2.463,-33.76,0
2.464,-8.858,0
2.465,-18.379,0
2.466,-27.168,0
2.467,-35.042,0
2.468,-37.422,0
2.469,-35.225,0
2.47,-33.211,0
2.471,-24.056,0
2.472,-25.704,0
2.473,-21.309,0
2.474,-17.281,0
2.475,-13.802,0
2.476,-12.703,0
2.477,-13.619,0
2.478,-7.21,0
2.479,-9.59,0
2.48,-5.745,0
2.481,-1.167,0
2.482,0.664,0
2.483,1.213,0
2.484,4.509,0
2.485,9.636,0
2.486,14.213,0
2.487,12.382,0
2.488,14.03,0
2.489,8.537,0
2.49,6.34,0
2.491,6.889,0
2.492,6.34,0
2.493,4.692,0
2.494,7.072,0
2.495,9.27,0
2.496,4.692,0
2.497,6.523,0
2.498,8.171,0
2.499,6.706,0
2.5,7.072,0
2.501,4.875,0
2.502,11.101,0
2.503,25.017,0
2.504,55.229,0
2.505,76.835,0
2.506,49.37,0
2.507,10.002,0
2.508,-5.562,0
2.509,-19.844,0
2.51,-32.662,0
2.511,-28.816,0
2.512,-25.337,0
2.513,-28.45,0
2.514,-37.239,0
2.515,-34.676,0
2.516,-27.535,0
2.517,-25.337,0
2.518,-23.323,0
2.519,-17.83,0
2.52,-12.886,0
2.521,-11.421,0
2.522,-10.14,0
2.523,-9.041,0
2.524,-1.167,0
2.525,-0.252,0
2.526,-1.167,0
2.527,-1.9,0
2.528,-2.632,0
2.529,-0.801,0
2.53,1.03,0
2.531,2.678,0
2.532,3.959,0
2.533,7.072,0
2.534,10.917,0
2.535,12.199,0
2.536,10.002,0
2.537,7.255,0
2.538,9.086,0
2.539,7.988,0
2.54,8.72,0
2.541,8.903,0
2.542,8.171,0
2.543,4.692,0
2.544,1.396,0
2.545,3.593,0
2.546,4.692,0
2.547,4.326,0
2.548,5.424,0
2.549,6.157,0
2.55,5.241,0
2.551,7.072,0
2.552,11.101,0
2.553,19.523,0
2.554,38.017,0
2.555,67.497,0
2.556,87.089,0
2.557,83.61,0
2.558,47.905,0
2.559,14.58,0
2.56,1.762,0
2.561,-9.957,0
2.562,-13.436,0
2.563,-22.957,0
2.564,-20.027,0
2.565,-22.591,0
2.566,-24.971,0
2.567,-22.774,0
2.568,-32.845,0
2.569,-42,0
2.57,-46.944,0
2.571,-48.409,0
2.572,-63.423,0
2.573,-61.409,0
2.574,-55.916,0
2.575,-44.38,0
2.576,-30.831,0
2.577,-25.337,0
2.578,-23.689,0
2.579,-40.169,0
2.58,-55.55,0
2.581,-77.706,0
2.582,-80.635,0
2.583,-99.312,0
2.584,-116.16,0
2.585,-122.75,0
2.586,-132.82,0
2.587,-130.99,0
2.588,-126.05,0
2.589,-121.65,0
2.59,-101.14,0
2.591,-68.55,0
2.592,-3.548,0
2.593,117.85,0
2.594,167.47,0
2.595,152.46,0
2.596,138.91,0
2.597,126.46,0
2.598,115.29,0
2.599,84.526,0
2.6,75.188,0
2.601,68.962,0
2.602,77.385,0
2.603,100.46,0
2.604,149.34,0
2.605,155.57,0
2.606,195.85,0
2.607,200.98,0
2.608,177.18,0
2.609,129.57,0
2.61,97.893,0
2.611,92.216,0
2.612,76.652,0
2.613,43.327,0
2.614,21.721,0
2.615,10.002,0
2.616,6.523,0
2.617,3.41,0
2.618,6.34,0
2.619,-1.534,0
2.62,-8.675,0
2.621,-19.661,0
2.622,-25.704,0
2.623,-34.859,0
2.624,-36.507,0
2.625,-35.042,0
2.626,-41.817,0
2.627,-45.296,0
2.628,-50.972,0
2.629,-51.888,0
2.63,-50.972,0
2.631,-53.353,0
2.632,-55.55,0
2.633,-49.324,0
2.634,-53.353,0
2.635,-55.55,0
2.636,-60.127,0
2.637,-61.958,0
2.638,-64.705,0
2.639,-64.339,0
2.64,-58.296,0
2.641,-57.564,0
2.642,-50.606,0
2.643,-51.521,0
2.644,-42.366,0
2.645,-38.887,0
2.646,-35.591,0
2.647,-32.662,0
2.648,-28.084,0
2.649,-28.816,0
2.65,-23.506,0
2.651,-20.21,0
2.652,-14.534,0
2.653,-8.858,0
2.654,-3.548,0
2.655,6.706,0
2.656,29.228,0
2.657,51.75,0
2.658,72.441,0
2.659,53.764,0
2.66,27.031,0
2.661,-5.196,0
2.662,-26.802,0
2.663,-30.647,0
2.664,-34.126,0
2.665,-37.239,0
2.666,-28.45,0
2.667,-25.887,0
2.668,-23.506,0
2.669,-16.915,0
2.67,-18.929,0
2.671,-9.773,0
2.672,-11.421,0
2.673,-9.957,0
2.674,-8.675,0
2.675,-2.632,0
2.676,-1.534,0
2.677,-0.618,0
2.678,5.791,0
2.679,6.523,0
2.68,5.791,0
2.681,9.086,0
2.682,10.917,0
2.683,9.27,0
2.684,8.903,0
2.685,14.03,0
2.686,14.58,0
2.687,20.256,0
2.688,14.946,0
2.689,11.65,0
2.69,13.481,0
2.691,15.129,0
2.692,14.763,0
2.693,9.636,0
2.694,10.185,0
2.695,8.354,0
2.696,8.903,0
2.697,8.537,0
2.698,8.171,0
2.699,12.749,0
2.7,12.199,0
2.701,9.453,0
2.702,9.086,0
2.703,9.636,0
2.704,10.002,0
2.705,7.255,0
2.706,3.044,0
2.707,5.791,0
2.708,13.298,0
2.709,23.552,0
2.71,35.82,0
2.711,20.805,0
2.712,22.819,0
2.713,31.975,0
2.714,40.214,0
2.715,62.736,0
2.716,65.849,0
2.717,33.256,0
2.718,-5.745,0
2.719,-21.309,0
2.72,-35.591,0
2.721,-39.803,0
2.722,-43.648,0
2.723,-47.127,0
2.724,-44.014,0
2.725,-41.084,0
2.726,-38.521,0
2.727,-31.38,0
2.728,-29.183,0
2.729,-27.168,0
2.73,-21.675,0
2.731,-13.436,0
2.732,-9.041,0
2.733,-7.759,0
2.734,-1.717,0
2.735,3.959,0
2.736,4.875,0
2.737,5.791,0
2.738,6.523,0
2.739,5.791,0
2.74,3.959,0
2.741,8.354,0
2.742,5.607,0
2.743,8.903,0
2.744,5.791,0
2.745,10.368,0
2.746,8.537,0
2.747,5.791,0
2.748,8.171,0
2.749,7.805,0
2.75,5.791,0
2.751,3.959,0
2.752,7.988,0
2.753,5.607,0
2.754,4.509,0
2.755,4.143,0
2.756,10.368,0
2.757,24.284,0
2.758,50.468,0
2.759,61.088,0
2.76,64.201,0
2.761,55.412,0
2.762,25.932,0
2.763,-1.534,0
2.764,-19.295,0
2.765,-28.816,0
2.766,-37.605,0
2.767,-40.169,0
2.768,-37.789,0
2.769,-35.591,0
2.77,-33.577,0
2.771,-31.746,0
2.772,-26.802,0
2.773,-28.267,0
2.774,-24.239,0
2.775,-18.196,0
2.776,-14.9,0
2.777,-13.985,0
2.778,-13.069,0
2.779,-7.393,0
2.78,-12.703,0
2.781,-3.731,0
2.782,2.312,0
2.783,7.988,0
2.784,8.903,0
2.785,7.988,0
2.786,-1.167,0
2.787,4.875,0
2.788,8.171,0
2.789,5.241,0
2.79,6.157,0
2.791,6.889,0
2.792,7.622,0
2.793,8.171,0
2.794,8.72,0
2.795,4.875,0
2.796,0.297,0
2.797,-1.534,0
2.798,-0.984,0
2.799,2.312,0
2.8,4.509,0
2.801,5.607,0
2.802,9.819,0
2.803,11.467,0
2.804,5.974,0
2.805,5.974,0
2.806,6.706,0
2.807,12.932,0
2.808,25.383,0
2.809,52.849,0
2.81,72.441,0
2.811,54.68,0
2.812,18.974,0
2.813,-4.83,0
2.814,-17.647,0
2.815,-29.366,0
2.816,-25.887,0
2.817,-29,0
2.818,-26.07,0
2.819,-23.506,0
2.82,-25.887,0
2.821,-23.689,0
2.822,-21.675,0
2.823,-19.844,0
2.824,-18.196,0
2.825,-13.802,0
2.826,-12.52,0
2.827,-9.041,0
2.828,-7.942,0
2.829,-5.013,0
2.83,-5.928,0
2.831,-1.9,0
2.832,-2.632,0
2.833,-0.801,0
2.834,3.593,0
2.835,9.819,0
2.836,7.438,0
2.837,9.636,0
2.838,6.34,0
2.839,10.734,0
2.84,9.086,0
2.841,8.72,0
2.842,10.002,0
2.843,7.255,0
2.844,1.579,0
2.845,3.959,0
2.846,7.805,0
2.847,7.255,0
2.848,11.65,0
2.849,11.101,0
2.85,3.593,0
2.851,2.495,0
2.852,3.41,0
2.853,4.326,0
2.854,5.058,0
2.855,-1.9,0
2.856,1.579,0
2.857,-1.167,0
2.858,6.34,0
2.859,17.509,0
2.86,37.102,0
2.861,55.778,0
2.862,72.624,0
2.863,48.271,0
2.864,25.749,0
2.865,-0.984,0
2.866,-18.746,0
2.867,-34.859,0
2.868,-37.789,0
2.869,-40.352,0
2.87,-37.972,0
2.871,-35.774,0
2.872,-33.76,0
2.873,-31.929,0
2.874,-26.985,0
2.875,-22.591,0
2.876,-21.309,0
2.877,-17.83,0
2.878,-16.731,0
2.879,-17.647,0
2.88,-13.069,0
2.881,-7.393,0
2.882,-2.083,0
2.883,-1.534,0
2.884,0.297,0
2.885,3.044,0
2.886,4.326,0
2.887,5.607,0
2.888,1.03,0
2.889,4.143,0
2.89,3.593,0
2.891,4.875,0
2.892,4.509,0
2.893,5.607,0
2.894,5.974,0
2.895,7.805,0
2.896,5.791,0
2.897,2.128,0
2.898,1.762,0
2.899,6.889,0
2.9,5.058,0
2.901,6.889,0
2.902,6.34,0
2.903,9.636,0
2.904,4.509,0
2.905,6.34,0
2.906,3.227,0
2.907,3.776,0
2.908,8.903,0
2.909,1.396,0
2.91,16.594,0
2.911,45.341,0
2.912,57.06,0
2.913,60.539,0
2.914,70.061,0
2.915,61.271,0
2.916,63.835,0
2.917,37.102,0
2.918,-9.407,0
2.919,-28.267,0
2.92,-45.479,0
2.921,-50.606,0
2.922,-55.367,0
2.923,-51.155,0
2.924,-55,0
2.925,-51.521,0
2.926,-42,0
2.927,-33.211,0
2.928,-30.647,0
2.929,-28.267,0
2.93,-21.675,0
2.931,-15.633,0
2.932,-13.802,0
2.933,-12.154,0
2.934,-7.759,0
2.935,-0.984,0
2.936,0.114,0
2.937,3.41,0
2.938,2.495,0
2.939,5.241,0
2.94,5.974,0
2.941,9.819,0
2.942,6.523,0
2.943,8.354,0
2.944,5.607,0
2.945,6.889,0
2.946,7.255,0
2.947,5.241,0
2.948,9.453,0
2.949,14.58,0
2.95,17.875,0
2.951,17.326,0
2.952,15.678,0
2.953,16.96,0
2.954,19.157,0
2.955,25.383,0
2.956,37.468,0
2.957,19.157,0
2.958,5.974,0
2.959,-1.167,0
2.96,-12.154,0
2.961,-2.083,0
2.962,25.383,0
2.963,60.905,0
2.964,46.623,0
2.965,16.411,0
2.966,-11.055,0
2.967,-21.675,0
2.968,-24.788,0
2.969,-27.718,0
2.97,-30.281,0
2.971,-27.901,0
2.972,-34.493,0
2.973,-24.422,0
2.974,-22.591,0
2.975,-20.943,0
2.976,-16.548,0
2.977,-17.83,0
2.978,-14.351,0
2.979,-13.252,0
2.98,-10.323,0
2.981,-9.407,0
2.982,-8.675,0
2.983,-4.83,0
2.984,1.396,0
2.985,2.128,0
2.986,4.326,0
2.987,4.875,0
2.988,4.326,0
2.989,4.875,0
2.99,6.157,0
2.991,1.945,0
2.992,3.593,0
2.993,6.889,0
2.994,3.776,0
2.995,2.678,0
2.996,0.847,0
2.997,6.34,0
2.998,8.537,0
2.999,9.086,0
3,9.636,0
3.001,6.889,0
3.002,8.171,0
3.003,11.284,0
3.004,6.706,0
3.005,4.875,0
3.006,3.227,0
3.007,1.945,0
3.008,0.664,0
3.009,-4.28,0
3.01,-3.182,0
3.011,2.495,0
3.012,14.946,0
3.013,42.412,0
3.014,69.877,0
3.015,52.116,0
3.016,36.003,0
3.017,3.41,0
3.018,-9.407,0
3.019,-21.126,0
3.02,-24.605,0
3.021,-27.718,0
3.022,-30.647,0
3.023,-28.084,0
3.024,-30.464,0
3.025,-28.267,0
3.026,-26.253,0
3.027,-20.76,0
3.028,-15.816,0
3.029,-17.281,0
3.03,-13.252,0
3.031,-14.351,0
3.032,-6.478,0
3.033,-5.562,0
3.034,0.847,0
3.035,1.579,0
3.036,-0.618,0
3.037,1.213,0
3.038,0.664,0
3.039,-0.984,0
3.04,0.297,0
3.041,3.41,0
3.042,2.312,0
3.043,1.213,0
3.044,3.044,0
3.045,5.058,0
3.046,3.776,0
3.047,4.509,0
3.048,3.959,0
3.049,3.776,0
3.05,3.959,0
3.051,5.974,0
3.052,10.002,0
3.053,4.875,0
3.054,4.326,0
3.055,4.875,0
3.056,-0.252,0
3.057,0.297,0
3.058,2.128,0
3.059,2.678,0
3.06,5.241,0
3.061,1.945,0
3.062,7.988,0
3.063,20.439,0
3.064,47.905,0
3.065,75.371,0
3.066,43.144,0
3.067,12.932,0
3.068,1.213,0
3.069,-16.548,0
3.07,-26.07,0
3.071,-29,0
3.072,-31.563,0
3.073,-29.183,0
3.074,-26.985,0
3.075,-24.971,0
3.076,-23.14,0
3.077,-21.492,0
3.078,-17.098,0
3.079,-15.816,0
3.08,-12.337,0
3.081,-11.238,0
3.082,-6.294,0
3.083,0.114,0
3.084,-0.618,0
3.085,-1.351,0
3.086,3.227,0
3.087,0.114,0
3.088,1.762,0
3.089,1.396,0
3.09,4.509,0
3.091,5.607,0
3.092,5.241,0
3.093,4.143,0
3.094,3.41,0
3.095,1.579,0
3.096,0.847,0
3.097,4.326,0
3.098,3.959,0
3.099,8.171,0
3.1,4.326,0
3.101,8.903,0
3.102,9.453,0
3.103,5.607,0
3.104,5.241,0
3.105,2.128,0
3.106,2.495,0
3.107,2.128,0
3.108,-1.167,0
3.109,-3.182,0
3.11,-2.815,0
3.111,2.312,0
3.112,1.213,0
3.113,5.791,0
3.114,16.044,0
3.115,38.566,0
3.116,61.088,0
3.117,75.92,0
3.118,57.243,0
3.119,20.805,0
3.12,-5.379,0
3.121,-19.661,0
3.122,-32.479,0
3.123,-36.324,0
3.124,-39.803,0
3.125,-42.916,0
3.126,-39.986,0
3.127,-37.422,0
3.128,-30.281,0
3.129,-28.084,0
3.13,-22.042,0
3.131,-20.21,0
3.132,-15.267,0
3.133,-7.759,0
3.134,-3.731,0
3.135,-0.252,0
3.136,0.847,0
3.137,1.762,0
3.138,0.847,0
3.139,3.227,0
3.14,1.03,0
3.141,2.861,0
3.142,3.41,0
3.143,-0.435,0
3.144,1.945,0
3.145,4.143,0
3.146,1.396,0
3.147,7.072,0
3.148,6.34,0
3.149,7.072,0
3.15,5.241,0
3.151,5.791,0
3.152,10.917,0
3.153,9.086,0
3.154,7.255,0
3.155,5.607,0
3.156,4.326,0
3.157,3.959,0
3.158,2.861,0
3.159,0.297,0
3.16,2.128,0
3.161,4.143,0
3.162,3.776,0
3.163,2.495,0
3.164,6.523,0
3.165,14.946,0
3.166,33.439,0
3.167,62.919,0
3.168,74.638,0
3.169,56.877,0
3.17,21.171,0
3.171,-12.154,0
3.172,-24.971,0
3.173,-36.69,0
3.174,-33.211,0
3.175,-36.324,0
3.176,-39.253,0
3.177,-36.69,0
3.178,-34.31,0
3.179,-32.112,0
3.18,-26.07,0
3.181,-20.577,0
3.182,-15.633,0
3.183,-14.168,0
3.184,-10.14,0
3.185,-6.661,0
3.186,1.213,0
3.187,-1.717,0
3.188,1.03,0
3.189,-2.999,0
3.19,-0.801,0
3.191,-0.252,0
3.192,1.579,0
3.193,2.128,0
3.194,4.509,0
3.195,5.791,0
3.196,3.044,0
3.197,3.41,0
3.198,2.312,0
3.199,6.889,0
3.2,15.861,0
3.201,34.355,0
3.202,36.918,0
3.203,20.073,0
3.204,9.086,0
3.205,-5.013,0
3.206,-10.506,0
3.207,-5.562,0
3.208,-13.069,0
3.209,-9.041,0
3.21,-10.14,0
3.211,0.114,0
3.212,1.396,0
3.213,-1.351,0
3.214,-4.83,0
3.215,-1.534,0
3.216,11.65,0
3.217,31.792,0
3.218,45.158,0
3.219,52.299,0
3.22,54.497,0
3.221,56.511,0
3.222,58.342,0
3.223,56.694,0
3.224,34.172,0
3.225,-14.534,0
3.226,-35.408,0
3.227,-54.268,0
3.228,-59.944,0
3.229,-65.071,0
3.23,-60.311,0
3.231,-56.099,0
3.232,-44.38,0
3.233,-33.76,0
3.234,-30.647,0
3.235,-21.858,0
3.236,-19.295,0
3.237,-16.915,0
3.238,-10.323,0
3.239,-8.309,0
3.24,-6.478,0
3.241,-4.83,0
3.242,-0.435,0
3.243,3.593,0
3.244,7.072,0
3.245,10.368,0
3.246,9.453,0
3.247,10.368,0
3.248,11.101,0
3.249,14.946,0
3.25,10.368,0
3.251,13.481,0
3.252,11.833,0
3.253,14.213,0
3.254,10.002,0
3.255,8.354,0
3.256,7.072,0
3.257,6.706,0
3.258,10.551,0
3.259,10.185,0
3.26,7.072,0
3.261,5.974,0
3.262,4.875,0
3.263,4.509,0
3.264,8.171,0
3.265,5.424,0
3.266,11.101,0
3.267,23.552,0
3.268,51.018,0
3.269,78.483,0
3.27,67.863,0
3.271,38.566,0
3.272,11.101,0
3.273,-6.661,0
3.274,-22.774,0
3.275,-31.563,0
3.276,-39.437,0
3.277,-37.056,0
3.278,-30.464,0
3.279,-32.479,0
3.28,-30.647,0
3.281,-29,0
3.282,-21.492,0
3.283,-17.464,0
3.284,-18.563,0
3.285,-15.267,0
3.286,-8.309,0
3.287,-1.9,0
3.288,2.128,0
3.289,-1.717,0
3.29,-2.266,0
3.291,-2.815,0
3.292,1.03,0
3.293,2.312,0
3.294,5.424,0
3.295,0.847,0
3.296,3.959,0
3.297,3.41,0
3.298,8.903,0
3.299,6.706,0
3.3,4.875,0
3.301,3.044,0
3.302,5.791,0
3.303,1.213,0
3.304,6.889,0
3.305,3.044,0
3.306,2.495,0
3.307,3.044,0
3.308,1.396,0
3.309,5.974,0
3.31,2.861,0
3.311,1.213,0
3.312,5.791,0
3.313,3.959,0
3.314,-1.167,0
3.315,1.579,0
3.316,2.128,0
3.317,9.086,0
3.318,19.34,0
3.319,39.848,0
3.32,84.343,0
3.321,65.483,0
3.322,25.2,0
3.323,-0.984,0
3.324,-15.267,0
3.325,-28.084,0
3.326,-31.929,0
3.327,-35.408,0
3.328,-32.295,0
3.329,-35.225,0
3.33,-27.352,0
3.331,-20.21,0
3.332,-18.013,0
3.333,-11.971,0
3.334,-2.815,0
3.335,2.128,0
3.336,9.636,0
3.337,13.664,0
3.338,22.087,0
3.339,25.383,0
3.34,26.298,0
3.341,19.89,0
3.342,22.27,0
3.343,16.96,0
3.344,17.509,0
3.345,14.396,0
3.346,5.974,0
3.347,-12.52,0
3.348,-25.887,0
3.349,-33.028,0
3.35,-39.62,0
3.351,-41.634,0
3.352,-32.479,0
3.353,-27.535,0
3.354,-11.055,0
3.355,-13.252,0
3.356,-35.408,0
3.357,-50.24,0
3.358,-74.41,0
3.359,-110.11,0
3.36,-133.92,0
3.361,-138.13,0
3.362,-149.85,0
3.363,-153.33,0
3.364,-156.44,0
3.365,-147.65,0
3.366,-120.73,0
3.367,-107.37,0
3.368,-80.635,0
3.369,-26.985,0
3.37,73.173,0
3.371,168.75,0
3.372,231.01,0
3.373,242.18,0
3.374,190.91,0
3.375,144.22,0
3.376,101.92,0
3.377,78.85,0
3.378,71.892,0
3.379,78.117,0
3.38,83.793,0
3.381,99.357,0
3.382,132.68,0
3.383,136.89,0
3.384,140.74,0
3.385,130.12,0
3.386,114.01,0
3.387,111.08,0
3.388,113.64,0
3.389,91.667,0
3.39,64.934,0
3.391,40.031,0
3.392,30.51,0
3.393,27.58,0
3.394,30.144,0
3.395,23.002,0
3.396,7.622,0
3.397,-2.449,0
3.398,-7.942,0
3.399,-19.478,0
3.4,-23.873,0
3.401,-19.844,0
3.402,-25.887,0
3.403,-40.718,0
3.404,-50.789,0
3.405,-52.62,0
3.406,-50.972,0
3.407,-52.437,0
3.408,-51.155,0
3.409,-57.198,0
3.41,-62.874,0
3.411,-61.958,0
3.412,-64.705,0
3.413,-68.733,0
3.414,-74.043,0
3.415,-75.875,0
3.416,-71.48,0
3.417,-62.142,0
3.418,-58.296,0
3.419,-50.789,0
3.42,-33.76,0
3.421,-2.083,0
3.422,28.129,0
3.423,16.411,0
3.424,-1.351,0
3.425,-30.647,0
3.426,-42.366,0
3.427,-52.986,0
3.428,-56.099,0
3.429,-53.169,0
3.43,-50.606,0
3.431,-43.465,0
3.432,-41.268,0
3.433,-35.225,0
3.434,-26.07,0
3.435,-24.422,0
3.436,-16.915,0
3.437,-18.196,0
3.438,-9.773,0
3.439,-8.675,0
3.44,-3.731,0
3.441,-2.815,0
3.442,2.861,0
3.443,2.128,0
3.444,2.678,0
3.445,5.791,0
3.446,14.213,0
3.447,32.707,0
3.448,35.271,0
3.449,28.129,0
3.45,12.749,0
3.451,6.706,0
3.452,8.537,0
3.453,10.185,0
3.454,8.72,0
3.455,4.692,0
3.456,1.213,0
3.457,2.312,0
3.458,9.27,0
3.459,6.523,0
3.46,5.791,0
3.461,3.593,0
3.462,3.044,0
3.463,8.72,0
3.464,9.453,0
3.465,10.002,0
3.466,9.453,0
3.467,7.805,0
3.468,10.368,0
3.469,12.749,0
3.47,12.382,0
3.471,18.608,0
3.472,32.524,0
3.473,62.736,0
3.474,84.343,0
3.475,56.877,0
3.476,17.509,0
3.477,-8.675,0
3.478,-13.436,0
3.479,-26.253,0
3.48,-30.098,0
3.481,-33.577,0
3.482,-30.464,0
3.483,-21.675,0
3.484,-24.239,0
3.485,-21.858,0
3.486,-15.267,0
3.487,-17.281,0
3.488,-11.788,0
3.489,-10.14,0
3.49,-11.604,0
3.491,-2.083,0
3.492,-3.182,0
3.493,-2.083,0
3.494,-1.167,0
3.495,-2.083,0
3.496,5.424,0
3.497,4.509,0
3.498,3.593,0
3.499,11.101,0
3.5,14.03,0
3.501,13.115,0
3.502,18.791,0
3.503,16.594,0
3.504,7.622,0
3.505,6.523,0
3.506,5.424,0
3.507,4.509,0
3.508,-0.069,0
3.509,2.312,0
3.51,1.579,0
3.511,-0.252,0
3.512,-5.928,0
3.513,-5.196,0
3.514,-0.618,0
3.515,-1.167,0
3.516,2.678,0
3.517,3.959,0
3.518,-0.252,0
3.519,8.903,0
3.52,5.058,0
3.521,12.565,0
3.522,29.594,0
3.523,61.271,0
3.524,82.878,0
3.525,63.286,0
3.526,31.059,0
3.527,0.847,0
3.528,-10.872,0
3.529,-28.633,0
3.53,-38.155,0
3.531,-35.225,0
3.532,-37.789,0
3.533,-30.647,0
3.534,-24.056,0
3.535,-26.07,0
3.536,-24.239,0
3.537,-19.295,0
3.538,-17.83,0
3.539,-13.802,0
3.54,-14.9,0
3.541,-13.802,0
3.542,-8.858,0
3.543,-6.111,0
3.544,-3.731,0
3.545,0.114,0
3.546,6.34,0
3.547,7.072,0
3.548,6.34,0
3.549,5.791,0
3.55,3.959,0
3.551,4.509,0
3.552,5.791,0
3.553,4.509,0
3.554,10.002,0
3.555,6.157,0
3.556,5.607,0
3.557,8.72,0
3.558,5.974,0
3.559,3.593,0
3.56,-3.365,0
3.561,-2.449,0
3.562,0.297,0
3.563,-0.435,0
3.564,-1.167,0
3.565,0.664,0
3.566,1.213,0
3.567,2.861,0
3.568,5.241,0
3.569,5.607,0
3.57,6.706,0
3.571,7.805,0
3.572,13.481,0
3.573,15.861,0
3.574,27.397,0
3.575,52.299,0
3.576,55.778,0
3.577,20.073,0
3.578,-3.731,0
3.579,-25.337,0
3.58,-29.183,0
3.581,-32.662,0
3.582,-29.549,0
3.583,-32.479,0
3.584,-29.915,0
3.585,-27.535,0
3.586,-25.337,0
3.587,-19.295,0
3.588,-10.14,0
3.589,-11.788,0
3.59,-16.182,0
3.591,-12.154,0
3.592,-8.675,0
3.593,-2.999,0
3.594,-2.083,0
3.595,-2.999,0
3.596,-3.731,0
3.597,-1.534,0
3.598,-2.083,0
3.599,-0.252,0
3.6,3.593,0
3.601,5.974,0
3.602,6.34,0
3.603,6.706,0
3.604,9.27,0
3.605,9.636,0
3.606,6.34,0
3.607,2.128,0
3.608,4.875,0
3.609,3.593,0
3.61,4.875,0
3.611,9.453,0
3.612,10.002,0
3.613,7.255,0
3.614,4.875,0
3.615,4.509,0
3.616,4.875,0
3.617,7.438,0
3.618,9.27,0
3.619,11.284,0
3.62,11.101,0
3.621,6.706,0
3.622,2.678,0
3.623,-0.069,0
3.624,7.438,0
3.625,24.467,0
3.626,51.201,0
3.627,54.68,0
3.628,57.792,0
3.629,60.722,0
3.63,58.159,0
3.631,31.425,0
3.632,-15.083,0
3.633,-33.943,0
3.634,-51.155,0
3.635,-46.028,0
3.636,-50.789,0
3.637,-46.578,0
3.638,-42.732,0
3.639,-46.211,0
3.64,-43.099,0
3.641,-34.31,0
3.642,-31.746,0
3.643,-29.366,0
3.644,-22.774,0
3.645,-20.76,0
3.646,-15.267,0
3.647,-10.323,0
3.648,-8.858,0
3.649,-4.83,0
3.65,1.213,0
3.651,4.509,0
3.652,5.424,0
3.653,4.509,0
3.654,5.241,0
3.655,3.044,0
3.656,6.34,0
3.657,9.453,0
3.658,3.227,0
3.659,5.607,0
3.66,9.453,0
3.661,10.002,0
3.662,10.551,0
3.663,12.199,0
3.664,13.481,0
3.665,12.199,0
3.666,8.354,0
3.667,5.058,0
3.668,5.424,0
3.669,10.002,0
3.67,5.607,0
3.671,3.959,0
3.672,4.509,0
3.673,4.875,0
3.674,11.833,0
3.675,27.031,0
3.676,51.384,0
3.677,80.681,0
3.678,76.835,0
3.679,44.609,0
3.68,5.607,0
3.681,-9.957,0
3.682,-24.239,0
3.683,-28.45,0
3.684,-32.295,0
3.685,-35.774,0
3.686,-32.662,0
3.687,-29.732,0
3.688,-32.295,0
3.689,-29.915,0
3.69,-23.323,0
3.691,-13.252,0
3.692,6.889,0
3.693,20.256,0
3.694,8.171,0
3.695,-2.815,0
3.696,-8.858,0
3.697,-7.027,0
3.698,-11.971,0
3.699,-10.506,0
3.7,-9.224,0
3.701,-10.323,0
3.702,-7.027,0
3.703,-4.097,0
3.704,-3.182,0
3.705,-3.914,0
3.706,-3.182,0
3.707,-1.351,0
3.708,1.762,0
3.709,-0.984,0
3.71,0.297,0
3.711,4.509,0
3.712,2.861,0
3.713,7.438,0
3.714,5.607,0
3.715,3.959,0
3.716,6.34,0
3.717,4.143,0
3.718,6.157,0
3.719,6.523,0
3.72,9.819,0
3.721,5.974,0
3.722,4.692,0
3.723,4.509,0
3.724,-1.534,0
3.725,10.917,0
3.726,31.059,0
3.727,55.229,0
3.728,71.342,0
3.729,68.413,0
3.73,38.933,0
3.731,3.41,0
3.732,-20.394,0
3.733,-24.605,0
3.734,-28.45,0
3.735,-31.929,0
3.736,-35.042,0
3.737,-32.112,0
3.738,-34.676,0
3.739,-27.535,0
3.74,-25.337,0
3.741,-23.323,0
3.742,-21.492,0
3.743,-13.252,0
3.744,-11.788,0
3.745,-10.506,0
3.746,-11.604,0
3.747,-5.928,0
3.748,-5.013,0
3.749,1.396,0
3.75,0.664,0
3.751,4.509,0
3.752,5.058,0
3.753,0.664,0
3.754,5.791,0
3.755,5.241,0
3.756,4.692,0
3.757,3.044,0
3.758,4.326,0
3.759,3.959,0
3.76,6.706,0
3.761,9.27,0
3.762,7.438,0
3.763,4.143,0
3.764,3.776,0
3.765,4.875,0
3.766,3.776,0
3.767,2.678,0
3.768,6.706,0
3.769,9.453,0
3.77,8.171,0
3.771,8.537,0
3.772,5.791,0
3.773,0.847,0
3.774,-1.351,0
3.775,4.875,0
3.776,8.903,0
3.777,20.439,0
3.778,38.75,0
3.779,45.891,0
3.78,48.088,0
3.781,66.215,0
3.782,59.074,0
3.783,30.327,0
3.784,-5.196,0
3.785,-29,0
3.786,-41.817,0
3.787,-45.662,0
3.788,-42.183,0
3.789,-45.296,0
3.79,-42.366,0
3.791,-39.803,0
3.792,-32.662,0
3.793,-30.464,0
3.794,-24.422,0
3.795,-22.591,0
3.796,-24.239,0
3.797,-16.731,0
3.798,-12.703,0
3.799,-9.224,0
3.8,-8.125,0
3.801,-3.182,0
3.802,1.396,0
3.803,8.903,0
3.804,3.959,0
3.805,8.537,0
3.806,9.27,0
3.807,5.424,0
3.808,7.255,0
3.809,2.861,0
3.81,3.41,0
3.811,3.776,0
3.812,8.903,0
3.813,2.678,0
3.814,8.354,0
3.815,7.622,0
3.816,9.453,0
3.817,6.34,0
3.818,5.791,0
3.819,9.086,0
3.82,8.72,0
3.821,12.565,0
3.822,5.974,0
3.823,6.889,0
3.824,4.509,0
3.825,3.044,0
3.826,5.241,0
3.827,15.495,0
3.828,29.045,0
3.829,45.524,0
3.83,60.905,0
3.831,70.976,0
3.832,43.51,0
3.833,23.918,0
3.834,-8.309,0
3.835,-21.126,0
3.836,-32.845,0
3.837,-29.366,0
3.838,-38.887,0
3.839,-35.958,0
3.84,-33.394,0
3.841,-35.774,0
3.842,-33.577,0
3.843,-27.535,0
3.844,-22.042,0
3.845,-17.098,0
3.846,-12.703,0
3.847,-13.985,0
3.848,-12.886,0
3.849,-9.59,0
3.85,-8.675,0
3.851,-7.759,0
3.852,-3.731,0
3.853,-5.928,0
3.854,-1.351,0
3.855,5.607,0
3.856,8.354,0
3.857,5.974,0
3.858,3.776,0
3.859,7.072,0
3.86,3.959,0
3.861,6.706,0
3.862,7.988,0
3.863,11.101,0
3.864,4.875,0
3.865,7.622,0
3.866,11.65,0
3.867,3.227,0
3.868,4.326,0
3.869,7.255,0
3.87,8.171,0
3.871,8.903,0
3.872,1.945,0
3.873,-0.801,0
3.874,3.227,0
3.875,1.03,0
3.876,2.312,0
3.877,0.48,0
3.878,8.72,0
3.879,21.171,0
3.88,46.074,0
3.881,63.835,0
3.882,66.948,0
3.883,46.257,0
3.884,11.284,0
3.885,-2.999,0
3.886,-24.605,0
3.887,-36.324,0
3.888,-32.845,0
3.889,-29.732,0
3.89,-32.662,0
3.891,-35.225,0
3.892,-32.845,0
3.893,-30.647,0
3.894,-28.633,0
3.895,-19.478,0
3.896,-11.238,0
3.897,-15.633,0
3.898,-11.604,0
3.899,-10.506,0
3.9,-0.252,0
3.901,-1.534,0
3.902,1.945,0
3.903,7.622,0
3.904,10.551,0
3.905,7.805,0
3.906,5.424,0
3.907,0.114,0
3.908,-1.717,0
3.909,-3.548,0
3.91,1.579,0
3.911,7.805,0
3.912,10.185,0
3.913,7.988,0
3.914,4.692,0
3.915,6.523,0
3.916,7.072,0
3.917,5.791,0
3.918,2.678,0
3.919,8.171,0
3.92,10.368,0
3.921,5.791,0
3.922,6.34,0
3.923,1.213,0
3.924,0.664,0
3.925,-2.449,0
3.926,-1.9,0
3.927,-1.351,0
3.928,1.945,0
3.929,8.903,0
3.93,22.087,0
3.931,49.553,0
3.932,69.145,0
3.933,58.525,0
3.934,29.228,0
3.935,1.762,0
3.936,-8.858,0
3.937,-11.971,0
3.938,-3.182,0
3.939,-5.745,0
3.94,-17.83,0
3.941,-28.816,0
3.942,-34.859,0
3.943,-36.69,0
3.944,-35.042,0
3.945,-30.647,0
3.946,-29.366,0
3.947,-25.887,0
3.948,-20.21,0
3.949,-17.281,0
3.95,-12.703,0
3.951,-11.971,0
3.952,-6.661,0
3.953,-3.365,0
3.954,3.593,0
3.955,0.847,0
3.956,3.227,0
3.957,8.537,0
3.958,3.959,0
3.959,-4.28,0
3.96,-3.182,0
3.961,5.974,0
3.962,7.072,0
3.963,5.974,0
3.964,3.044,0
3.965,3.959,0
3.966,3.227,0
3.967,5.424,0
3.968,4.875,0
3.969,7.988,0
3.97,8.537,0
3.971,8.903,0
3.972,9.27,0
3.973,6.523,0
3.974,9.086,0
3.975,6.523,0
3.976,7.988,0
3.977,3.776,0
3.978,0.847,0
3.979,2.678,0
3.98,11.101,0
3.981,12.199,0
3.982,29.228,0
3.983,46.074,0
3.984,57.06,0
3.985,59.074,0
3.986,53.581,0
3.987,45.341,0
3.988,40.947,0
3.989,34.172,0
3.99,28.129,0
3.991,24.833,0
3.992,21.904,0
3.993,7.988,0
3.994,-22.225,0
3.995,-69.832,0
3.996,-76.058,0
3.997,-70.381,0
3.998,-75.508,0
3.999,-70.748,0
4,-66.536,0
4.001,-54.817,0
4.002,-44.197,0
4.003,-41.084,0
4.004,-26.253,0
4.005,-23.689,0
4.006,-16.548,0
4.007,-14.351,0
4.008,-8.309,0
4.009,-2.815,0
4.01,-1.167,0
4.011,3.227,0
4.012,4.509,0
4.013,5.607,0
4.014,6.706,0
4.015,9.636,0
4.016,8.72,0
4.017,12.749,0
4.018,12.016,0
4.019,13.847,0
4.02,14.396,0
4.021,12.749,0
4.022,13.115,0
4.023,8.903,0
4.024,12.749,0
4.025,14.03,0
4.026,13.664,0
4.027,14.03,0
4.028,16.594,0
4.029,14.763,0
4.03,12.199,0
4.031,16.777,0
4.032,27.031,0
4.033,49.553,0
4.034,78.85,0
4.035,51.384,0
4.036,19.157,0
4.037,6.34,0
4.038,2.495,0
4.039,-15.267,0
4.04,-12.154,0
4.041,-20.943,0
4.042,-23.506,0
4.043,-16.365,0
4.044,-18.563,0
4.045,-16.548,0
4.046,-18.379,0
4.047,-16.731,0
4.048,-12.337,0
4.049,-5.562,0
4.05,-9.041,0
4.051,-3.365,0
4.052,-10.323,0
4.053,-1.9,0
4.054,-0.801,0
4.055,-3.731,0
4.056,0.847,0
4.057,3.227,0
4.058,-2.083,0
4.059,-1.534,0
4.06,-3.365,0
4.061,0.48,0
4.062,0.847,0
4.063,1.213,0
4.064,-1.534,0
4.065,0.297,0
4.066,-5.196,0
4.067,1.762,0
4.068,2.678,0
4.069,6.706,0
4.07,4.509,0
4.071,6.34,0
4.072,3.227,0
4.073,2.678,0
4.074,-0.618,0
4.075,0.664,0
4.076,-1.351,0
4.077,-5.562,0
4.078,-1.717,0
4.079,-2.083,0
4.08,-1.351,0
4.081,1.762,0
4.082,7.988,0
4.083,21.904,0
4.084,52.116,0
4.085,73.723,0
4.086,77.568,0
4.087,38.2,0
4.088,12.016,0
4.089,-11.788,0
4.09,-24.605,0
4.091,-36.324,0
4.092,-39.803,0
4.093,-36.69,0
4.094,-39.62,0
4.095,-37.056,0
4.096,-29.915,0
4.097,-23.323,0
4.098,-21.309,0
4.099,-15.816,0
4.1,-14.168,0
4.101,-12.703,0
4.102,-11.421,0
4.103,-2.999,0
4.104,-4.097,0
4.105,-1.167,0
4.106,-5.745,0
4.107,-0.069,0
4.108,2.128,0
4.109,5.424,0
4.11,1.03,0
4.111,2.678,0
4.112,1.396,0
4.113,3.593,0
4.114,2.495,0
4.115,4.326,0
4.116,1.762,0
4.117,5.791,0
4.118,4.143,0
4.119,9.636,0
4.12,11.833,0
4.121,11.284,0
4.122,5.607,0
4.123,10.917,0
4.124,3.41,0
4.125,0.48,0
4.126,3.227,0
4.127,2.495,0
4.128,3.227,0
4.129,6.523,0
4.13,13.481,0
4.131,16.96,0
4.132,14.213,0
4.133,25.017,0
4.134,44.609,0
4.135,63.286,0
4.136,90.019,0
4.137,107.78,0
4.138,78.483,0
4.139,42.961,0
4.14,9.636,0
4.141,-11.971,0
4.142,-23.689,0
4.143,-41.451,0
4.144,-57.564,0
4.145,-60.494,0
4.146,-68.367,0
4.147,-75.508,0
4.148,-77.706,0
4.149,-67.635,0
4.15,-47.493,0
4.151,-34.126,0
4.152,-26.985,0
4.153,-42.366,0
4.154,-60.494,0
4.155,-72.579,0
4.156,-101.33,0
4.157,-113.05,0
4.158,-116.52,0
4.159,-119.64,0
4.16,-128.43,0
4.161,-136.3,0
4.162,-143.44,0
4.163,-132.45,0
4.164,-126.41,0
4.165,-109.93,0
4.166,-76.79,0
4.167,-5.196,0
4.168,107.78,0
4.169,152.82,0
4.17,166.37,0
4.171,153.92,0
4.172,120.23,0
4.173,109.98,0
4.174,100.64,0
4.175,92.216,0
4.176,99.907,0
4.177,106.86,0
4.178,125.72,0
4.179,154.47,0
4.18,149.34,0
4.181,154.11,0
4.182,145.13,0
4.183,132.32,0
4.184,151.91,0
4.185,148.43,0
4.186,119.13,0
4.187,83.61,0
4.188,69.328,0
4.189,65.117,0
4.19,92.583,0
4.191,110.34,0
4.192,87.822,0
4.193,43.327,0
4.194,-13.985,0
4.195,-37.056,0
4.196,-57.93,0
4.197,-64.156,0
4.198,-69.832,0
4.199,-74.959,0
4.2,-79.72,0
4.201,-83.931,0
4.202,-80.086,0
4.203,-76.607,0
4.204,-73.494,0
4.205,-70.564,0
4.206,-73.128,0
4.207,-70.748,0
4.208,-72.945,0
4.209,-70.931,0
4.21,-69.1,0
4.211,-74.043,0
4.212,-69.649,0
4.213,-68.367,0
4.214,-67.269,0
4.215,-59.395,0
4.216,-54.451,0
4.217,-46.028,0
4.218,-44.93,0
4.219,-42,0
4.22,-35.591,0
4.221,-33.211,0
4.222,-24.788,0
4.223,-21.492,0
4.224,-18.563,0
4.225,-12.154,0
4.226,-12.886,0
4.227,-7.576,0
4.228,-7.027,0
4.229,-0.069,0
4.23,0.847,0
4.231,1.579,0
4.232,2.312,0
4.233,3.776,0
4.234,8.354,0
4.235,17.875,0
4.236,38.383,0
4.237,70.976,0
4.238,83.793,0
4.239,48.271,0
4.24,14.946,0
4.241,2.128,0
4.242,-9.59,0
4.243,-13.069,0
4.244,-16.182,0
4.245,-19.112,0
4.246,-21.675,0
4.247,-24.056,0
4.248,-13.069,0
4.249,-11.055,0
4.25,-9.224,0
4.251,-7.576,0
4.252,-6.111,0
4.253,-4.83,0
4.254,-3.731,0
4.255,-0.435,0
4.256,0.48,0
4.257,6.889,0
4.258,6.157,0
4.259,3.959,0
4.26,7.255,0
4.261,7.805,0
4.262,6.157,0
4.263,10.734,0
4.264,6.34,0
4.265,13.664,0
4.266,12.749,0
4.267,13.664,0
4.268,14.396,0
4.269,15.129,0
4.27,11.833,0
4.271,13.664,0
4.272,9.819,0
4.273,9.453,0
4.274,9.819,0
4.275,7.072,0
4.276,5.974,0
4.277,4.143,0
4.278,2.128,0
4.279,2.861,0
4.28,3.044,0
4.281,3.593,0
4.282,4.692,0
4.283,7.622,0
4.284,8.171,0
4.285,10.917,0
4.286,5.974,0
4.287,16.228,0
4.288,38.75,0
4.289,54.863,0
4.29,57.792,0
4.291,55.229,0
4.292,52.849,0
4.293,28.496,0
4.294,38.017,0
4.295,46.806,0
4.296,22.636,0
4.297,-19.661,0
4.298,-48.409,0
4.299,-53.536,0
4.3,-67.818,0
4.301,-63.606,0
4.302,-59.761,0
4.303,-56.282,0
4.304,-53.169,0
4.305,-50.24,0
4.306,-42.366,0
4.307,-35.225,0
4.308,-33.028,0
4.309,-22.957,0
4.31,-17.464,0
4.311,-12.52,0
4.312,-8.125,0
4.313,-6.844,0
4.314,-5.745,0
4.315,2.128,0
4.316,5.058,0
4.317,5.974,0
4.318,10.002,0
4.319,10.734,0
4.32,12.565,0
4.321,13.115,0
4.322,10.368,0
4.323,10.734,0
4.324,12.932,0
4.325,13.298,0
4.326,13.664,0
4.327,12.565,0
4.328,14.58,0
4.329,15.312,0
4.33,12.382,0
4.331,10.551,0
4.332,11.65,0
4.333,9.636,0
4.334,12.749,0
4.335,7.438,0
4.336,8.537,0
4.337,14.213,0
4.338,26.665,0
4.339,50.468,0
4.34,59.99,0
4.341,80.681,0
4.342,72.807,0
4.343,36.369,0
4.344,-0.252,0
4.345,-24.056,0
4.346,-36.873,0
4.347,-40.718,0
4.348,-37.239,0
4.349,-40.352,0
4.35,-37.422,0
4.351,-34.859,0
4.352,-32.479,0
4.353,-30.281,0
4.354,-24.239,0
4.355,-18.746,0
4.356,-17.098,0
4.357,-12.703,0
4.358,-13.985,0
4.359,-10.506,0
4.36,-11.604,0
4.361,-8.675,0
4.362,-4.097,0
4.363,-1.717,0
4.364,0.48,0
4.365,3.776,0
4.366,5.607,0
4.367,6.157,0
4.368,3.776,0
4.369,6.889,0
4.37,11.467,0
4.371,10.917,0
4.372,10.368,0
4.373,4.875,0
4.374,7.072,0
4.375,7.622,0
4.376,5.791,0
4.377,4.143,0
4.378,5.424,0
4.379,5.058,0
4.38,3.959,0
4.381,3.593,0
4.382,4.692,0
4.383,5.424,0
4.384,7.255,0
4.385,9.636,0
4.386,8.903,0
4.387,6.889,0
4.388,11.101,0
4.389,20.622,0
4.39,41.13,0
4.391,67.863,0
4.392,50.102,0
4.393,33.989,0
4.394,7.255,0
4.395,-17.647,0
4.396,-33.76,0
4.397,-30.831,0
4.398,-33.394,0
4.399,-31.014,0
4.4,-28.816,0
4.401,-30.831,0
4.402,-29,0
4.403,-24.056,0
4.404,-22.591,0
4.405,-15.816,0
4.406,-14.717,0
4.407,-13.619,0
4.408,-10.689,0
4.409,-7.942,0
4.41,-5.562,0
4.411,-3.365,0
4.412,-1.534,0
4.413,-0.984,0
4.414,-1.534,0
4.415,3.044,0
4.416,3.593,0
4.417,4.143,0
4.418,7.438,0
4.419,7.805,0
4.42,10.551,0
4.421,9.453,0
4.422,8.354,0
4.423,12.382,0
4.424,6.157,0
4.425,5.424,0
4.426,6.157,0
4.427,6.706,0
4.428,8.537,0
4.429,16.96,0
4.43,35.454,0
4.431,27.58,0
4.432,15.495,0
4.433,4.509,0
4.434,-1.534,0
4.435,-3.365,0
4.436,-8.309,0
4.437,-7.942,0
4.438,-3.548,0
4.439,5.974,0
4.44,19.523,0
4.441,39.665,0
4.442,53.032,0
4.443,69.877,0
4.444,49.919,0
4.445,20.439,0
4.446,-7.027,0
4.447,-31.929,0
4.448,-41.451,0
4.449,-50.24,0
4.45,-47.676,0
4.451,-45.296,0
4.452,-38.704,0
4.453,-32.662,0
4.454,-30.831,0
4.455,-25.887,0
4.456,-21.492,0
4.457,-22.774,0
4.458,-19.295,0
4.459,-15.999,0
4.46,-9.041,0
4.461,-6.294,0
4.462,-7.027,0
4.463,-0.069,0
4.464,0.847,0
4.465,3.227,0
4.466,3.959,0
4.467,0.664,0
4.468,5.058,0
4.469,5.607,0
4.47,6.889,0
4.471,12.932,0
4.472,7.255,0
4.473,6.523,0
4.474,5.974,0
4.475,6.523,0
4.476,7.072,0
4.477,8.354,0
4.478,5.241,0
4.479,6.34,0
4.48,3.776,0
4.481,7.805,0
4.482,9.086,0
4.483,8.72,0
4.484,9.086,0
4.485,4.875,0
4.486,6.523,0
4.487,4.143,0
4.488,5.241,0
4.489,4.875,0
4.49,11.101,0
4.491,25.017,0
4.492,47.172,0
4.493,62.004,0
4.494,86.174,0
4.495,63.652,0
4.496,19.157,0
4.497,0.297,0
4.498,-28.45,0
4.499,-33.577,0
4.5,-38.338,0
4.501,-42.549,0
4.502,-38.704,0
4.503,-35.225,0
4.504,-32.112,0
4.505,-23.323,0
4.506,-25.887,0
4.507,-28.267,0
4.508,-21.675,0
4.509,-19.661,0
4.51,-10.506,0
4.511,-8.858,0
4.512,-7.393,0
4.513,-6.111,0
4.514,-2.632,0
4.515,-3.731,0
4.516,-0.801,0
4.517,-3.548,0
4.518,2.128,0
4.519,2.861,0
4.52,3.41,0
4.521,2.861,0
4.522,10.185,0
4.523,7.255,0
4.524,8.171,0
4.525,8.903,0
4.526,6.706,0
4.527,7.255,0
4.528,2.861,0
4.529,1.213,0
4.53,1.579,0
4.531,3.776,0
4.532,4.143,0
4.533,3.776,0
4.534,6.34,0
4.535,3.044,0
4.536,4.326,0
4.537,8.171,0
4.538,11.467,0
4.539,5.974,0
4.54,4.692,0
4.541,10.917,0
4.542,19.34,0
4.543,36.369,0
4.544,53.215,0
4.545,55.412,0
4.546,57.426,0
4.547,48.271,0
4.548,43.327,0
4.549,38.933,0
4.55,32.158,0
4.551,26.115,0
4.552,31.792,0
4.553,24.833,0
4.554,10.917,0
4.555,-19.295,0
4.556,-66.902,0
4.557,-73.128,0
4.558,-78.804,0
4.559,-73.677,0
4.56,-68.917,0
4.561,-64.705,0
4.562,-52.986,0
4.563,-49.507,0
4.564,-46.395,0
4.565,-37.605,0
4.566,-29.732,0
4.567,-17.647,0
4.568,-11.055,0
4.569,-9.041,0
4.57,0.114,0
4.571,1.762,0
4.572,6.157,0
4.573,7.438,0
4.574,8.537,0
4.575,11.833,0
4.576,12.749,0
4.577,13.664,0
4.578,12.932,0
4.579,18.242,0
4.58,13.664,0
4.581,16.777,0
4.582,15.129,0
4.583,16.411,0
4.584,22.453,0
4.585,20.073,0
4.586,17.875,0
4.587,13.298,0
4.588,15.129,0
4.589,11.284,0
4.59,6.706,0
4.591,11.284,0
4.592,13.115,0
4.593,21.538,0
4.594,40.031,0
4.595,75.004,0
4.596,41.679,0
4.597,20.073,0
4.598,-7.393,0
4.599,-18.013,0
4.6,-21.126,0
4.601,-24.056,0
4.602,-21.492,0
4.603,-23.873,0
4.604,-17.281,0
4.605,-19.295,0
4.606,-17.464,0
4.607,-15.816,0
4.608,-14.351,0
4.609,-13.069,0
4.61,-9.59,0
4.611,-8.492,0
4.612,-5.562,0
4.613,-8.309,0
4.614,-5.928,0
4.615,-5.196,0
4.616,-3.365,0
4.617,1.03,0
4.618,6.157,0
4.619,4.326,0
4.62,4.875,0
4.621,6.523,0
4.622,5.241,0
4.623,3.044,0
4.624,1.945,0
4.625,3.776,0
4.626,1.945,0
4.627,5.241,0
4.628,3.959,0
4.629,4.326,0
4.63,0.847,0
4.631,3.959,0
4.632,4.326,0
4.633,1.762,0
4.634,-0.069,0
4.635,0.664,0
4.636,4.875,0
4.637,5.424,0
4.638,2.678,0
4.639,5.058,0
4.64,-1.9,0
4.641,7.438,0
4.642,0.48,0
4.643,12.565,0
4.644,24.101,0
4.645,34.538,0
4.646,55.046,0
4.647,75.737,0
4.648,57.06,0
4.649,20.622,0
4.65,-15.999,0
4.651,-30.281,0
4.652,-34.493,0
4.653,-46.211,0
4.654,-42.732,0
4.655,-39.62,0
4.656,-30.831,0
4.657,-33.394,0
4.658,-31.014,0
4.659,-28.816,0
4.66,-30.831,0
4.661,-29,0
4.662,-20.76,0
4.663,-16.365,0
4.664,-12.337,0
4.665,-8.858,0
4.666,-0.984,0
4.667,-0.069,0
4.668,2.678,0
4.669,1.945,0
4.67,1.213,0
4.671,1.762,0
4.672,4.875,0
4.673,3.227,0
4.674,7.805,0
4.675,17.326,0
4.676,37.834,0
4.677,23.002,0
4.678,15.129,0
4.679,3.044,0
4.68,-3.548,0
4.681,-1.534,0
4.682,-3.365,0
4.683,-5.013,0
4.684,-6.478,0
4.685,-2.449,0
4.686,-3.548,0
4.687,2.128,0
4.688,-2.815,0
4.689,3.593,0
4.69,-0.435,0
4.691,-1.167,0
4.692,-4.28,0
4.693,-0.984,0
4.694,8.537,0
4.695,29.045,0
4.696,61.638,0
4.697,74.455,0
4.698,46.989,0
4.699,14.763,0
4.7,-6.844,0
4.701,-18.563,0
4.702,-22.042,0
4.703,-25.154,0
4.704,-28.084,0
4.705,-25.521,0
4.706,-23.14,0
4.707,-20.943,0
4.708,-22.957,0
4.709,-17.464,0
4.71,-15.816,0
4.711,-14.351,0
4.712,-10.323,0
4.713,-6.844,0
4.714,-5.745,0
4.715,-2.815,0
4.716,-0.069,0
4.717,2.312,0
4.718,-2.999,0
4.719,0.297,0
4.72,2.128,0
4.721,2.678,0
4.722,3.959,0
4.723,5.241,0
4.724,6.34,0
4.725,4.509,0
4.726,6.34,0
4.727,2.312,0
4.728,2.861,0
4.729,5.241,0
4.73,3.959,0
4.731,-2.266,0
4.732,-1.351,0
4.733,2.678,0
4.734,0.48,0
4.735,5.058,0
4.736,6.889,0
4.737,6.34,0
4.738,5.058,0
4.739,6.34,0
4.74,0.114,0
4.741,1.03,0
4.742,1.762,0
4.743,8.171,0
4.744,5.974,0
4.745,16.228,0
4.746,32.707,0
4.747,52.666,0
4.748,66.032,0
4.749,82.878,0
4.75,58.525,0
4.751,22.819,0
4.752,-10.506,0
4.753,-23.323,0
4.754,-35.042,0
4.755,-31.563,0
4.756,-34.676,0
4.757,-37.605,0
4.758,-40.169,0
4.759,-37.789,0
4.76,-31.197,0
4.761,-29.183,0
4.762,-20.027,0
4.763,-15.083,0
4.764,-13.619,0
4.765,-12.337,0
4.766,-11.238,0
4.767,-10.14,0
4.768,-7.21,0
4.769,-6.294,0
4.77,-2.266,0
4.771,-0.069,0
4.772,3.227,0
4.773,1.396,0
4.774,-0.252,0
4.775,-3.548,0
4.776,-0.435,0
4.777,5.058,0
4.778,-0.252,0
4.779,0.297,0
4.78,4.692,0
4.781,13.115,0
4.782,12.016,0
4.783,10.917,0
4.784,11.833,0
4.785,5.424,0
4.786,3.044,0
4.787,2.312,0
4.788,4.143,0
4.789,3.593,0
4.79,-0.252,0
4.791,2.128,0
4.792,1.762,0
4.793,2.861,0
4.794,7.438,0
4.795,3.227,0
4.796,9.453,0
4.797,21.904,0
4.798,45.708,0
4.799,75.004,0
4.8,47.539,0
4.801,29.777,0
4.802,0.48,0
4.803,-11.238,0
4.804,-21.858,0
4.805,-24.971,0
4.806,-27.901,0
4.807,-30.464,0
4.808,-28.084,0
4.809,-30.281,0
4.81,-28.267,0
4.811,-22.774,0
4.812,-21.126,0
4.813,-16.731,0
4.814,-9.957,0
4.815,-11.055,0
4.816,-3.182,0
4.817,-6.111,0
4.818,-1.534,0
4.819,0.847,0
4.82,4.692,0
4.821,4.143,0
4.822,3.593,0
4.823,1.945,0
4.824,5.241,0
4.825,5.607,0
4.826,11.101,0
4.827,8.903,0
4.828,8.354,0
4.829,7.805,0
4.83,6.157,0
4.831,4.875,0
4.832,7.988,0
4.833,6.889,0
4.834,6.523,0
4.835,2.495,0
4.836,0.114,0
4.837,-1.167,0
4.838,-1.534,0
4.839,1.03,0
4.84,0.664,0
4.841,-2.083,0
4.842,-1.717,0
4.843,0.847,0
4.844,-1.167,0
4.845,1.579,0
4.846,2.861,0
4.847,6.889,0
4.848,15.312,0
4.849,33.806,0
4.85,63.286,0
4.851,75.004,0
4.852,57.243,0
4.853,14.946,0
4.854,-2.266,0
4.855,-28.45,0
4.856,-33.211,0
4.857,-37.422,0
4.858,-41.268,0
4.859,-37.789,0
4.86,-40.901,0
4.861,-32.112,0
4.862,-29.549,0
4.863,-22.408,0
4.864,-24.605,0
4.865,-18.563,0
4.866,-13.069,0
4.867,-11.421,0
4.868,-7.027,0
4.869,-8.309,0
4.87,-2.266,0
4.871,-1.167,0
4.872,-0.252,0
4.873,0.664,0
4.874,-0.069,0
4.875,2.128,0
4.876,3.959,0
4.877,7.072,0
4.878,7.622,0
4.879,8.903,0
4.88,12.016,0
4.881,9.27,0
4.882,5.791,0
4.883,7.072,0
4.884,8.171,0
4.885,6.34,0
4.886,3.776,0
4.887,5.791,0
4.888,5.974,0
4.889,2.495,0
4.89,-1.717,0
4.891,-2.266,0
4.892,-0.984,0
4.893,3.227,0
4.894,7.072,0
4.895,3.776,0
4.896,3.776,0
4.897,4.143,0
4.898,10.368,0
4.899,24.284,0
4.9,46.44,0
4.901,61.271,0
4.902,74.638,0
4.903,62.553,0
4.904,29.411,0
4.905,-3.914,0
4.906,-16.731,0
4.907,-36.324,0
4.908,-39.803,0
4.909,-42.916,0
4.91,-34.126,0
4.911,-31.563,0
4.912,-24.422,0
4.913,-22.225,0
4.914,-16.182,0
4.915,-7.027,0
4.916,1.213,0
4.917,5.607,0
4.918,12.382,0
4.919,11.284,0
4.92,26.115,0
4.921,36.186,0
4.922,45.341,0
4.923,23.735,0
4.924,14.946,0
4.925,-3.731,0
4.926,-15.816,0
4.927,-31.197,0
4.928,-37.239,0
4.929,-42.732,0
4.93,-47.676,0
4.931,-43.282,0
4.932,-39.253,0
4.933,-25.704,0
4.934,-20.21,0
4.935,-21.858,0
4.936,-32.295,0
4.937,-52.803,0
4.938,-67.635,0
4.939,-81.001,0
4.94,-93.086,0
4.941,-113.05,0
4.942,-115.61,0
4.943,-122.75,0
4.944,-124.95,0
4.945,-114.88,0
4.946,-109.38,0
4.947,-98.03,0
4.948,-79.72,0
4.949,-43.282,0
4.95,35.454,0
4.951,182.3,0
4.952,202.26,0
4.953,220.39,0
4.954,170.77,0
4.955,125.72,0
4.956,57.426,0
4.957,44.975,0
4.958,33.806,0
4.959,23.552,0
4.96,32.89,0
4.961,75.188,0
4.962,82.878,0
4.963,103.75,0
4.964,109.98,0
4.965,104.3,0
4.966,99.174,0
4.967,103.94,0
4.968,99.724,0
4.969,88.005,0
4.97,70.244,0
4.971,47.722,0
4.972,38.933,0
4.973,41.496,0
4.974,43.876,0
4.975,37.285,0
4.976,31.242,0
4.977,22.087,0
4.978,10.551,0
4.979,0.114,0
4.98,-12.154,0
4.981,-13.802,0
4.982,-12.337,0
4.983,-30.098,0
4.984,-37.239,0
4.985,-39.437,0
4.986,-41.451,0
4.987,-43.282,0
4.988,-48.226,0
4.989,-52.62,0
4.99,-53.902,0
4.991,-55,0
4.992,-53.902,0
4.993,-60.86,0
4.994,-63.606,0
4.995,-65.987,0
4.996,-63.79,0
4.997,-64.339,0
4.998,-63.606,0
4.999,-57.93,0
5,-46.395,0
5.001,-24.788,0
5.002,1.945,0
5.003,19.707,0
5.004,42.229,0
5.005,21.538,0
5.006,-7.942,0
5.007,-35.408,0
5.008,-53.169,0
5.009,-50.057,0
5.01,-52.986,0
5.011,-50.423,0
5.012,-48.042,0
5.013,-41.451,0
5.014,-35.408,0
5.015,-33.577,0
5.016,-28.633,0
5.017,-24.239,0
5.018,-20.21,0
5.019,-14.168,0
5.02,-8.492,0
5.021,-5.562,0
5.022,-2.815,0
5.023,-2.083,0
5.024,0.114,0
5.025,1.945,0
5.026,5.058,0
5.027,7.805,0
5.028,9.086,0
5.029,10.368,0
5.03,12.382,0
5.031,16.594,0
5.032,16.044,0
5.033,17.326,0
5.034,18.608,0
5.035,12.382,0
5.036,11.467,0
5.037,13.847,0
5.038,11.65,0
5.039,13.481,0
5.04,11.65,0
5.041,10.002,0
5.042,10.368,0
5.043,12.565,0
5.044,13.664,0
5.045,11.833,0
5.046,12.199,0
5.047,10.185,0
5.048,10.917,0
5.049,12.565,0
5.05,10.185,0
5.051,14.763,0
5.052,25.017,0
5.053,47.539,0
5.054,83.244,0
5.055,59.44,0
5.056,20.439,0
5.057,4.875,0
5.058,-9.407,0
5.059,-13.619,0
5.06,-25.337,0
5.061,-28.816,0
5.062,-31.929,0
5.063,-23.14,0
5.064,-25.704,0
5.065,-18.563,0
5.066,-16.365,0
5.067,-14.351,0
5.068,-12.52,0
5.069,-10.872,0
5.07,-9.407,0
5.071,-8.125,0
5.072,0.297,0
5.073,-0.801,0
5.074,6.157,0
5.075,7.072,0
5.076,3.044,0
5.077,3.776,0
5.078,3.227,0
5.079,1.396,0
5.08,6.523,0
5.081,7.072,0
5.082,1.396,0
5.083,6.706,0
5.084,4.875,0
5.085,0.48,0
5.086,2.128,0
5.087,2.495,0
5.088,1.213,0
5.089,-1.534,0
5.09,-1.9,0
5.091,-1.534,0
5.092,1.762,0
5.093,3.044,0
5.094,3.41,0
5.095,1.579,0
5.096,1.945,0
5.097,5.974,0
5.098,6.523,0
5.099,6.889,0
5.1,7.438,0
5.101,7.805,0
5.102,12.382,0
5.103,21.904,0
5.104,42.412,0
5.105,69.145,0
5.106,72.624,0
5.107,43.327,0
5.108,7.805,0
5.109,-15.999,0
5.11,-28.816,0
5.111,-32.662,0
5.112,-36.141,0
5.113,-39.253,0
5.114,-42.183,0
5.115,-34.31,0
5.116,-31.929,0
5.117,-25.337,0
5.118,-23.323,0
5.119,-17.83,0
5.12,-16.182,0
5.121,-11.788,0
5.122,-10.506,0
5.123,-7.027,0
5.124,-3.731,0
5.125,-2.815,0
5.126,-5.562,0
5.127,-1.534,0
5.128,2.312,0
5.129,2.861,0
5.13,1.03,0
5.131,7.255,0
5.132,9.636,0
5.133,5.791,0
5.134,3.959,0
5.135,3.41,0
5.136,5.058,0
5.137,-0.435,0
5.138,6.523,0
5.139,7.438,0
5.14,8.171,0
5.141,5.974,0
5.142,7.805,0
5.143,2.128,0
5.144,2.861,0
5.145,2.312,0
5.146,0.48,0
5.147,4.326,0
5.148,5.607,0
5.149,0.48,0
5.15,1.03,0
5.151,2.312,0
5.152,2.861,0
5.153,11.284,0
5.154,27.397,0
5.155,47.355,0
5.156,55.229,0
5.157,72.075,0
5.158,65.483,0
5.159,35.271,0
5.16,-3.731,0
5.161,-19.295,0
5.162,-33.577,0
5.163,-37.789,0
5.164,-41.634,0
5.165,-38.155,0
5.166,-35.042,0
5.167,-8.309,0
5.168,-4.83,0
5.169,-14.351,0
5.17,-17.281,0
5.171,-25.154,0
5.172,-18.013,0
5.173,-20.21,0
5.174,-30.281,0
5.175,-28.45,0
5.176,-26.802,0
5.177,-13.252,0
5.178,-7.759,0
5.179,0.48,0
5.18,4.875,0
5.181,-4.646,0
5.182,-3.548,0
5.183,-4.646,0
5.184,-1.717,0
5.185,1.03,0
5.186,8.537,0
5.187,13.481,0
5.188,16.228,0
5.189,3.776,0
5.19,9.27,0
5.191,7.622,0
5.192,15.129,0
5.193,11.101,0
5.194,5.058,0
5.195,12.932,0
5.196,7.988,0
5.197,1.579,0
5.198,2.312,0
5.199,7.622,0
5.2,9.453,0
5.201,8.903,0
5.202,13.298,0
5.203,4.875,0
5.204,18.425,0
5.205,27.58,0
5.206,35.82,0
5.207,58.342,0
5.208,80.864,0
5.209,54.13,0
5.21,21.904,0
5.211,-8.309,0
5.212,-27.901,0
5.213,-31.38,0
5.214,-34.493,0
5.215,-31.563,0
5.216,-39.437,0
5.217,-37.056,0
5.218,-34.859,0
5.219,-28.816,0
5.22,-26.985,0
5.221,-25.337,0
5.222,-20.943,0
5.223,-19.661,0
5.224,-16.182,0
5.225,-10.506,0
5.226,-7.576,0
5.227,-6.661,0
5.228,-2.632,0
5.229,2.678,0
5.23,4.509,0
5.231,6.34,0
5.232,3.593,0
5.233,6.889,0
5.234,12.016,0
5.235,10.185,0
5.236,7.072,0
5.237,6.523,0
5.238,12.016,0
5.239,23.552,0
5.24,48.454,0
5.241,59.074,0
5.242,23.369,0
5.243,-0.435,0
5.244,-13.252,0
5.245,-17.098,0
5.246,-20.577,0
5.247,-23.689,0
5.248,-26.619,0
5.249,-24.056,0
5.25,-16.915,0
5.251,-19.112,0
5.252,-13.069,0
5.253,-9.407,0
5.254,-3.914,0
5.255,11.101,0
5.256,17.143,0
5.257,44.609,0
5.258,72.075,0
5.259,54.313,0
5.26,18.608,0
5.261,-5.196,0
5.262,-26.802,0
5.263,-22.957,0
5.264,-26.436,0
5.265,-29.549,0
5.266,-26.619,0
5.267,-24.056,0
5.268,-21.675,0
5.269,-19.478,0
5.27,-17.464,0
5.271,-8.309,0
5.272,-9.957,0
5.273,-11.421,0
5.274,-7.393,0
5.275,-8.492,0
5.276,-7.393,0
5.277,-10.323,0
5.278,-1.9,0
5.279,-0.801,0
5.28,4.143,0
5.281,10.551,0
5.282,3.044,0
5.283,3.959,0
5.284,3.044,0
5.285,7.072,0
5.286,7.805,0
5.287,9.636,0
5.288,6.523,0
5.289,9.27,0
5.29,6.889,0
5.291,6.523,0
5.292,8.537,0
5.293,6.706,0
5.294,8.537,0
5.295,9.27,0
5.296,10.551,0
5.297,7.622,0
5.298,6.523,0
5.299,1.03,0
5.3,1.762,0
5.301,2.312,0
5.302,2.861,0
5.303,-0.984,0
5.304,-3.548,0
5.305,-2.266,0
5.306,4.692,0
5.307,19.89,0
5.308,53.032,0
5.309,67.314,0
5.31,37.102,0
5.311,9.636,0
5.312,-8.125,0
5.313,-17.647,0
5.314,-26.436,0
5.315,-29,0
5.316,-31.38,0
5.317,-29.183,0
5.318,-31.197,0
5.319,-25.704,0
5.32,-24.056,0
5.321,-16.548,0
5.322,-15.267,0
5.323,-11.788,0
5.324,-10.689,0
5.325,-7.759,0
5.326,-3.182,0
5.327,-7.21,0
5.328,-5.013,0
5.329,-0.435,0
5.33,1.396,0
5.331,4.143,0
5.332,3.776,0
5.333,5.058,0
5.334,3.959,0
5.335,5.791,0
5.336,3.227,0
5.337,6.523,0
5.338,9.636,0
5.339,6.889,0
5.34,1.945,0
5.341,3.776,0
5.342,4.326,0
5.343,2.678,0
5.344,-0.618,0
5.345,-0.252,0
5.346,5.241,0
5.347,3.044,0
5.348,4.875,0
5.349,1.762,0
5.35,3.41,0
5.351,7.988,0
5.352,6.157,0
5.353,3.41,0
5.354,4.692,0
5.355,3.776,0
5.356,0.664,0
5.357,3.41,0
5.358,9.086,0
5.359,21.538,0
5.36,49.003,0
5.361,52.849,0
5.362,35.087,0
5.363,-0.618,0
5.364,-14.9,0
5.365,-27.718,0
5.366,-31.563,0
5.367,-35.042,0
5.368,-38.155,0
5.369,-35.225,0
5.37,-32.662,0
5.371,-35.042,0
5.372,-24.056,0
5.373,-18.013,0
5.374,-16.182,0
5.375,-14.534,0
5.376,-10.14,0
5.377,-6.111,0
5.378,-5.013,0
5.379,-1.717,0
5.38,3.227,0
5.381,2.312,0
5.382,1.579,0
5.383,0.847,0
5.384,5.424,0
5.385,4.875,0
5.386,6.523,0
5.387,7.805,0
5.388,5.607,0
5.389,5.241,0
5.39,4.143,0
5.391,3.776,0
5.392,6.523,0
5.393,5.424,0
5.394,2.128,0
5.395,2.495,0
5.396,1.396,0
5.397,1.762,0
5.398,3.776,0
5.399,3.044,0
5.4,5.424,0
5.401,5.241,0
5.402,9.453,0
5.403,7.622,0
5.404,4.875,0
5.405,3.593,0
5.406,3.044,0
5.407,1.762,0
5.408,-0.252,0
5.409,1.579,0
5.41,-2.449,0
5.411,0.847,0
5.412,7.805,0
5.413,23.002,0
5.414,29.594,0
5.415,7.438,0
5.416,16.228,0
5.417,40.397,0
5.418,49.919,0
5.419,58.708,0
5.42,40.031,0
5.421,13.298,0
5.422,-18.929,0
5.423,-31.746,0
5.424,-43.465,0
5.425,-46.944,0
5.426,-50.057,0
5.427,-47.127,0
5.428,-44.563,0
5.429,-37.422,0
5.43,-35.225,0
5.431,-29.183,0
5.432,-27.352,0
5.433,-22.408,0
5.434,-18.013,0
5.435,-11.238,0
5.436,-7.759,0
5.437,-6.661,0
5.438,-3.731,0
5.439,-0.984,0
5.44,-0.252,0
5.441,1.945,0
5.442,2.495,0
5.443,4.326,0
5.444,1.579,0
5.445,7.072,0
5.446,6.34,0
5.447,1.762,0
5.448,7.438,0
5.449,8.171,0
5.45,6.34,0
5.451,9.453,0
5.452,12.199,0
5.453,11.833,0
5.454,11.467,0
5.455,6.889,0
5.456,8.72,0
5.457,7.438,0
5.458,7.988,0
5.459,15.495,0
5.46,27.946,0
5.461,52.849,0
5.462,49.37,0
5.463,71.892,0
5.464,80.681,0
5.465,56.511,0
5.466,14.213,0
5.467,-14.534,0
5.468,-30.098,0
5.469,-44.38,0
5.47,-48.592,0
5.471,-52.437,0
5.472,-48.958,0
5.473,-39.437,0
5.474,-42.366,0
5.475,-34.493,0
5.476,-32.112,0
5.477,-25.521,0
5.478,-23.506,0
5.479,-14.351,0
5.48,-9.407,0
5.481,-5.013,0
5.482,-6.294,0
5.483,-0.252,0
5.484,-1.351,0
5.485,1.579,0
5.486,2.495,0
5.487,3.227,0
5.488,5.424,0
5.489,4.875,0
5.49,4.326,0
5.491,4.875,0
5.492,8.171,0
5.493,9.453,0
5.494,11.467,0
5.495,13.298,0
5.496,7.805,0
5.497,0.847,0
5.498,5.424,0
5.499,6.157,0
5.5,6.889,0
5.501,6.34,0
5.502,5.791,0
5.503,4.143,0
5.504,2.861,0
5.505,1.579,0
5.506,2.678,0
5.507,0.114,0
5.508,0.847,0
5.509,1.945,0
5.51,6.523,0
5.511,16.777,0
5.512,39.299,0
5.513,75.004,0
5.514,51.201,0
5.515,12.199,0
5.516,-3.365,0
5.517,-17.647,0
5.518,-21.858,0
5.519,-25.704,0
5.52,-29.183,0
5.521,-26.07,0
5.522,-23.14,0
5.523,-25.704,0
5.524,-23.323,0
5.525,-21.126,0
5.526,-15.083,0
5.527,-13.252,0
5.528,-11.604,0
5.529,-10.14,0
5.53,-8.858,0
5.531,-7.759,0
5.532,-8.858,0
5.533,-1.9,0
5.534,-2.815,0
5.535,-2.083,0
5.536,0.114,0
5.537,0.664,0
5.538,-1.167,0
5.539,0.48,0
5.54,0.114,0
5.541,5.241,0
5.542,5.791,0
5.543,2.678,0
5.544,4.326,0
5.545,8.903,0
5.546,9.453,0
5.547,3.227,0
5.548,0.847,0
5.549,3.044,0
5.55,4.875,0
5.551,7.988,0
5.552,6.34,0
5.553,5.058,0
5.554,6.34,0
5.555,1.762,0
5.556,3.593,0
5.557,-0.252,0
5.558,-3.548,0
5.559,0.847,0
5.56,3.959,0
5.561,10.185,0
5.562,24.101,0
5.563,54.313,0
5.564,75.92,0
5.565,79.765,0
5.566,54.863,0
5.567,12.565,0
5.568,-4.646,0
5.569,-30.831,0
5.57,-45.113,0
5.571,-40.901,0
5.572,-44.747,0
5.573,-41.268,0
5.574,-38.155,0
5.575,-35.225,0
5.576,-27.352,0
5.577,-24.971,0
5.578,-18.379,0
5.579,-12.337,0
5.58,-6.844,0
5.581,-1.9,0
5.582,-3.365,0
5.583,0.664,0
5.584,-0.435,0
5.585,0.664,0
5.586,-2.266,0
5.587,2.312,0
5.588,3.044,0
5.589,6.889,0
5.59,8.72,0
5.591,8.171,0
5.592,1.945,0
5.593,2.678,0
5.594,4.875,0
5.595,3.044,0
5.596,6.157,0
5.597,5.607,0
5.598,2.312,0
5.599,2.678,0
5.6,3.776,0
5.601,5.607,0
5.602,1.579,0
5.603,3.959,0
5.604,3.593,0
5.605,5.607,0
5.606,5.241,0
5.607,0.48,0
5.608,1.03,0
5.609,2.678,0
5.61,3.044,0
5.611,-0.252,0
5.612,6.706,0
5.613,19.89,0
5.614,47.355,0
5.615,66.948,0
5.616,77.568,0
5.617,48.271,0
5.618,12.749,0
5.619,-11.055,0
5.62,-23.873,0
5.621,-27.718,0
5.622,-31.197,0
5.623,-34.31,0
5.624,-31.38,0
5.625,-33.943,0
5.626,-26.802,0
5.627,-29,0
5.628,-26.985,0
5.629,-21.492,0
5.63,-19.844,0
5.631,-12.337,0
5.632,-11.055,0
5.633,-5.013,0
5.634,-3.914,0
5.635,-2.999,0
5.636,1.579,0
5.637,0.847,0
5.638,1.579,0
5.639,2.128,0
5.64,1.579,0
5.641,4.326,0
5.642,3.044,0
5.643,3.41,0
5.644,6.157,0
5.645,0.48,0
5.646,2.861,0
5.647,5.058,0
5.648,8.354,0
5.649,8.903,0
5.65,9.453,0
5.651,4.875,0
5.652,5.424,0
5.653,9.27,0
5.654,7.988,0
5.655,3.776,0
5.656,6.523,0
5.657,3.227,0
5.658,10.185,0
5.659,25.383,0
5.66,23.186,0
5.661,8.171,0
5.662,-1.9,0
5.663,-3.731,0
5.664,7.805,0
5.665,6.34,0
5.666,26.848,0
5.667,65.483,0
5.668,49.919,0
5.669,16.594,0
5.67,-5.013,0
5.671,-16.731,0
5.672,-20.21,0
5.673,-23.323,0
5.674,-20.394,0
5.675,-17.83,0
5.676,-5.745,0
5.677,-3.548,0
5.678,6.523,0
5.679,1.03,0
5.68,2.678,0
5.681,1.213,0
5.682,2.495,0
5.683,1.396,0
5.684,-6.478,0
5.685,-17.647,0
5.686,-25.154,0
5.687,-31.929,0
5.688,-43.099,0
5.689,-50.606,0
5.69,-43.831,0
5.691,-30.281,0
5.692,-21.126,0
5.693,-16.182,0
5.694,-32.662,0
5.695,-43.648,0
5.696,-57.747,0
5.697,-81.551,0
5.698,-97.664,0
5.699,-112.5,0
5.7,-115.06,0
5.701,-122.2,0
5.702,-137.58,0
5.703,-139.59,0
5.704,-126.78,0
5.705,-118.54,0
5.706,-98.946,0
5.707,-74.776,0
5.708,-26.07,0
5.709,79.033,0
5.71,154.29,0
5.711,167.84,0
5.712,161.25,0
5.713,148.8,0
5.714,137.63,0
5.715,127.37,0
5.716,155.39,0
5.717,163.81,0
5.718,156.12,0
5.719,135.25,0
5.72,129.02,0
5.721,134.7,0
5.722,129.57,0
5.723,124.81,0
5.724,103.2,0
5.725,83.61,0
5.726,87.089,0
5.727,83.977,0
5.728,69.145,0
5.729,44.975,0
5.73,22.453,0
5.731,19.523,0
5.732,11.65,0
5.733,18.791,0
5.734,20.988,0
5.735,6.889,0
5.736,-5.928,0
5.737,-10.872,0
5.738,-21.309,0
5.739,-25.337,0
5.74,-26.436,0
5.741,-29.732,0
5.742,-38.887,0
5.743,-44.93,0
5.744,-48.226,0
5.745,-45.296,0
5.746,-48.042,0
5.747,-52.071,0
5.748,-54.268,0
5.749,-52.437,0
5.75,-59.395,0
5.751,-65.804,0
5.752,-71.48,0
5.753,-70.748,0
5.754,-68.917,0
5.755,-65.804,0
5.756,-59.578,0
5.757,-57.198,0
5.758,-55,0
5.759,-53.169,0
5.76,-43.648,0
5.761,-36.873,0
5.762,-37.972,0
5.763,-33.577,0
5.764,-32.479,0
5.765,-21.309,0
5.766,1.213,0
5.767,23.735,0
5.768,44.426,0
5.769,46.989,0
5.77,39.848,0
5.771,15.495,0
5.772,-13.802,0
5.773,-25.521,0
5.774,-36.141,0
5.775,-39.253,0
5.776,-42.183,0
5.777,-34.31,0
5.778,-31.929,0
5.779,-29.732,0
5.78,-27.718,0
5.781,-22.225,0
5.782,-20.577,0
5.783,-16.182,0
5.784,-9.407,0
5.785,-5.928,0
5.786,-4.83,0
5.787,0.114,0
5.788,4.692,0
5.789,3.959,0
5.79,7.805,0
5.791,7.255,0
5.792,11.65,0
5.793,14.396,0
5.794,12.016,0
5.795,12.382,0
5.796,14.396,0
5.797,12.565,0
5.798,14.396,0
5.799,14.213,0
5.8,13.481,0
5.801,15.312,0
5.802,14.763,0
5.803,17.692,0
5.804,15.861,0
5.805,14.763,0
5.806,12.016,0
5.807,15.495,0
5.808,15.129,0
5.809,12.382,0
5.81,12.749,0
5.811,10.917,0
5.812,9.453,0
5.813,7.622,0
5.814,5.974,0
5.815,5.241,0
5.816,1.762,0
5.817,9.27,0
5.818,26.298,0
5.819,57.976,0
5.82,62.187,0
5.821,66.032,0
5.822,76.652,0
5.823,47.355,0
5.824,3.959,0
5.825,-24.788,0
5.826,-40.352,0
5.827,-45.113,0
5.828,-49.324,0
5.829,-45.479,0
5.83,-48.958,0
5.831,-45.845,0
5.832,-37.056,0
5.833,-34.493,0
5.834,-32.112,0
5.835,-25.521,0
5.836,-19.478,0
5.837,-13.985,0
5.838,-9.041,0
5.839,-7.576,0
5.84,-3.548,0
5.841,-4.646,0
5.842,-1.351,0
5.843,1.579,0
5.844,2.495,0
5.845,8.171,0
5.846,5.974,0
5.847,7.805,0
5.848,2.128,0
5.849,9.086,0
5.85,8.171,0
5.851,13.847,0
5.852,10.002,0
5.853,11.833,0
5.854,10.002,0
5.855,9.453,0
5.856,7.072,0
5.857,5.791,0
5.858,6.157,0
5.859,6.523,0
5.86,11.284,0
5.861,10.734,0
5.862,5.607,0
5.863,6.157,0
5.864,1.762,0
5.865,3.044,0
5.866,5.791,0
5.867,11.284,0
5.868,22.819,0
5.869,47.722,0
5.87,65.483,0
5.871,75.004,0
5.872,54.313,0
5.873,14.03,0
5.874,-14.717,0
5.875,-19.844,0
5.876,-34.126,0
5.877,-38.338,0
5.878,-42.183,0
5.879,-31.563,0
5.88,-28.45,0
5.881,-25.521,0
5.882,-28.084,0
5.883,-25.704,0
5.884,-19.112,0
5.885,-17.098,0
5.886,-15.267,0
5.887,-10.323,0
5.888,-5.928,0
5.889,-4.646,0
5.89,-3.548,0
5.891,-6.844,0
5.892,-5.928,0
5.893,-1.351,0
5.894,1.03,0
5.895,1.762,0
5.896,3.593,0
5.897,5.424,0
5.898,4.875,0
5.899,5.241,0
5.9,4.875,0
5.901,5.974,0
5.902,4.143,0
5.903,9.636,0
5.904,21.171,0
5.905,36.186,0
5.906,22.087,0
5.907,9.27,0
5.908,1.03,0
5.909,-0.435,0
5.91,-7.21,0
5.911,-6.111,0
5.912,-5.013,0
5.913,-7.942,0
5.914,-3.365,0
5.915,-4.097,0
5.916,-5.745,0
5.917,-7.942,0
5.918,2.312,0
5.919,21.904,0
5.92,46.074,0
5.921,62.187,0
5.922,70.976,0
5.923,36.003,0
5.924,2.678,0
5.925,-10.14,0
5.926,-21.858,0
5.927,-32.479,0
5.928,-29.366,0
5.929,-32.295,0
5.93,-34.859,0
5.931,-32.479,0
5.932,-30.281,0
5.933,-24.239,0
5.934,-22.408,0
5.935,-17.464,0
5.936,-13.069,0
5.937,-9.041,0
5.938,-2.999,0
5.939,-4.097,0
5.94,-1.167,0
5.941,-0.252,0
5.942,-4.28,0
5.943,5.791,0
5.944,1.762,0
5.945,2.861,0
5.946,3.959,0
5.947,4.875,0
5.948,7.622,0
5.949,3.593,0
5.95,7.438,0
5.951,12.016,0
5.952,7.622,0
5.953,8.171,0
5.954,5.791,0
5.955,12.749,0
5.956,11.833,0
5.957,9.086,0
5.958,6.706,0
5.959,7.438,0
5.96,7.988,0
5.961,8.537,0
5.962,5.791,0
5.963,5.424,0
5.964,5.058,0
5.965,3.044,0
5.966,1.213,0
5.967,0.847,0
5.968,1.945,0
5.969,6.523,0
5.97,16.777,0
5.971,39.299,0
5.972,75.004,0
5.973,51.201,0
5.974,20.988,0
5.975,1.396,0
5.976,-16.365,0
5.977,-25.887,0
5.978,-28.816,0
5.979,-31.38,0
5.98,-33.76,0
5.981,-31.563,0
5.982,-33.577,0
5.983,-28.084,0
5.984,-26.436,0
5.985,-18.929,0
5.986,-14.9,0
5.987,-13.802,0
5.988,-10.506,0
5.989,-9.59,0
5.99,-8.675,0
5.991,-6.294,0
5.992,-5.562,0
5.993,-3.731,0
5.994,-1.9,0
5.995,-3.548,0
5.996,-0.252,0
5.997,2.861,0
5.998,2.495,0
5.999,-0.069,0
6,3.959,0
6.001,5.241,0
6.002,5.607,0
6.003,4.509,0
6.004,7.988,0
6.005,7.622,0
6.006,7.988,0
6.007,6.157,0
6.008,3.593,0
6.009,3.776,0
6.01,3.959,0
6.011,3.776,0
6.012,5.241,0
6.013,5.424,0
6.014,5.241,0
6.015,2.861,0
6.016,2.128,0
6.017,0.847,0
6.018,2.312,0
6.019,1.579,0
6.02,5.058,0
6.021,12.565,0
6.022,29.594,0
6.023,66.032,0
6.024,71.159,0
6.025,47.355,0
6.026,8.354,0
6.027,-7.21,0
6.028,-21.492,0
6.029,-25.704,0
6.03,-29.549,0
6.031,-40.169,0
6.032,-37.056,0
6.033,-34.126,0
6.034,-31.563,0
6.035,-29.183,0
6.036,-26.985,0
6.037,-16.915,0
6.038,-15.083,0
6.039,-13.436,0
6.04,-9.041,0
6.041,-10.323,0
6.042,-9.224,0
6.043,-3.548,0
6.044,-0.618,0
6.045,-3.365,0
6.046,0.664,0
6.047,5.974,0
6.048,4.143,0
6.049,7.255,0
6.05,3.41,0
6.051,6.706,0
6.052,6.34,0
6.053,3.593,0
6.054,3.959,0
6.055,2.861,0
6.056,3.044,0
6.057,4.875,0
6.058,5.058,0
6.059,4.509,0
6.06,4.692,0
6.061,2.861,0
6.062,0.297,0
6.063,-1.534,0
6.064,0.48,0
6.065,1.762,0
6.066,2.495,0
6.067,5.974,0
6.068,7.255,0
6.069,6.706,0
6.07,3.593,0
6.071,9.819,0
6.072,23.735,0
6.073,45.891,0
6.074,54.68,0
6.075,57.243,0
6.076,59.624,0
6.077,61.821,0
6.078,51.75,0
6.079,53.581,0
6.08,28.679,0
6.081,-17.83,0
6.082,-49.507,0
6.083,-66.719,0
6.084,-61.592,0
6.085,-66.353,0
6.086,-62.142,0
6.087,-58.296,0
6.088,-54.817,0
6.089,-45.296,0
6.09,-36.507,0
6.091,-28.633,0
6.092,-26.253,0
6.093,-19.661,0
6.094,-17.647,0
6.095,-12.154,0
6.096,-7.21,0
6.097,-2.815,0
6.098,-1.534,0
6.099,-2.632,0
6.1,5.241,0
6.101,8.171,0
6.102,12.749,0
6.103,10.368,0
6.104,11.101,0
6.105,14.396,0
6.106,8.72,0
6.107,12.565,0
6.108,7.988,0
6.109,3.593,0
6.11,4.143,0
6.111,7.438,0
6.112,4.326,0
6.113,8.171,0
6.114,9.453,0
6.115,7.255,0
6.116,9.27,0
6.117,8.903,0
6.118,7.805,0
6.119,5.791,0
6.12,8.171,0
6.121,8.354,0
6.122,12.382,0
6.123,20.805,0
6.124,39.299,0
6.125,74.272,0
6.126,79.033,0
6.127,57.426,0
6.128,14.03,0
6.129,-14.717,0
6.13,-30.281,0
6.131,-35.042,0
6.132,-39.253,0
6.133,-35.408,0
6.134,-38.887,0
6.135,-35.774,0
6.136,-26.985,0
6.137,-24.422,0
6.138,-22.042,0
6.139,-19.844,0
6.14,-21.858,0
6.141,-16.365,0
6.142,-14.717,0
6.143,-10.323,0
6.144,-6.294,0
6.145,-5.196,0
6.146,-1.9,0
6.147,1.03,0
6.148,5.607,0
6.149,11.284,0
6.15,22.819,0
6.151,37.834,0
6.152,23.735,0
6.153,7.255,0
6.154,5.058,0
6.155,-0.984,0
6.156,-2.815,0
6.157,-4.463,0
6.158,-5.928,0
6.159,-7.21,0
6.16,-3.731,0
6.161,-4.83,0
6.162,-3.914,0
6.163,-4.83,0
6.164,-2.449,0
6.165,-1.717,0
6.166,-2.266,0
6.167,-0.435,0
6.168,1.213,0
6.169,2.495,0
6.17,4.692,0
6.171,8.171,0
6.172,7.072,0
6.173,12.749,0
6.174,16.777,0
6.175,28.313,0
6.176,53.215,0
6.177,63.835,0
6.178,21.538,0
6.179,4.326,0
6.18,-11.238,0
6.181,-25.521,0
6.182,-29.732,0
6.183,-25.887,0
6.184,-29.366,0
6.185,-26.253,0
6.186,-29.183,0
6.187,-21.309,0
6.188,-18.929,0
6.189,-16.731,0
6.19,-14.717,0
6.191,-12.886,0
6.192,-11.238,0
6.193,-9.773,0
6.194,-8.492,0
6.195,-5.013,0
6.196,-1.717,0
6.197,-2.632,0
6.198,-5.379,0
6.199,-2.999,0
6.2,5.424,0
6.201,8.72,0
6.202,9.636,0
6.203,3.227,0
6.204,7.255,0
6.205,6.523,0
6.206,4.692,0
6.207,6.523,0
6.208,5.974,0
6.209,5.607,0
6.21,3.41,0
6.211,3.776,0
6.212,4.143,0
6.213,3.044,0
6.214,7.622,0
6.215,4.326,0
6.216,4.875,0
6.217,3.227,0
6.218,4.509,0
6.219,5.791,0
6.22,3.776,0
6.221,4.875,0
6.222,3.044,0
6.223,3.41,0
6.224,0.664,0
6.225,6.34,0
6.226,18.791,0
6.227,46.257,0
6.228,57.976,0
6.229,75.737,0
6.23,66.215,0
6.231,33.623,0
6.232,-13.985,0
6.233,-32.845,0
6.234,-38.521,0
6.235,-54.085,0
6.236,-49.324,0
6.237,-53.536,0
6.238,-49.69,0
6.239,-46.211,0
6.24,-36.69,0
6.241,-27.901,0
6.242,-25.337,0
6.243,-22.957,0
6.244,-20.76,0
6.245,-18.746,0
6.246,-13.252,0
6.247,-8.309,0
6.248,-6.844,0
6.249,-2.815,0
6.25,-1.717,0
6.251,3.959,0
6.252,3.044,0
6.253,5.791,0
6.254,8.171,0
6.255,7.438,0
6.256,5.607,0
6.257,8.72,0
6.258,4.875,0
6.259,7.255,0
6.26,12.382,0
6.261,10.551,0
6.262,8.72,0
6.263,9.27,0
6.264,8.903,0
6.265,9.27,0
6.266,8.171,0
6.267,2.495,0
6.268,1.762,0
6.269,2.495,0
6.27,4.326,0
6.271,4.875,0
6.272,6.523,0
6.273,6.706,0
6.274,3.41,0
6.275,10.368,0
6.276,25.566,0
6.277,54.313,0
6.278,81.779,0
6.279,64.018,0
6.28,28.313,0
6.281,4.509,0
6.282,-17.098,0
6.283,-28.816,0
6.284,-25.337,0
6.285,-28.45,0
6.286,-25.521,0
6.287,-28.084,0
6.288,-30.464,0
6.289,-28.267,0
6.29,-26.253,0
6.291,-24.422,0
6.292,-19.478,0
6.293,-11.971,0
6.294,-7.942,0
6.295,-6.844,0
6.296,-3.548,0
6.297,-4.463,0
6.298,-3.548,0
6.299,0.48,0
6.3,-0.252,0
6.301,-2.083,0
6.302,4.875,0
6.303,2.128,0
6.304,-0.252,0
6.305,1.945,0
6.306,5.241,0
6.307,3.41,0
6.308,5.058,0
6.309,6.34,0
6.31,7.622,0
6.311,7.255,0
6.312,8.354,0
6.313,5.791,0
6.314,7.805,0
6.315,5.241,0
6.316,4.143,0
6.317,4.875,0
6.318,3.593,0
6.319,3.776,0
6.32,4.326,0
6.321,2.312,0
6.322,1.03,0
6.323,2.495,0
6.324,0.114,0
6.325,-0.435,0
6.326,2.495,0
6.327,8.72,0
6.328,22.636,0
6.329,52.849,0
6.33,57.06,0
6.331,29.594,0
6.332,-2.632,0
6.333,-15.45,0
6.334,-27.168,0
6.335,-30.647,0
6.336,-33.76,0
6.337,-30.831,0
6.338,-28.267,0
6.339,-25.887,0
6.34,-23.689,0
6.341,-25.704,0
6.342,-27.535,0
6.343,-22.591,0
6.344,-21.126,0
6.345,-17.098,0
6.346,-8.675,0
6.347,-7.576,0
6.348,-6.661,0
6.349,-5.745,0
6.35,-0.069,0
6.351,0.664,0
6.352,2.495,0
6.353,-1.9,0
6.354,1.945,0
6.355,3.227,0
6.356,8.354,0
6.357,11.65,0
6.358,9.819,0
6.359,16.044,0
6.36,8.537,0
6.361,7.622,0
6.362,4.875,0
6.363,8.903,0
6.364,12.749,0
6.365,6.523,0
6.366,2.495,0
6.367,9.453,0
6.368,10.368,0
6.369,4.692,0
6.37,8.537,0
6.371,10.368,0
6.372,4.692,0
6.373,3.959,0
6.374,2.128,0
6.375,3.044,0
6.376,1.213,0
6.377,7.438,0
6.378,19.89,0
6.379,47.355,0
6.38,74.821,0
6.381,49.919,0
6.382,14.213,0
6.383,-9.59,0
6.384,-22.408,0
6.385,-26.253,0
6.386,-29.732,0
6.387,-32.845,0
6.388,-29.915,0
6.389,-27.352,0
6.39,-24.971,0
6.391,-22.774,0
6.392,-24.788,0
6.393,-22.957,0
6.394,-18.013,0
6.395,-4.463,0
6.396,15.678,0
6.397,18.242,0
6.398,6.157,0
6.399,-0.435,0
6.4,-10.506,0
6.401,-12.337,0
6.402,-13.985,0
6.403,-12.52,0
6.404,-8.492,0
6.405,-5.013,0
6.406,-3.914,0
6.407,-2.999,0
6.408,-2.083,0
6.409,-1.351,0
6.41,3.959,0
6.411,2.128,0
6.412,2.678,0
6.413,-1.167,0
6.414,4.326,0
6.415,6.523,0
6.416,1.945,0
6.417,6.34,0
6.418,1.213,0
6.419,5.791,0
6.42,7.622,0
6.421,3.776,0
6.422,3.41,0
6.423,3.044,0
6.424,1.03,0
6.425,5.241,0
6.426,3.776,0
6.427,5.424,0
6.428,12.932,0
6.429,29.96,0
6.43,56.694,0
6.431,74.455,0
6.432,45.158,0
6.433,17.692,0
6.434,-7.21,0
6.435,-23.323,0
6.436,-26.253,0
6.437,-23.689,0
6.438,-26.07,0
6.439,-28.267,0
6.44,-26.253,0
6.441,-24.422,0
6.442,-22.774,0
6.443,-18.379,0
6.444,-14.351,0
6.445,-13.252,0
6.446,-9.957,0
6.447,-9.041,0
6.448,-6.294,0
6.449,-5.562,0
6.45,-6.294,0
6.451,-2.999,0
6.452,1.396,0
6.453,3.044,0
6.454,4.326,0
6.455,8.537,0
6.456,14.763,0
6.457,15.495,0
6.458,16.228,0
6.459,20.805,0
6.46,23.918,0
6.461,25.566,0
6.462,31.059,0
6.463,27.214,0
6.464,23.918,0
6.465,23.369,0
6.466,17.143,0
6.467,14.763,0
6.468,15.495,0
6.469,6.523,0
6.47,-4.646,0
6.471,-18.196,0
6.472,-23.689,0
6.473,-28.633,0
6.474,-36.141,0
6.475,-32.112,0
6.476,-20.943,0
6.477,-13.802,0
6.478,-15.267,0
6.479,-22.042,0
6.48,-28.084,0
6.481,-22.408,0
6.482,-37.605,0
6.483,-44.197,0
6.484,-66.353,0
6.485,-98.946,0
6.486,-137.95,0
6.487,-164.13,0
6.488,-178.41,0
6.489,-174.2,0
6.49,-162.48,0
6.491,-144.72,0
6.492,-96.016,0
6.493,-4.83,0
6.494,82.329,0
6.495,116.02,0
6.496,126.27,0
6.497,116.94,0
6.498,108.51,0
6.499,85.441,0
6.5,78.483,0
6.501,84.709,0
6.502,79.033,0
6.503,94.597,0
6.504,118.4,0
6.505,140.01,0
6.506,143.85,0
6.507,147.33,0
6.508,137.81,0
6.509,122.98,0
6.51,136.34,0
6.511,129.2,0
6.512,109.25,0
6.513,79.765,0
6.514,60.173,0
6.515,49.553,0
6.516,40.031,0
6.517,42.961,0
6.518,35.087,0
6.519,23.002,0
6.52,12.016,0
6.521,10.002,0
6.522,-2.815,0
6.523,-7.759,0
6.524,-9.224,0
6.525,-18.746,0
6.526,-29.915,0
6.527,-37.422,0
6.528,-45.296,0
6.529,-41.268,0
6.53,-25.154,0
6.531,-22.957,0
6.532,-4.83,0
6.533,7.255,0
6.534,22.636,0
6.535,-3.548,0
6.536,-50.057,0
6.537,-81.734,0
6.538,-98.946,0
6.539,-104.07,0
6.54,-108.83,0
6.541,-104.62,0
6.542,-100.78,0
6.543,-90.157,0
6.544,-87.044,0
6.545,-78.255,0
6.546,-70.381,0
6.547,-58.296,0
6.548,-51.705,0
6.549,-45.662,0
6.55,-43.831,0
6.551,-32.295,0
6.552,-24.788,0
6.553,-20.76,0
6.554,-12.337,0
6.555,-9.041,0
6.556,-6.111,0
6.557,-5.196,0
6.558,-2.815,0
6.559,-0.618,0
6.56,6.889,0
6.561,9.819,0
6.562,12.565,0
6.563,8.537,0
6.564,10.734,0
6.565,12.565,0
6.566,12.016,0
6.567,11.467,0
6.568,11.101,0
6.569,14.213,0
6.57,15.312,0
6.571,14.213,0
6.572,13.115,0
6.573,15.129,0
6.574,13.847,0
6.575,10.368,0
6.576,10.734,0
6.577,12.749,0
6.578,13.847,0
6.579,9.636,0
6.58,12.932,0
6.581,15.678,0
6.582,21.354,0
6.583,33.806,0
6.584,61.271,0
6.585,80.864,0
6.586,55.961,0
6.587,13.664,0
6.588,-3.548,0
6.589,-19.112,0
6.59,-23.873,0
6.591,-28.084,0
6.592,-31.929,0
6.593,-28.45,0
6.594,-25.337,0
6.595,-16.548,0
6.596,-19.112,0
6.597,-11.971,0
6.598,-14.168,0
6.599,-12.154,0
6.6,-10.323,0
6.601,-5.379,0
6.602,-0.984,0
6.603,-2.266,0
6.604,-3.365,0
6.605,-0.069,0
6.606,9.086,0
6.607,5.607,0
6.608,4.509,0
6.609,5.424,0
6.61,8.171,0
6.611,8.903,0
6.612,9.636,0
6.613,6.34,0
6.614,6.889,0
6.615,4.143,0
6.616,8.72,0
6.617,6.889,0
6.618,7.438,0
6.619,7.805,0
6.62,7.438,0
6.621,4.692,0
6.622,8.903,0
6.623,6.157,0
6.624,8.537,0
6.625,5.424,0
6.626,5.058,0
6.627,3.227,0
6.628,5.058,0
6.629,0.48,0
6.63,5.974,0
6.631,4.143,0
6.632,13.664,0
6.633,17.692,0
6.634,36.186,0
6.635,76.469,0
6.636,59.257,0
6.637,22.636,0
6.638,-1.167,0
6.639,-13.985,0
6.64,-25.704,0
6.641,-15.083,0
6.642,1.03,0
6.643,-13.802,0
6.644,-27.168,0
6.645,-29.549,0
6.646,-31.746,0
6.647,-33.76,0
6.648,-31.929,0
6.649,-26.985,0
6.65,-22.591,0
6.651,-21.309,0
6.652,-17.83,0
6.653,-12.154,0
6.654,-9.224,0
6.655,-10.14,0
6.656,-9.407,0
6.657,-4.097,0
6.658,-4.646,0
6.659,-1.534,0
6.66,2.312,0
6.661,1.945,0
6.662,2.312,0
6.663,3.41,0
6.664,5.241,0
6.665,-0.252,0
6.666,-0.984,0
6.667,0.847,0
6.668,5.241,0
6.669,6.889,0
6.67,7.255,0
6.671,5.974,0
6.672,8.72,0
6.673,9.086,0
6.674,5.058,0
6.675,4.692,0
6.676,2.495,0
6.677,2.861,0
6.678,3.227,0
6.679,2.128,0
6.68,6.706,0
6.681,6.706,0
6.682,2.128,0
6.683,11.65,0
6.684,26.665,0
6.685,52.849,0
6.686,77.751,0
6.687,61.638,0
6.688,23.002,0
6.689,7.438,0
6.69,-16.365,0
6.691,-29.183,0
6.692,-33.028,0
6.693,-29.549,0
6.694,-32.662,0
6.695,-35.591,0
6.696,-27.718,0
6.697,-25.337,0
6.698,-18.746,0
6.699,-20.76,0
6.7,-18.929,0
6.701,-13.985,0
6.702,-12.52,0
6.703,-11.238,0
6.704,-7.759,0
6.705,-2.083,0
6.706,-1.167,0
6.707,-2.083,0
6.708,-1.351,0
6.709,2.495,0
6.71,1.945,0
6.711,3.776,0
6.712,4.326,0
6.713,3.044,0
6.714,3.41,0
6.715,2.312,0
6.716,4.875,0
6.717,5.974,0
6.718,7.438,0
6.719,6.706,0
6.72,5.424,0
6.721,2.312,0
6.722,5.058,0
6.723,4.692,0
6.724,6.523,0
6.725,1.945,0
6.726,2.495,0
6.727,1.945,0
6.728,1.396,0
6.729,4.692,0
6.73,3.41,0
6.731,5.424,0
6.732,8.171,0
6.733,2.495,0
6.734,14.946,0
6.735,35.087,0
6.736,53.764,0
6.737,70.61,0
6.738,77.202,0
6.739,46.989,0
6.74,7.988,0
6.741,-7.576,0
6.742,-21.858,0
6.743,-34.676,0
6.744,-38.521,0
6.745,-42,0
6.746,-38.887,0
6.747,-30.098,0
6.748,-27.535,0
6.749,-29.915,0
6.75,-18.929,0
6.751,-16.915,0
6.752,-15.083,0
6.753,-10.14,0
6.754,-8.675,0
6.755,-1.9,0
6.756,-0.801,0
6.757,-1.9,0
6.758,-2.815,0
6.759,1.762,0
6.76,2.495,0
6.761,-2.815,0
6.762,-2.266,0
6.763,2.128,0
6.764,0.48,0
6.765,1.762,0
6.766,4.875,0
6.767,2.861,0
6.768,5.424,0
6.769,6.523,0
6.77,7.255,0
6.771,6.523,0
6.772,4.692,0
6.773,6.157,0
6.774,3.776,0
6.775,2.312,0
6.776,-0.801,0
6.777,-1.9,0
6.778,1.579,0
6.779,-2.632,0
6.78,-0.984,0
6.781,-1.351,0
6.782,0.847,0
6.783,5.241,0
6.784,4.143,0
6.785,9.819,0
6.786,22.27,0
6.787,49.736,0
6.788,69.328,0
6.789,58.708,0
6.79,29.411,0
6.791,1.945,0
6.792,-15.816,0
6.793,-25.337,0
6.794,-28.267,0
6.795,-36.141,0
6.796,-29,0
6.797,-31.197,0
6.798,-25.154,0
6.799,-30.647,0
6.8,-25.704,0
6.801,-21.309,0
6.802,-20.027,0
6.803,-11.604,0
6.804,-12.703,0
6.805,-11.788,0
6.806,-7.21,0
6.807,-1.534,0
6.808,0.664,0
6.809,0.114,0
6.81,0.664,0
6.811,-2.083,0
6.812,5.424,0
6.813,-0.252,0
6.814,4.692,0
6.815,7.438,0
6.816,6.706,0
6.817,5.974,0
6.818,4.143,0
6.819,5.974,0
6.82,3.227,0
6.821,5.607,0
6.822,5.241,0
6.823,4.143,0
6.824,3.044,0
6.825,3.41,0
6.826,0.114,0
6.827,0.48,0
6.828,6.706,0
6.829,5.791,0
6.83,5.058,0
6.831,4.326,0
6.832,3.776,0
6.833,1.945,0
6.834,2.312,0
6.835,6.157,0
6.836,8.537,0
6.837,15.495,0
6.838,30.693,0
6.839,59.44,0
6.84,79.033,0
6.841,54.13,0
6.842,31.608,0
6.843,-0.984,0
6.844,-22.591,0
6.845,-34.31,0
6.846,-37.789,0
6.847,-40.901,0
6.848,-37.972,0
6.849,-35.408,0
6.85,-37.789,0
6.851,-35.591,0
6.852,-29.549,0
6.853,-24.056,0
6.854,-22.408,0
6.855,-18.013,0
6.856,-13.985,0
6.857,-10.506,0
6.858,-7.21,0
6.859,-6.294,0
6.86,-3.548,0
6.861,-4.28,0
6.862,-3.548,0
6.863,-0.252,0
6.864,0.297,0
6.865,7.622,0
6.866,6.706,0
6.867,7.622,0
6.868,8.354,0
6.869,7.622,0
6.87,8.171,0
6.871,8.72,0
6.872,10.368,0
6.873,10.734,0
6.874,6.523,0
6.875,7.072,0
6.876,2.495,0
6.877,4.326,0
6.878,4.875,0
6.879,6.157,0
6.88,3.959,0
6.881,3.593,0
6.882,1.762,0
6.883,2.128,0
6.884,3.593,0
6.885,2.312,0
6.886,6.523,0
6.887,16.044,0
6.888,36.552,0
6.889,21.721,0
6.89,19.157,0
6.891,31.242,0
6.892,46.623,0
6.893,64.75,0
6.894,47.905,0
6.895,14.763,0
6.896,-9.041,0
6.897,-21.858,0
6.898,-25.704,0
6.899,-36.324,0
6.9,-39.437,0
6.901,-36.507,0
6.902,-33.943,0
6.903,-26.802,0
6.904,-29,0
6.905,-26.985,0
6.906,-21.492,0
6.907,-19.844,0
6.908,-15.45,0
6.909,-11.421,0
6.91,-10.323,0
6.911,-11.421,0
6.912,-8.492,0
6.913,-2.083,0
6.914,1.945,0
6.915,-0.252,0
6.916,0.297,0
6.917,0.847,0
6.918,5.974,0
6.919,9.27,0
6.92,9.819,0
6.921,10.368,0
6.922,7.988,0
6.923,7.622,0
6.924,7.988,0
6.925,5.424,0
6.926,5.791,0
6.927,6.523,0
6.928,2.312,0
6.929,4.143,0
6.93,4.692,0
6.931,5.974,0
6.932,7.255,0
6.933,1.762,0
6.934,1.03,0
6.935,-0.801,0
6.936,5.974,0
6.937,4.143,0
6.938,12.565,0
6.939,28.679,0
6.94,61.821,0
6.941,66.582,0
6.942,70.793,0
6.943,43.327,0
6.944,11.101,0
6.945,-10.506,0
6.946,-22.225,0
6.947,-32.845,0
6.948,-29.732,0
6.949,-32.662,0
6.95,-35.225,0
6.951,-32.845,0
6.952,-30.647,0
6.953,-24.605,0
6.954,-26.436,0
6.955,-21.492,0
6.956,-17.098,0
6.957,-10.323,0
6.958,-6.844,0
6.959,-7.942,0
6.96,-7.027,0
6.961,-2.449,0
6.962,-3.182,0
6.963,-2.449,0
6.964,-0.618,0
6.965,2.495,0
6.966,1.945,0
6.967,3.227,0
6.968,6.34,0
6.969,5.974,0
6.97,1.762,0
6.971,6.889,0
6.972,5.058,0
6.973,5.607,0
6.974,3.959,0
6.975,6.34,0
6.976,7.622,0
6.977,7.988,0
6.978,6.889,0
6.979,5.058,0
6.98,4.326,0
6.981,6.157,0
6.982,2.128,0
6.983,2.678,0
6.984,3.959,0
6.985,0.847,0
6.986,1.945,0
6.987,2.312,0
6.988,7.988,0
6.989,20.439,0
6.99,29.594,0
6.991,47.905,0
6.992,59.99,0
6.993,66.582,0
6.994,48.454,0
6.995,26.481,0
6.996,-6.111,0
6.997,-27.718,0
6.998,-31.563,0
6.999,-42.183,0
7,-39.07,0
7.001,-42,0
7.002,-34.126,0
7.003,-36.507,0
7.004,-34.31,0
7.005,-28.267,0
7.006,-19.112,0
7.007,-17.464,0
7.008,-18.929,0
7.009,-14.9,0
7.01,-11.421,0
7.011,-5.745,0
7.012,-6.661,0
7.013,-3.914,0
7.014,-1.534,0
7.015,2.312,0
7.016,2.861,0
7.017,4.692,0
7.018,4.143,0
7.019,5.424,0
7.02,7.622,0
7.021,7.255,0
7.022,8.354,0
7.023,4.326,0
7.024,7.622,0
7.025,6.34,0
7.026,6.706,0
7.027,7.072,0
7.028,8.171,0
7.029,6.706,0
7.03,2.495,0
7.031,5.607,0
7.032,7.255,0
7.033,2.678,0
7.034,3.227,0
7.035,4.875,0
7.036,1.579,0
7.037,1.945,0
7.038,3.044,0
7.039,0.297,0
7.04,-0.069,0
7.041,5.424,0
7.042,16.96,0
7.043,41.862,0
7.044,59.624,0
7.045,23.918,0
7.046,0.114,0
7.047,-12.703,0
7.048,-16.548,0
7.049,-27.168,0
7.05,-30.281,0
7.051,-21.492,0
7.052,-29.366,0
7.053,-26.985,0
7.054,-24.788,0
7.055,-18.746,0
7.056,-13.252,0
7.057,-18.196,0
7.058,-13.802,0
7.059,-9.773,0
7.06,-6.294,0
7.061,-2.999,0
7.062,-7.942,0
7.063,-3.365,0
7.064,-0.984,0
7.065,-1.717,0
7.066,-3.548,0
7.067,-0.435,0
7.068,3.41,0
7.069,4.692,0
7.07,4.326,0
7.071,7.072,0
7.072,5.974,0
7.073,6.34,0
7.074,4.326,0
7.075,6.157,0
7.076,3.776,0
7.077,6.523,0
7.078,6.889,0
7.079,7.255,0
7.08,5.241,0
7.081,3.41,0
7.082,4.692,0
7.083,1.213,0
7.084,1.579,0
7.085,1.213,0
7.086,-1.534,0
7.087,1.945,0
7.088,2.312,0
7.089,2.312,0
7.09,4.326,0
7.091,10.002,0
7.092,22.453,0
7.093,49.919,0
7.094,77.385,0
7.095,80.864,0
7.096,58.342,0
7.097,13.847,0
7.098,-5.013,0
7.099,-22.225,0
7.1,-27.352,0
7.101,-32.112,0
7.102,-36.324,0
7.103,-32.479,0
7.104,-29,0
7.105,-32.112,0
7.106,-23.323,0
7.107,-20.76,0
7.108,-18.379,0
7.109,-16.182,0
7.11,-18.196,0
7.111,-12.703,0
7.112,-7.759,0
7.113,-9.224,0
7.114,-7.942,0
7.115,-4.463,0
7.116,-3.365,0
7.117,-0.435,0
7.118,-3.182,0
7.119,0.847,0
7.12,0.114,0
7.121,1.945,0
7.122,5.058,0
7.123,5.607,0
7.124,5.241,0
7.125,3.959,0
7.126,5.974,0
7.127,7.805,0
7.128,3.044,0
7.129,4.875,0
7.13,5.424,0
7.131,2.128,0
7.132,9.086,0
7.133,24.284,0
7.134,39.665,0
7.135,21.538,0
7.136,9.453,0
7.137,7.255,0
7.138,-2.815,0
7.139,-8.309,0
7.14,-7.21,0
7.141,-5.562,0
7.142,7.988,0
7.143,9.819,0
7.144,34.721,0
7.145,66.948,0
7.146,54.13,0
7.147,18.608,0
7.148,-14.717,0
7.149,-27.535,0
7.15,-31.38,0
7.151,-42,0
7.152,-38.887,0
7.153,-35.958,0
7.154,-28.084,0
7.155,-25.704,0
7.156,-23.506,0
7.157,-17.464,0
7.158,-15.633,0
7.159,-13.985,0
7.16,-15.45,0
7.161,-11.421,0
7.162,-5.379,0
7.163,-4.28,0
7.164,0.664,0
7.165,1.579,0
7.166,5.607,0
7.167,4.875,0
7.168,3.044,0
7.169,6.157,0
7.17,10.002,0
7.171,16.594,0
7.172,19.34,0
7.173,11.833,0
7.174,16.777,0
7.175,12.199,0
7.176,9.819,0
7.177,10.551,0
7.178,7.255,0
7.179,4.143,0
7.18,0.297,0
7.181,2.678,0
7.182,3.959,0
7.183,3.593,0
7.184,3.227,0
7.185,-1.534,0
7.186,-0.984,0
7.187,4.143,0
7.188,3.593,0
7.189,1.762,0
7.19,1.213,0
7.191,2.312,0
7.192,2.678,0
7.193,9.636,0
7.194,24.833,0
7.195,49.187,0
7.196,71.708,0
7.197,74.638,0
7.198,39.665,0
7.199,6.34,0
7.2,-15.267,0
7.201,-26.985,0
7.202,-37.605,0
7.203,-34.493,0
7.204,-37.422,0
7.205,-34.859,0
7.206,-32.479,0
7.207,-25.887,0
7.208,-27.901,0
7.209,-29.732,0
7.21,-24.788,0
7.211,-20.394,0
7.212,-16.365,0
7.213,-12.886,0
7.214,-7.21,0
7.215,-8.125,0
7.216,-5.379,0
7.217,-1.351,0
7.218,-0.618,0
7.219,3.959,0
7.22,7.072,0
7.221,4.326,0
7.222,7.622,0
7.223,10.734,0
7.224,8.72,0
7.225,3.776,0
7.226,0.48,0
7.227,3.593,0
7.228,5.241,0
7.229,1.945,0
7.23,7.072,0
7.231,6.523,0
7.232,7.072,0
7.233,5.424,0
7.234,4.143,0
7.235,3.776,0
7.236,2.678,0
7.237,2.312,0
7.238,3.41,0
7.239,5.424,0
7.24,6.157,0
7.241,2.128,0
7.242,2.312,0
7.243,5.058,0
7.244,12.565,0
7.245,25.017,0
7.246,49.919,0
7.247,53.398,0
7.248,62.919,0
7.249,48.088,0
7.25,55.961,0
7.251,63.103,0
7.252,34.355,0
7.253,-9.041,0
7.254,-37.789,0
7.255,-53.353,0
7.256,-58.113,0
7.257,-62.325,0
7.258,-58.479,0
7.259,-55,0
7.26,-51.888,0
7.261,-43.099,0
7.262,-29.732,0
7.263,-22.591,0
7.264,-7.21,0
7.265,-1.167,0
7.266,7.988,0
7.267,9.636,0
7.268,17.143,0
7.269,18.425,0
7.27,14.946,0
7.271,13.847,0
7.272,12.932,0
7.273,13.847,0
7.274,16.228,0
7.275,6.157,0
7.276,-6.111,0
7.277,-11.055,0
7.278,-18.563,0
7.279,-30.831,0
7.28,-35.774,0
7.281,-28.267,0
7.282,-18.746,0
7.283,-7.576,0
7.284,-11.971,0
7.285,-29.732,0
7.286,-51.705,0
7.287,-60.494,0
7.288,-84.664,0
7.289,-94.185,0
7.29,-102.97,0
7.291,-110.85,0
7.292,-122.93,0
7.293,-131.72,0
7.294,-129.52,0
7.295,-107.37,0
7.296,-86.678,0
7.297,-46.395,0
7.298,5.607,0
7.299,96.794,0
7.3,159.05,0
7.301,147.88,0
7.302,137.63,0
7.303,109.61,0
7.304,84.343,0
7.305,61.271,0
7.306,54.313,0
7.307,48.088,0
7.308,42.412,0
7.309,57.976,0
7.31,72.258,0
7.311,102.47,0
7.312,114.19,0
7.313,124.81,0
7.314,121.7,0
7.315,112.91,0
7.316,115.47,0
7.317,113.09,0
7.318,97.709,0
7.319,79.582,0
7.32,57.609,0
7.321,48.82,0
7.322,46.257,0
7.323,43.876,0
7.324,41.679,0
7.325,31.608,0
7.326,18.791,0
7.327,7.255,0
7.328,-9.224,0
7.329,-15.816,0
7.33,-17.83,0
7.331,-15.999,0
7.332,-31.014,0
7.333,-41.084,0
7.334,-42.916,0
7.335,-37.972,0
7.336,-36.507,0
7.337,-43.282,0
7.338,-46.761,0
7.339,-43.465,0
7.34,-50.423,0
7.341,-58.846,0
7.342,-66.719,0
7.343,-71.663,0
7.344,-72.396,0
7.345,-69.649,0
7.346,-57.198,0
7.347,-40.718,0
7.348,-7.576,0
7.349,6.706,0
7.35,28.313,0
7.351,8.72,0
7.352,-30.647,0
7.353,-46.211,0
7.354,-60.494,0
7.355,-64.705,0
7.356,-60.86,0
7.357,-57.381,0
7.358,-54.268,0
7.359,-51.338,0
7.36,-43.465,0
7.361,-41.084,0
7.362,-34.493,0
7.363,-32.479,0
7.364,-26.985,0
7.365,-18.746,0
7.366,-14.351,0
7.367,-10.323,0
7.368,-4.28,0
7.369,1.396,0
7.37,2.312,0
7.371,6.889,0
7.372,10.917,0
7.373,10.185,0
7.374,13.481,0
7.375,11.65,0
7.376,10.002,0
7.377,10.368,0
7.378,17.326,0
7.379,32.524,0
7.38,43.51,0
7.381,21.354,0
7.382,18.425,0
7.383,10.551,0
7.384,8.171,0
7.385,1.579,0
7.386,-0.435,0
7.387,5.058,0
7.388,0.114,0
7.389,4.509,0
7.39,3.227,0
7.391,9.27,0
7.392,3.593,0
7.393,6.523,0
7.394,7.438,0
7.395,9.636,0
7.396,10.368,0
7.397,20.439,0
7.398,21.721,0
7.399,40.214,0
7.4,58.891,0
7.401,61.271,0
7.402,67.863,0
7.403,61.821,0
7.404,49.003,0
7.405,24.101,0
7.406,-15.267,0
7.407,-30.831,0
7.408,-45.113,0
7.409,-49.324,0
7.41,-53.169,0
7.411,-49.69,0
7.412,-46.578,0
7.413,-43.648,0
7.414,-30.281,0
7.415,-27.901,0
7.416,-25.704,0
7.417,-23.689,0
7.418,-14.534,0
7.419,-9.59,0
7.42,-2.083,0
7.421,-0.801,0
7.422,5.241,0
7.423,4.143,0
7.424,9.086,0
7.425,4.509,0
7.426,5.241,0
7.427,7.438,0
7.428,9.27,0
7.429,9.819,0
7.43,8.171,0
7.431,8.537,0
7.432,10.734,0
7.433,9.636,0
7.434,8.537,0
7.435,8.903,0
7.436,7.438,0
7.437,8.171,0
7.438,8.354,0
7.439,10.551,0
7.44,7.988,0
7.441,10.551,0
7.442,5.974,0
7.443,5.424,0
7.444,4.875,0
7.445,10.002,0
7.446,8.171,0
7.447,4.875,0
7.448,0.48,0
7.449,8.903,0
7.45,27.397,0
7.451,56.877,0
7.452,60.722,0
7.453,71.342,0
7.454,68.229,0
7.455,71.159,0
7.456,36.186,0
7.457,-6.844,0
7.458,-35.591,0
7.459,-51.155,0
7.46,-55.916,0
7.461,-60.127,0
7.462,-56.282,0
7.463,-59.761,0
7.464,-50.24,0
7.465,-47.31,0
7.466,-39.437,0
7.467,-37.056,0
7.468,-30.464,0
7.469,-24.422,0
7.47,-15.267,0
7.471,-13.619,0
7.472,-6.111,0
7.473,-7.393,0
7.474,-3.914,0
7.475,-0.618,0
7.476,-3.548,0
7.477,4.875,0
7.478,3.776,0
7.479,6.706,0
7.48,9.453,0
7.481,11.833,0
7.482,9.636,0
7.483,6.34,0
7.484,5.791,0
7.485,7.438,0
7.486,6.157,0
7.487,9.27,0
7.488,12.016,0
7.489,9.453,0
7.49,6.889,0
7.491,10.917,0
7.492,5.791,0
7.493,7.622,0
7.494,4.509,0
7.495,5.058,0
7.496,2.678,0
7.497,7.438,0
7.498,6.157,0
7.499,12.382,0
7.5,26.298,0
7.501,52.482,0
7.502,77.385,0
7.503,80.498,0
7.504,41.862,0
7.505,5.241,0
7.506,-18.563,0
7.507,-22.774,0
7.508,-34.493,0
7.509,-37.972,0
7.51,-41.084,0
7.511,-38.155,0
7.512,-35.591,0
7.513,-33.211,0
7.514,-31.014,0
7.515,-29,0
7.516,-23.506,0
7.517,-21.858,0
7.518,-11.421,0
7.519,-7.393,0
7.52,-1.351,0
7.521,-0.252,0
7.522,-3.182,0
7.523,-4.097,0
7.524,-3.365,0
7.525,3.593,0
7.526,6.34,0
7.527,5.607,0
7.528,7.805,0
7.529,3.227,0
7.53,6.34,0
7.531,6.889,0
7.532,5.607,0
7.533,5.974,0
7.534,3.959,0
7.535,3.593,0
7.536,4.692,0
7.537,6.706,0
7.538,8.537,0
7.539,7.255,0
7.54,8.354,0
7.541,11.284,0
7.542,5.607,0
7.543,9.636,0
7.544,5.791,0
7.545,6.34,0
7.546,6.889,0
7.547,6.34,0
7.548,1.579,0
7.549,1.945,0
7.55,8.903,0
7.551,24.101,0
7.552,48.454,0
7.553,64.567,0
7.554,67.497,0
7.555,54.13,0
7.556,32.158,0
7.557,-0.435,0
7.558,-13.252,0
7.559,-32.845,0
7.56,-43.465,0
7.561,-46.578,0
7.562,-49.507,0
7.563,-46.944,0
7.564,-39.803,0
7.565,-37.605,0
7.566,-27.535,0
7.567,-29.366,0
7.568,-21.126,0
7.569,-16.731,0
7.57,-15.45,0
7.571,-11.971,0
7.572,-6.294,0
7.573,-5.379,0
7.574,-0.801,0
7.575,-1.534,0
7.576,0.664,0
7.577,1.213,0
7.578,1.762,0
7.579,3.41,0
7.58,4.692,0
7.581,5.974,0
7.582,3.959,0
7.583,5.791,0
7.584,5.424,0
7.585,3.41,0
7.586,6.523,0
7.587,7.622,0
7.588,6.523,0
7.589,9.819,0
7.59,8.72,0
7.591,9.086,0
7.592,3.593,0
7.593,7.438,0
7.594,2.861,0
7.595,2.312,0
7.596,-0.435,0
7.597,4.143,0
7.598,4.692,0
7.599,6.706,0
7.6,2.861,0
7.601,10.368,0
7.602,27.397,0
7.603,49.37,0
7.604,70.061,0
7.605,77.934,0
7.606,55.961,0
7.607,17.326,0
7.608,-19.295,0
7.609,-33.577,0
7.61,-37.789,0
7.611,-41.634,0
7.612,-38.155,0
7.613,-35.042,0
7.614,-37.972,0
7.615,-35.408,0
7.616,-33.028,0
7.617,-26.436,0
7.618,-24.422,0
7.619,-18.929,0
7.62,-10.689,0
7.621,-9.224,0
7.622,-2.449,0
7.623,-1.351,0
7.624,13.481,0
7.625,27.58,0
7.626,22.087,0
7.627,10.551,0
7.628,3.044,0
7.629,-3.731,0
7.63,-2.632,0
7.631,-3.731,0
7.632,1.213,0
7.633,-5.196,0
7.634,-9.224,0
7.635,-9.957,0
7.636,-5.379,0
7.637,1.579,0
7.638,4.326,0
7.639,5.058,0
7.64,2.861,0
7.641,7.438,0
7.642,3.044,0
7.643,0.297,0
7.644,3.593,0
7.645,4.875,0
7.646,3.776,0
7.647,1.945,0
7.648,4.509,0
7.649,1.762,0
7.65,2.312,0
7.651,4.875,0
7.652,10.368,0
7.653,21.904,0
7.654,46.806,0
7.655,71.708,0
7.656,42.412,0
7.657,14.946,0
7.658,-2.815,0
7.659,-12.337,0
7.66,-27.168,0
7.661,-24.605,0
7.662,-26.985,0
7.663,-24.788,0
7.664,-26.802,0
7.665,-21.309,0
7.666,-19.661,0
7.667,-18.196,0
7.668,-16.915,0
7.669,-13.436,0
7.67,-10.14,0
7.671,-9.224,0
7.672,-4.646,0
7.673,-5.379,0
7.674,1.579,0
7.675,-1.167,0
7.676,-0.435,0
7.677,-1.167,0
7.678,2.128,0
7.679,0.297,0
7.68,-0.252,0
7.681,1.03,0
7.682,4.143,0
7.683,4.509,0
7.684,7.072,0
7.685,4.509,0
7.686,9.086,0
7.687,7.255,0
7.688,5.424,0
7.689,2.678,0
7.69,3.959,0
7.691,2.678,0
7.692,3.776,0
7.693,4.875,0
7.694,4.509,0
7.695,3.044,0
7.696,3.227,0
7.697,2.495,0
7.698,1.396,0
7.699,2.495,0
7.7,1.579,0
7.701,0.847,0
7.702,-0.069,0
7.703,1.945,0
7.704,7.438,0
7.705,18.974,0
7.706,43.876,0
7.707,76.103,0
7.708,54.497,0
7.709,11.101,0
7.71,-6.111,0
7.711,-21.675,0
7.712,-35.958,0
7.713,-40.169,0
7.714,-44.014,0
7.715,-40.535,0
7.716,-37.422,0
7.717,-40.352,0
7.718,-32.479,0
7.719,-25.337,0
7.72,-18.746,0
7.721,-16.731,0
7.722,-14.9,0
7.723,-9.957,0
7.724,-5.562,0
7.725,-6.844,0
7.726,-3.365,0
7.727,-2.266,0
7.728,-5.196,0
7.729,-4.28,0
7.73,4.875,0
7.731,1.396,0
7.732,7.072,0
7.733,7.988,0
7.734,8.903,0
7.735,9.636,0
7.736,7.438,0
7.737,5.607,0
7.738,3.776,0
7.739,6.523,0
7.74,9.819,0
7.741,12.932,0
7.742,9.086,0
7.743,6.706,0
7.744,9.819,0
7.745,4.326,0
7.746,3.593,0
7.747,-0.984,0
7.748,-5.379,0
7.749,-1.534,0
7.75,0.847,0
7.751,1.213,0
7.752,2.312,0
7.753,3.41,0
7.754,9.086,0
7.755,21.538,0
7.756,49.003,0
7.757,76.469,0
7.758,72.99,0
7.759,43.693,0
7.76,8.171,0
7.761,-15.633,0
7.762,-19.844,0
7.763,-31.563,0
7.764,-28.084,0
7.765,-37.605,0
7.766,-40.535,0
7.767,-37.972,0
7.768,-35.591,0
7.769,-29,0
7.77,-18.929,0
7.771,-17.098,0
7.772,-15.45,0
7.773,-7.942,0
7.774,-6.661,0
7.775,-5.562,0
7.776,-6.661,0
7.777,0.297,0
7.778,-2.449,0
7.779,-1.717,0
7.78,2.128,0
7.781,2.678,0
7.782,5.791,0
7.783,4.143,0
7.784,7.438,0
7.785,3.227,0
7.786,7.072,0
7.787,5.791,0
7.788,5.424,0
7.789,5.058,0
7.79,8.537,0
7.791,6.34,0
7.792,3.593,0
7.793,1.762,0
7.794,5.058,0
7.795,4.692,0
7.796,4.326,0
7.797,3.227,0
7.798,3.044,0
7.799,4.875,0
7.8,7.255,0
7.801,2.678,0
7.802,0.847,0
7.803,5.241,0
7.804,2.128,0
7.805,10.551,0
7.806,26.665,0
7.807,55.412,0
7.808,75.004,0
7.809,64.384,0
7.81,22.087,0
7.811,-6.661,0
7.812,-22.225,0
7.813,-26.985,0
7.814,-31.197,0
7.815,-35.042,0
7.816,-31.563,0
7.817,-34.676,0
7.818,-25.887,0
7.819,-23.323,0
7.82,-20.943,0
7.821,-18.746,0
7.822,-16.731,0
7.823,-11.238,0
7.824,-6.294,0
7.825,-4.83,0
7.826,-3.548,0
7.827,-4.646,0
7.828,-5.745,0
7.829,-0.801,0
7.83,1.945,0
7.831,-2.083,0
7.832,0.114,0
7.833,0.664,0
7.834,2.495,0
7.835,0.847,0
7.836,6.34,0
7.837,4.143,0
7.838,4.692,0
7.839,5.241,0
7.84,5.791,0
7.841,2.495,0
7.842,2.861,0
7.843,1.762,0
7.844,4.326,0
7.845,4.692,0
7.846,4.509,0
7.847,4.692,0
7.848,2.861,0
7.849,3.959,0
7.85,2.495,0
7.851,-0.069,0
7.852,1.762,0
7.853,5.058,0
7.854,3.044,0
7.855,3.41,0
7.856,3.044,0
7.857,8.72,0
7.858,21.171,0
7.859,48.637,0
7.86,68.229,0
7.861,43.327,0
7.862,7.622,0
7.863,-16.182,0
7.864,-29,0
7.865,-32.845,0
7.866,-29.366,0
7.867,-32.479,0
7.868,-29.549,0
7.869,-26.985,0
7.87,-5.013,0
7.871,3.776,0
7.872,-9.59,0
7.873,-16.731,0
7.874,-18.929,0
7.875,-16.915,0
7.876,-22.408,0
7.877,-17.464,0
7.878,-13.069,0
7.879,-17.098,0
7.88,-15.999,0
7.881,-10.323,0
7.882,-7.393,0
7.883,-2.815,0
7.884,-2.083,0
7.885,0.114,0
7.886,4.692,0
7.887,4.143,0
7.888,3.593,0
7.889,3.959,0
7.89,2.678,0
7.891,1.579,0
7.892,-0.252,0
7.893,-1.351,0
7.894,-1.167,0
7.895,0.664,0
7.896,1.396,0
7.897,4.509,0
7.898,6.523,0
7.899,8.354,0
7.9,7.255,0
7.901,6.523,0
7.902,7.255,0
7.903,6.523,0
7.904,9.086,0
7.905,8.903,0
7.906,6.34,0
7.907,10.917,0
7.908,21.171,0
7.909,43.693,0
7.91,59.807,0
7.911,74.638,0
7.912,72.075,0
7.913,35.637,0
7.914,-0.984,0
7.915,-24.788,0
7.916,-37.605,0
7.917,-33.76,0
7.918,-37.239,0
7.919,-34.126,0
7.92,-37.056,0
7.921,-34.493,0
7.922,-22.408,0
7.923,-24.605,0
7.924,-18.563,0
7.925,-16.731,0
7.926,-18.379,0
7.927,-10.872,0
7.928,-12.154,0
7.929,-11.055,0
7.93,-12.154,0
7.931,-7.21,0
7.932,-0.801,0
7.933,-3.182,0
7.934,-3.914,0
7.935,-2.083,0
7.936,-1.534,0
7.937,1.213,0
7.938,3.593,0
7.939,6.706,0
7.94,5.607,0
7.941,3.776,0
7.942,4.875,0
7.943,2.128,0
7.944,3.959,0
7.945,2.128,0
7.946,4.143,0
7.947,5.424,0
7.948,4.692,0
7.949,3.227,0
7.95,3.776,0
7.951,1.579,0
7.952,2.312,0
7.953,3.593,0
7.954,6.706,0
7.955,5.607,0
7.956,5.974,0
7.957,4.143,0
7.958,9.636,0
7.959,21.171,0
7.96,46.074,0
7.961,56.694,0
7.962,59.807,0
7.963,62.736,0
7.964,54.863,0
7.965,38.017,0
7.966,9.27,0
7.967,-26.253,0
7.968,-40.535,0
7.969,-53.353,0
7.97,-49.507,0
7.971,-46.028,0
7.972,-49.141,0
7.973,-46.211,0
7.974,-38.338,0
7.975,-35.958,0
7.976,-29.366,0
7.977,-27.352,0
7.978,-21.858,0
7.979,-16.915,0
7.98,-12.52,0
7.981,-11.238,0
7.982,-10.14,0
7.983,-2.266,0
7.984,0.664,0
7.985,-0.252,0
7.986,2.128,0
7.987,1.396,0
7.988,1.945,0
7.989,5.058,0
7.99,8.903,0
7.991,9.27,0
7.992,9.636,0
7.993,6.889,0
7.994,5.791,0
7.995,6.889,0
7.996,6.706,0
7.997,8.537,0
7.998,8.354,0
7.999,4.875,0
8,6.157,0
8.001,8.354,0
8.002,5.607,0
8.003,5.241,0
8.004,10.002,0
8.005,9.453,0
8.006,14.58,0
8.007,14.03,0
8.008,17.326,0
8.009,26.848,0
8.01,44.609,0
8.011,81.047,0
8.012,96.611,0
8.013,72.807,0
8.014,42.595,0
8.015,23.002,0
8.016,5.241,0
8.017,-10.872,0
8.018,-19.661,0
8.019,-17.098,0
8.02,-29.183,0
8.021,-35.774,0
8.022,-41.817,0
8.023,-43.648,0
8.024,-51.888,0
8.025,-56.282,0
8.026,-60.311,0
8.027,-51.888,0
8.028,-34.859,0
8.029,-32.479,0
8.03,-34.676,0
8.031,-44.747,0
8.032,-57.564,0
8.033,-79.17,0
8.034,-94.002,0
8.035,-101.88,0
8.036,-113.96,0
8.037,-129.34,0
8.038,-131.35,0
8.039,-136.85,0
8.04,-128.61,0
8.041,-118.17,0
8.042,-103.16,0
8.043,-85.03,0
8.044,-48.592,0
8.045,30.144,0
8.046,131.77,0
8.047,172.6,0
8.048,160.15,0
8.049,148.98,0
8.05,118.22,0
8.051,90.202,0
8.052,81.779,0
8.053,74.089,0
8.054,67.131,0
8.055,85.991,0
8.056,114.74,0
8.057,130.3,0
8.058,142.2,0
8.059,146.97,0
8.06,142.75,0
8.061,138.91,0
8.062,156.67,0
8.063,172.78,0
8.064,175.71,0
8.065,135.43,0
8.066,71.892,0
8.067,29.594,0
8.068,6.523,0
8.069,-0.435,0
8.07,-6.661,0
8.071,-12.337,0
8.072,-17.464,0
8.073,-22.225,0
8.074,-35.042,0
8.075,-38.887,0
8.076,-42.366,0
8.077,-45.479,0
8.078,-48.409,0
8.079,-56.282,0
8.08,-53.902,0
8.081,-51.705,0
8.082,-49.69,0
8.083,-55.184,0
8.084,-60.127,0
8.085,-61.592,0
8.086,-65.621,0
8.087,-64.522,0
8.088,-67.818,0
8.089,-70.748,0
8.09,-68.001,0
8.091,-65.621,0
8.092,-63.423,0
8.093,-61.592,0
8.094,-61.043,0
8.095,-58.296,0
8.096,-51.705,0
8.097,-45.296,0
8.098,-41.268,0
8.099,-35.958,0
8.1,-28.45,0
8.101,-27.535,0
8.102,-21.126,0
8.103,-17.098,0
8.104,-10.14,0
8.105,-12.886,0
8.106,-3.731,0
8.107,-0.252,0
8.108,3.044,0
8.109,-1.351,0
8.11,-0.435,0
8.111,4.143,0
8.112,6.523,0
8.113,8.72,0
8.114,6.889,0
8.115,16.411,0
8.116,34.172,0
8.117,41.313,0
8.118,25.932,0
8.119,23.918,0
8.12,33.073,0
8.121,38.017,0
8.122,60.539,0
8.123,76.652,0
8.124,49.919,0
8.125,10.551,0
8.126,-15.633,0
8.127,-29.915,0
8.128,-42.732,0
8.129,-38.887,0
8.13,-42.366,0
8.131,-39.253,0
8.132,-36.324,0
8.133,-28.45,0
8.134,-30.831,0
8.135,-24.239,0
8.136,-18.196,0
8.137,-12.703,0
8.138,-7.759,0
8.139,-3.365,0
8.14,0.664,0
