0,0.215,0
0.001,0.581,0
0.002,6.806,0
0.003,20.722,0
0.004,50.935,0
0.005,72.541,0
0.006,68.696,0
0.007,36.469,0
0.008,-2.532,0
0.009,-18.096,0
0.01,-41.9,0
0.011,-46.111,0
0.012,-49.956,0
0.013,-46.477,0
0.014,-36.956,0
0.015,-34.026,0
0.016,-31.463,0
0.017,-29.082,0
0.018,-26.885,0
0.019,-20.843,0
0.02,-19.011,0
0.021,-14.068,0
0.022,-12.603,0
0.023,-5.828,0
0.024,-4.729,0
0.025,-3.631,0
0.026,-0.701,0
0.027,-5.279,0
0.028,-2.898,0
0.029,-0.701,0
0.03,1.13,0
0.031,0.581,0
0.032,2.229,0
0.033,2.595,0
0.034,0.398,0
0.035,4.243,0
0.036,0.947,0
0.037,1.313,0
0.038,-1.433,0
0.039,-1.067,0
0.04,0.031,0
0.041,0.215,0
0.042,1.496,0
0.043,-1.433,0
0.044,2.046,0
0.045,-4.912,0
0.046,0.031,0
0.047,0.947,0
0.048,3.327,0
0.049,1.13,0
0.05,2.961,0
0.051,2.412,0
0.052,-0.701,0
0.053,7.722,0
0.054,23.835,0
0.055,52.583,0
0.056,72.175,0
0.057,54.414,0
0.058,18.708,0
0.059,-14.617,0
0.06,-27.434,0
0.061,-39.153,0
0.062,-42.632,0
0.063,-39.519,0
0.064,-42.449,0
0.065,-34.575,0
0.066,-32.195,0
0.067,-29.998,0
0.068,-27.984,0
0.069,-26.153,0
0.07,-24.505,0
0.071,-20.11,0
0.072,-16.082,0
0.073,-14.983,0
0.074,-11.687,0
0.075,-12.603,0
0.076,-6.194,0
0.077,-2.166,0
0.078,-4.363,0
0.079,-3.814,0
0.08,0.581,0
0.081,1.13,0
0.082,2.412,0
0.083,3.694,0
0.084,5.708,0
0.085,6.074,0
0.086,1.313,0
0.087,0.764,0
0.088,1.313,0
0.089,1.679,0
0.09,1.313,0
0.091,1.679,0
0.092,-0.884,0
0.093,-1.983,0
0.094,-2.715,0
0.095,-1.983,0
0.096,-1.8,0
0.097,-1.25,0
0.098,2.046,0
0.099,-0.152,0
0.1,0.947,0
0.101,-1.616,0
0.102,-1.983,0
0.103,-1.616,0
0.104,2.412,0
0.105,2.961,0
0.106,10.469,0
0.107,27.497,0
0.108,54.231,0
0.109,14.863,0
0.11,-11.321,0
0.111,-25.603,0
0.112,-38.421,0
0.113,-42.266,0
0.114,-38.787,0
0.115,-35.674,0
0.116,-32.744,0
0.117,-30.181,0
0.118,-27.801,0
0.119,-25.603,0
0.12,-23.589,0
0.121,-21.758,0
0.122,-20.11,0
0.123,-12.603,0
0.124,-13.885,0
0.125,-7.842,0
0.126,-6.743,0
0.127,-7.659,0
0.128,-4.912,0
0.129,-0.884,0
0.13,-0.152,0
0.131,0.398,0
0.132,2.229,0
0.133,2.778,0
0.134,4.06,0
0.135,5.342,0
0.136,3.327,0
0.137,0.764,0
0.138,-0.335,0
0.139,1.13,0
0.14,0.398,0
0.141,1.679,0
0.142,-1.8,0
0.143,-2.166,0
0.144,-0.884,0
0.145,0.215,0
0.146,-3.997,0
0.147,-1.25,0
0.148,-0.884,0
0.149,-0.518,0
0.15,-1.616,0
0.151,-3.448,0
0.152,-4.546,0
0.153,-4.912,0
0.154,-2.898,0
0.155,1.313,0
0.156,10.835,0
0.157,31.343,0
0.158,75.837,0
0.159,69.612,0
0.16,29.328,0
0.161,-7.293,0
0.162,-21.575,0
0.163,-43.181,0
0.164,-39.336,0
0.165,-42.815,0
0.166,-39.702,0
0.167,-42.632,0
0.168,-34.759,0
0.169,-37.139,0
0.17,-30.547,0
0.171,-28.533,0
0.172,-26.702,0
0.173,-21.758,0
0.174,-17.364,0
0.175,-13.335,0
0.176,-16.814,0
0.177,-11.138,0
0.178,-6.194,0
0.179,-5.279,0
0.18,-4.546,0
0.181,0.764,0
0.182,4.06,0
0.183,5.891,0
0.184,4.243,0
0.185,0.947,0
0.186,3.144,0
0.187,2.046,0
0.188,2.412,0
0.189,1.313,0
0.19,1.496,0
0.191,4.06,0
0.192,2.961,0
0.193,3.144,0
0.194,-1.067,0
0.195,0.764,0
0.196,-1.983,0
0.197,1.313,0
0.198,0.947,0
0.199,2.046,0
0.2,1.679,0
0.201,2.046,0
0.202,1.863,0
0.203,-1.25,0
0.204,-4.18,0
0.205,-3.081,0
0.206,2.595,0
0.207,15.046,0
0.208,42.512,0
0.209,78.034,0
0.21,54.231,0
0.211,15.229,0
0.212,-10.955,0
0.213,-25.237,0
0.214,-29.448,0
0.215,-41.167,0
0.216,-37.688,0
0.217,-40.801,0
0.218,-32.012,0
0.219,-34.575,0
0.22,-32.195,0
0.221,-34.392,0
0.222,-28.35,0
0.223,-22.857,0
0.224,-11.321,0
0.225,5.158,0
0.226,20.539,0
0.227,2.412,0
0.228,-9.673,0
0.229,-11.87,0
0.23,-13.885,0
0.231,-12.053,0
0.232,-13.701,0
0.233,-12.237,0
0.234,-8.208,0
0.235,-4.729,0
0.236,-5.828,0
0.237,-4.912,0
0.238,-0.335,0
0.239,-1.067,0
0.24,-3.264,0
0.241,-5.095,0
0.242,-4.546,0
0.243,-5.095,0
0.244,-3.814,0
0.245,-6.927,0
0.246,-2.349,0
0.247,-0.518,0
0.248,2.229,0
0.249,7.722,0
0.25,6.99,0
0.251,6.44,0
0.252,-0.518,0
0.253,-1.433,0
0.254,-2.166,0
0.255,-1.25,0
0.256,-1.983,0
0.257,8.271,0
0.258,30.793,0
0.259,60.09,0
0.26,79.682,0
0.261,83.161,0
0.262,47.456,0
0.263,4.426,0
0.264,-24.322,0
0.265,-29.448,0
0.266,-34.209,0
0.267,-38.421,0
0.268,-42.266,0
0.269,-38.787,0
0.27,-35.674,0
0.271,-32.744,0
0.272,-30.181,0
0.273,-32.561,0
0.274,-25.969,0
0.275,-19.927,0
0.276,-18.096,0
0.277,-13.152,0
0.278,-14.617,0
0.279,-13.335,0
0.28,-7.293,0
0.281,-8.391,0
0.282,-3.448,0
0.283,1.13,0
0.284,-4.546,0
0.285,-3.814,0
0.286,-3.264,0
0.287,-1.433,0
0.288,-3.081,0
0.289,-1.8,0
0.29,-3.081,0
0.291,-0.335,0
0.292,-2.166,0
0.293,0.398,0
0.294,1.13,0
0.295,-2.532,0
0.296,2.046,0
0.297,1.496,0
0.298,2.046,0
0.299,3.327,0
0.3,1.13,0
0.301,1.496,0
0.302,-0.335,0
0.303,0.031,0
0.304,0.764,0
0.305,2.595,0
0.306,3.144,0
0.307,0.215,0
0.308,5.891,0
0.309,18.342,0
0.31,45.808,0
0.311,65.4,0
0.312,76.02,0
0.313,72.907,0
0.314,28.413,0
0.315,-15.899,0
0.316,-33.111,0
0.317,-48.675,0
0.318,-53.435,0
0.319,-57.647,0
0.32,-53.802,0
0.321,-50.323,0
0.322,-40.801,0
0.323,-37.871,0
0.324,-35.308,0
0.325,-32.927,0
0.326,-26.336,0
0.327,-24.322,0
0.328,-18.828,0
0.329,-10.589,0
0.33,-9.124,0
0.331,-5.095,0
0.332,-3.997,0
0.333,-0.701,0
0.334,0.215,0
0.335,1.13,0
0.336,-1.25,0
0.337,2.595,0
0.338,-0.701,0
0.339,1.13,0
0.34,1.679,0
0.341,2.046,0
0.342,0.764,0
0.343,1.13,0
0.344,2.229,0
0.345,3.327,0
0.346,4.792,0
0.347,4.609,0
0.348,7.539,0
0.349,5.708,0
0.35,7.539,0
0.351,4.243,0
0.352,4.609,0
0.353,2.595,0
0.354,4.426,0
0.355,1.13,0
0.356,3.877,0
0.357,9.004,0
0.358,12.483,0
0.359,19.441,0
0.36,34.638,0
0.361,67.781,0
0.362,110.81,0
0.363,82.063,0
0.364,55.879,0
0.365,12.849,0
0.366,-4.363,0
0.367,-19.927,0
0.368,-24.688,0
0.369,-46.294,0
0.37,-50.139,0
0.371,-60.76,0
0.372,-63.872,0
0.373,-72.661,0
0.374,-75.225,0
0.375,-68.084,0
0.376,-61.492,0
0.377,-43.365,0
0.378,-40.984,0
0.379,-56.365,0
0.38,-62.407,0
0.381,-75.225,0
0.382,-96.831,0
0.383,-117.52,0
0.384,-120.09,0
0.385,-122.47,0
0.386,-142.43,0
0.387,-150.3,0
0.388,-152.68,0
0.389,-141.69,0
0.39,-123.56,0
0.391,-106.72,0
0.392,-77.971,0
0.393,-18.828,0
0.394,74.372,0
0.395,136.63,0
0.396,147.8,0
0.397,158.05,0
0.398,148.71,0
0.399,123.44,0
0.4,115.75,0
0.401,108.8,0
0.402,102.57,0
0.403,119.78,0
0.404,135.35,0
0.405,149.63,0
0.406,171.24,0
0.407,175.08,0
0.408,167.21,0
0.409,156.59,0
0.41,140.47,0
0.411,149.26,0
0.412,157.14,0
0.413,140.29,0
0.414,120.33,0
0.415,128.21,0
0.416,111.36,0
0.417,78.218,0
0.418,16.145,0
0.419,-26.153,0
0.42,-49.224,0
0.421,-70.098,0
0.422,-88.958,0
0.423,-94.634,0
0.424,-89.507,0
0.425,-94.268,0
0.426,-98.479,0
0.427,-102.32,0
0.428,-98.845,0
0.429,-89.324,0
0.43,-86.394,0
0.431,-83.831,0
0.432,-81.45,0
0.433,-83.648,0
0.434,-77.605,0
0.435,-75.774,0
0.436,-77.422,0
0.437,-75.957,0
0.438,-71.929,0
0.439,-70.83,0
0.44,-65.154,0
0.441,-55.999,0
0.442,-52.52,0
0.443,-53.618,0
0.444,-48.675,0
0.445,-42.266,0
0.446,-36.59,0
0.447,-29.632,0
0.448,-28.716,0
0.449,-21.209,0
0.45,-16.265,0
0.451,-11.687,0
0.452,-12.42,0
0.453,-13.152,0
0.454,-12.603,0
0.455,-4.363,0
0.456,-3.264,0
0.457,-2.349,0
0.458,-1.433,0
0.459,-3.448,0
0.46,-1.067,0
0.461,10.469,0
0.462,32.075,0
0.463,58.808,0
0.464,69.428,0
0.465,91.95,0
0.466,77.119,0
0.467,36.836,0
0.468,-3.448,0
0.469,-29.632,0
0.47,-34.392,0
0.471,-12.786,0
0.472,-8.941,0
0.473,-26.702,0
0.474,-42.815,0
0.475,-39.885,0
0.476,-42.449,0
0.477,-40.069,0
0.478,-33.477,0
0.479,-31.463,0
0.48,-22.307,0
0.481,-20.659,0
0.482,-16.265,0
0.483,-9.49,0
0.484,-3.448,0
0.485,-2.349,0
0.486,-1.433,0
0.487,-0.518,0
0.488,0.215,0
0.489,0.947,0
0.49,2.778,0
0.491,11.018,0
0.492,5.342,0
0.493,6.257,0
0.494,9.004,0
0.495,11.384,0
0.496,9.187,0
0.497,12.483,0
0.498,11.933,0
0.499,13.581,0
0.5,10.285,0
0.501,11.567,0
0.502,7.722,0
0.503,6.44,0
0.504,4.243,0
0.505,6.257,0
0.506,7.356,0
0.507,3.327,0
0.508,7.905,0
0.509,4.792,0
0.51,5.342,0
0.511,2.595,0
0.512,10.102,0
0.513,27.131,0
0.514,39.216,0
0.515,72.358,0
0.516,86.64,0
0.517,56.428,0
0.518,13.032,0
0.519,-15.716,0
0.52,-41.9,0
0.521,-46.66,0
0.522,-50.872,0
0.523,-47.027,0
0.524,-43.548,0
0.525,-40.435,0
0.526,-43.365,0
0.527,-35.491,0
0.528,-28.35,0
0.529,-26.153,0
0.53,-20.11,0
0.531,-14.617,0
0.532,-12.969,0
0.533,-8.574,0
0.534,-7.293,0
0.535,-6.194,0
0.536,-5.095,0
0.537,-4.18,0
0.538,-1.433,0
0.539,-3.814,0
0.54,1.496,0
0.541,2.046,0
0.542,0.215,0
0.543,2.961,0
0.544,0.581,0
0.545,2.778,0
0.546,1.679,0
0.547,4.243,0
0.548,4.609,0
0.549,6.074,0
0.55,7.356,0
0.551,6.623,0
0.552,3.144,0
0.553,3.51,0
0.554,2.229,0
0.555,1.13,0
0.556,-0.701,0
0.557,1.13,0
0.558,-2.166,0
0.559,-0.884,0
0.56,-6.377,0
0.561,-2.715,0
0.562,-4.912,0
0.563,5.342,0
0.564,21.821,0
0.565,54.963,0
0.566,78.767,0
0.567,57.16,0
0.568,13.764,0
0.569,-14.983,0
0.57,-30.547,0
0.571,-35.308,0
0.572,-39.519,0
0.573,-43.365,0
0.574,-39.885,0
0.575,-42.998,0
0.576,-40.069,0
0.577,-37.505,0
0.578,-30.364,0
0.579,-23.772,0
0.58,-17.73,0
0.581,-12.237,0
0.582,-10.589,0
0.583,-9.124,0
0.584,-5.095,0
0.585,-8.574,0
0.586,-5.279,0
0.587,-4.363,0
0.588,-7.11,0
0.589,-4.729,0
0.59,-3.997,0
0.591,-3.448,0
0.592,-1.616,0
0.593,0.031,0
0.594,0.398,0
0.595,-1.8,0
0.596,-2.166,0
0.597,1.313,0
0.598,1.679,0
0.599,2.778,0
0.6,-0.701,0
0.601,2.412,0
0.602,1.313,0
0.603,0.947,0
0.604,-2.349,0
0.605,-1.983,0
0.606,-3.814,0
0.607,-4.912,0
0.608,-3.448,0
0.609,-0.335,0
0.61,-1.433,0
0.611,-1.8,0
0.612,-1.983,0
0.613,0.581,0
0.614,5.158,0
0.615,15.412,0
0.616,37.934,0
0.617,73.64,0
0.618,78.401,0
0.619,48.188,0
0.62,-3.081,0
0.621,-23.955,0
0.622,-30.181,0
0.623,-47.393,0
0.624,-42.266,0
0.625,-47.027,0
0.626,-42.815,0
0.627,-46.66,0
0.628,-36.04,0
0.629,-39.153,0
0.63,-24.322,0
0.631,-21.758,0
0.632,-14.617,0
0.633,-16.814,0
0.634,-14.8,0
0.635,-12.969,0
0.636,-8.025,0
0.637,-6.56,0
0.638,-2.532,0
0.639,-1.433,0
0.64,1.863,0
0.641,0.947,0
0.642,1.863,0
0.643,-0.518,0
0.644,1.679,0
0.645,1.13,0
0.646,2.961,0
0.647,1.313,0
0.648,1.679,0
0.649,4.792,0
0.65,6.806,0
0.651,4.975,0
0.652,0.215,0
0.653,2.046,0
0.654,-1.8,0
0.655,1.496,0
0.656,-2.715,0
0.657,1.13,0
0.658,-0.152,0
0.659,-1.433,0
0.66,-1.8,0
0.661,1.679,0
0.662,2.961,0
0.663,3.144,0
0.664,0.398,0
0.665,6.074,0
0.666,18.525,0
0.667,45.991,0
0.668,65.583,0
0.669,62.104,0
0.67,52.583,0
0.671,13.948,0
0.672,-22.674,0
0.673,-36.956,0
0.674,-49.773,0
0.675,-53.618,0
0.676,-50.139,0
0.677,-53.252,0
0.678,-50.323,0
0.679,-47.759,0
0.68,-40.618,0
0.681,-34.026,0
0.682,-27.984,0
0.683,-22.49,0
0.684,-20.843,0
0.685,-19.378,0
0.686,-12.603,0
0.687,-11.504,0
0.688,-8.208,0
0.689,-5.279,0
0.69,-2.532,0
0.691,-3.264,0
0.692,-2.532,0
0.693,-0.701,0
0.694,-0.152,0
0.695,3.694,0
0.696,1.313,0
0.697,3.51,0
0.698,3.144,0
0.699,8.088,0
0.7,9.919,0
0.701,5.525,0
0.702,3.877,0
0.703,4.243,0
0.704,6.44,0
0.705,8.454,0
0.706,2.778,0
0.707,6.806,0
0.708,2.961,0
0.709,4.792,0
0.71,-0.884,0
0.711,-1.616,0
0.712,-1.067,0
0.713,-1.616,0
0.714,-3.448,0
0.715,0.398,0
0.716,6.99,0
0.717,20.906,0
0.718,26.948,0
0.719,6.806,0
0.72,9.37,0
0.721,36.103,0
0.722,46.723,0
0.723,62.837,0
0.724,42.146,0
0.725,12.666,0
0.726,-22.857,0
0.727,-46.66,0
0.728,-50.872,0
0.729,-54.717,0
0.73,-58.196,0
0.731,-55.083,0
0.732,-52.154,0
0.733,-49.59,0
0.734,-42.449,0
0.735,-40.252,0
0.736,-34.209,0
0.737,-28.716,0
0.738,-20.476,0
0.739,-16.082,0
0.74,-14.8,0
0.741,-11.321,0
0.742,-10.222,0
0.743,-5.279,0
0.744,-4.363,0
0.745,-3.631,0
0.746,1.679,0
0.747,3.51,0
0.748,6.623,0
0.749,6.074,0
0.75,11.567,0
0.751,10.835,0
0.752,6.257,0
0.753,1.863,0
0.754,3.51,0
0.755,6.806,0
0.756,8.088,0
0.757,1.863,0
0.758,2.778,0
0.759,0.398,0
0.76,-0.335,0
0.761,-0.884,0
0.762,0.947,0
0.763,-0.701,0
0.764,-0.335,0
0.765,0.947,0
0.766,4.06,0
0.767,10.285,0
0.768,16.694,0
0.769,29.145,0
0.77,56.611,0
0.771,60.456,0
0.772,13.948,0
0.773,-4.912,0
0.774,-22.124,0
0.775,-37.688,0
0.776,-42.449,0
0.777,-38.238,0
0.778,-42.083,0
0.779,-45.562,0
0.78,-42.449,0
0.781,-39.519,0
0.782,-31.646,0
0.783,-29.265,0
0.784,-22.674,0
0.785,-16.631,0
0.786,-11.138,0
0.787,-6.194,0
0.788,-4.729,0
0.789,-6.011,0
0.79,2.412,0
0.791,-0.884,0
0.792,2.046,0
0.793,4.792,0
0.794,8.821,0
0.795,4.975,0
0.796,8.271,0
0.797,8.821,0
0.798,8.271,0
0.799,7.905,0
0.8,5.708,0
0.801,1.13,0
0.802,-0.701,0
0.803,2.046,0
0.804,0.764,0
0.805,-2.349,0
0.806,-4.363,0
0.807,-1.8,0
0.808,-0.701,0
0.809,0.031,0
0.81,-4.18,0
0.811,-6.011,0
0.812,-2.166,0
0.813,-3.448,0
0.814,-2.166,0
0.815,-3.264,0
0.816,-0.518,0
0.817,2.046,0
0.818,6.806,0
0.819,16.328,0
0.82,36.836,0
0.821,75.471,0
0.822,38.85,0
0.823,5.525,0
0.824,-16.082,0
0.825,-35.674,0
0.826,-39.153,0
0.827,-42.266,0
0.828,-39.336,0
0.829,-36.773,0
0.83,-29.632,0
0.831,-31.829,0
0.832,-29.815,0
0.833,-24.322,0
0.834,-22.674,0
0.835,-21.209,0
0.836,-11.687,0
0.837,-12.786,0
0.838,-7.11,0
0.839,-6.194,0
0.84,-7.11,0
0.841,-3.081,0
0.842,-0.884,0
0.843,-1.433,0
0.844,0.398,0
0.845,-2.349,0
0.846,0.031,0
0.847,-0.335,0
0.848,-0.701,0
0.849,-1.8,0
0.85,-4.363,0
0.851,0.215,0
0.852,-0.335,0
0.853,1.496,0
0.854,0.947,0
0.855,1.313,0
0.856,3.51,0
0.857,2.412,0
0.858,0.581,0
0.859,0.215,0
0.86,-3.081,0
0.861,-3.448,0
0.862,-5.462,0
0.863,0.215,0
0.864,-0.518,0
0.865,-2.715,0
0.866,-4.546,0
0.867,-1.25,0
0.868,-3.081,0
0.869,5.342,0
0.87,21.455,0
0.871,50.202,0
0.872,77.668,0
0.873,74.189,0
0.874,31.892,0
0.875,-8.391,0
0.876,-23.955,0
0.877,-38.238,0
0.878,-42.449,0
0.879,-46.294,0
0.88,-42.815,0
0.881,-45.928,0
0.882,-37.139,0
0.883,-34.575,0
0.884,-36.956,0
0.885,-30.364,0
0.886,-24.322,0
0.887,-18.828,0
0.888,-13.885,0
0.889,-9.49,0
0.89,-5.462,0
0.891,-4.363,0
0.892,-5.462,0
0.893,-2.532,0
0.894,-1.616,0
0.895,2.412,0
0.896,0.215,0
0.897,-4.363,0
0.898,-2.532,0
0.899,-0.884,0
0.9,-1.25,0
0.901,0.031,0
0.902,-0.335,0
0.903,-0.701,0
0.904,4.06,0
0.905,7.173,0
0.906,4.426,0
0.907,4.06,0
0.908,5.342,0
0.909,3.327,0
0.91,0.764,0
0.911,-2.532,0
0.912,-1.433,0
0.913,0.398,0
0.914,2.961,0
0.915,2.229,0
0.916,1.496,0
0.917,1.679,0
0.918,1.679,0
0.919,1.13,0
0.92,4.426,0
0.921,11.384,0
0.922,26.582,0
0.923,59.724,0
0.924,54.963,0
0.925,15.962,0
0.926,-20.659,0
0.927,-34.942,0
0.928,-39.153,0
0.929,-42.998,0
0.93,-46.477,0
0.931,-36.956,0
0.932,-39.885,0
0.933,-37.322,0
0.934,-34.942,0
0.935,-32.744,0
0.936,-26.702,0
0.937,-21.209,0
0.938,-19.561,0
0.939,-18.096,0
0.94,-14.068,0
0.941,-10.589,0
0.942,-7.293,0
0.943,-10.222,0
0.944,-5.645,0
0.945,-8.025,0
0.946,-1.067,0
0.947,-0.152,0
0.948,3.877,0
0.949,1.679,0
0.95,-0.152,0
0.951,1.679,0
0.952,0.031,0
0.953,1.313,0
0.954,-0.884,0
0.955,-0.518,0
0.956,2.961,0
0.957,0.764,0
0.958,2.778,0
0.959,0.947,0
0.96,6.44,0
0.961,1.13,0
0.962,11.384,0
0.963,33.906,0
0.964,30.793,0
0.965,10.102,0
0.966,-3.264,0
0.967,-5.645,0
0.968,-12.237,0
0.969,-16.631,0
0.97,-22.674,0
0.971,-2.532,0
0.972,10.835,0
0.973,37.568,0
0.974,55.329,0
0.975,71.443,0
0.976,44.709,0
0.977,5.342,0
0.978,-20.843,0
0.979,-35.125,0
0.98,-47.942,0
0.981,-44.097,0
0.982,-47.576,0
0.983,-44.463,0
0.984,-41.533,0
0.985,-38.97,0
0.986,-31.829,0
0.987,-29.632,0
0.988,-31.646,0
0.989,-22.49,0
0.99,-20.843,0
0.991,-16.448,0
0.992,-17.73,0
0.993,-16.631,0
0.994,-15.532,0
0.995,-12.603,0
0.996,-4.18,0
0.997,-5.279,0
0.998,3.877,0
0.999,2.778,0
1,8.454,0
1.001,5.525,0
1.002,6.44,0
1.003,5.708,0
1.004,7.905,0
1.005,7.356,0
1.006,5.525,0
1.007,7.173,0
1.008,4.792,0
1.009,3.51,0
1.01,3.144,0
1.011,0.581,0
1.012,1.679,0
1.013,-1.616,0
1.014,-1.983,0
1.015,-3.081,0
1.016,2.595,0
1.017,0.215,0
1.018,-1.983,0
1.019,-2.532,0
1.02,-0.518,0
1.021,1.313,0
1.022,9.736,0
1.023,28.23,0
1.024,63.203,0
1.025,77.485,0
1.026,47.273,0
1.027,11.75,0
1.028,-2.532,0
1.029,-24.138,0
1.03,-27.984,0
1.031,-38.604,0
1.032,-35.491,0
1.033,-38.421,0
1.034,-35.857,0
1.035,-33.477,0
1.036,-31.28,0
1.037,-21.209,0
1.038,-19.378,0
1.039,-17.73,0
1.04,-13.335,0
1.041,-12.053,0
1.042,-10.955,0
1.043,-7.659,0
1.044,-8.574,0
1.045,-3.997,0
1.046,-3.264,0
1.047,-2.532,0
1.048,-1.983,0
1.049,-5.095,0
1.05,-2.349,0
1.051,-3.631,0
1.052,-6.743,0
1.053,-3.997,0
1.054,-5.095,0
1.055,-6.194,0
1.056,-1.616,0
1.057,1.679,0
1.058,2.229,0
1.059,-1.616,0
1.06,0.764,0
1.061,1.13,0
1.062,0.764,0
1.063,1.13,0
1.064,4.426,0
1.065,-0.152,0
1.066,2.961,0
1.067,-2.166,0
1.068,-1.616,0
1.069,-4.729,0
1.07,-7.476,0
1.071,-5.645,0
1.072,-6.011,0
1.073,-3.814,0
1.074,2.412,0
1.075,16.328,0
1.076,46.54,0
1.077,59.358,0
1.078,15.962,0
1.079,-12.786,0
1.08,-28.35,0
1.081,-33.111,0
1.082,-37.322,0
1.083,-41.167,0
1.084,-37.688,0
1.085,-34.575,0
1.086,-31.646,0
1.087,-23.772,0
1.088,-21.392,0
1.089,-19.195,0
1.09,-13.152,0
1.091,-18.645,0
1.092,-20.293,0
1.093,-18.828,0
1.094,-12.053,0
1.095,-6.011,0
1.096,-2.715,0
1.097,-3.631,0
1.098,-2.715,0
1.099,-6.743,0
1.1,-6.011,0
1.101,-7.842,0
1.102,-7.293,0
1.103,-2.166,0
1.104,4.06,0
1.105,9.736,0
1.106,13.581,0
1.107,9.004,0
1.108,7.173,0
1.109,-1.25,0
1.11,-2.349,0
1.111,0.947,0
1.112,1.863,0
1.113,-6.56,0
1.114,-5.462,0
1.115,-8.391,0
1.116,-5.645,0
1.117,-4.912,0
1.118,-1.067,0
1.119,-1.616,0
1.12,-1.067,0
1.121,-6.194,0
1.122,-3.448,0
1.123,-8.025,0
1.124,1.496,0
1.125,22.004,0
1.126,60.639,0
1.127,76.203,0
1.128,100.01,0
1.129,87.19,0
1.13,43.794,0
1.131,15.046,0
1.132,-11.138,0
1.133,-25.42,0
1.134,-29.632,0
1.135,-41.35,0
1.136,-44.829,0
1.137,-41.717,0
1.138,-26.885,0
1.139,-24.322,0
1.14,-36.406,0
1.141,-38.604,0
1.142,-40.618,0
1.143,-49.773,0
1.144,-54.717,0
1.145,-62.224,0
1.146,-58.196,0
1.147,-52.154,0
1.148,-44.28,0
1.149,-29.082,0
1.15,-18.096,0
1.151,-40.252,0
1.152,-55.083,0
1.153,-68.45,0
1.154,-85.296,0
1.155,-105.25,0
1.156,-113.13,0
1.157,-120.27,0
1.158,-118.07,0
1.159,-108,0
1.16,-102.51,0
1.161,-107.45,0
1.162,-93.902,0
1.163,-73.76,0
1.164,-33.477,0
1.165,53.132,0
1.166,140.29,0
1.167,151.46,0
1.168,161.71,0
1.169,133.7,0
1.17,125.28,0
1.171,86.823,0
1.172,79.865,0
1.173,60.273,0
1.174,41.413,0
1.175,81.697,0
1.176,107.88,0
1.177,150.91,0
1.178,179.66,0
1.179,174.53,0
1.18,141.21,0
1.181,102.2,0
1.182,76.02,0
1.183,71.26,0
1.184,58.442,0
1.185,38.85,0
1.186,13.948,0
1.187,4.426,0
1.188,-4.363,0
1.189,-1.8,0
1.19,0.581,0
1.191,2.778,0
1.192,-3.264,0
1.193,-12.42,0
1.194,-17.364,0
1.195,-24.871,0
1.196,-31.646,0
1.197,-32.744,0
1.198,-40.618,0
1.199,-53.802,0
1.2,-55.633,0
1.201,-50.689,0
1.202,-46.294,0
1.203,-45.012,0
1.204,-48.491,0
1.205,-47.393,0
1.206,-48.308,0
1.207,-45.562,0
1.208,-33.111,0
1.209,-23.955,0
1.21,-45.562,0
1.211,-66.253,0
1.212,-74.126,0
1.213,-76.507,0
1.214,-74.309,0
1.215,-72.295,0
1.216,-63.14,0
1.217,-51.604,0
1.218,-53.069,0
1.219,-49.041,0
1.22,-42.998,0
1.221,-35.125,0
1.222,-32.195,0
1.223,-25.786,0
1.224,-23.223,0
1.225,-14.068,0
1.226,4.426,0
1.227,17.793,0
1.228,44.526,0
1.229,69.428,0
1.23,66.316,0
1.231,33.723,0
1.232,-5.279,0
1.233,-31.463,0
1.234,-36.223,0
1.235,-40.435,0
1.236,-44.28,0
1.237,-40.801,0
1.238,-37.688,0
1.239,-34.759,0
1.24,-32.195,0
1.241,-25.054,0
1.242,-22.857,0
1.243,-16.814,0
1.244,-11.321,0
1.245,-6.377,0
1.246,-1.983,0
1.247,-0.701,0
1.248,5.342,0
1.249,8.637,0
1.25,7.722,0
1.251,14.131,0
1.252,13.398,0
1.253,9.553,0
1.254,4.975,0
1.255,9.37,0
1.256,5.525,0
1.257,6.806,0
1.258,3.694,0
1.259,6.44,0
1.26,6.074,0
1.261,4.975,0
1.262,6.99,0
1.263,4.426,0
1.264,4.06,0
1.265,4.792,0
1.266,7.356,0
1.267,6.99,0
1.268,5.525,0
1.269,8.088,0
1.27,9.187,0
1.271,9.004,0
1.272,4.792,0
1.273,6.623,0
1.274,4.975,0
1.275,4.609,0
1.276,4.975,0
1.277,11.933,0
1.278,27.131,0
1.279,60.273,0
1.28,93.598,0
1.281,63.386,0
1.282,27.864,0
1.283,-5.462,0
1.284,-27.068,0
1.285,-30.913,0
1.286,-41.533,0
1.287,-44.646,0
1.288,-47.576,0
1.289,-39.702,0
1.29,-42.083,0
1.291,-35.491,0
1.292,-33.477,0
1.293,-24.322,0
1.294,-19.378,0
1.295,-14.983,0
1.296,-13.701,0
1.297,-7.659,0
1.298,-4.363,0
1.299,-3.448,0
1.3,-4.363,0
1.301,-6.743,0
1.302,-7.476,0
1.303,-2.898,0
1.304,-6.011,0
1.305,0.215,0
1.306,-0.518,0
1.307,1.679,0
1.308,-2.898,0
1.309,-2.349,0
1.31,-0.701,0
1.311,1.679,0
1.312,2.046,0
1.313,-0.701,0
1.314,-1.8,0
1.315,-1.433,0
1.316,3.144,0
1.317,1.313,0
1.318,-1.8,0
1.319,-0.152,0
1.32,3.144,0
1.321,3.51,0
1.322,6.257,0
1.323,5.891,0
1.324,4.06,0
1.325,0.764,0
1.326,-1.983,0
1.327,-5.095,0
1.328,1.13,0
1.329,15.046,0
1.33,37.202,0
1.331,52.033,0
1.332,54.597,0
1.333,52.217,0
1.334,58.808,0
1.335,52.766,0
1.336,50.935,0
1.337,26.032,0
1.338,-27.617,0
1.339,-50.689,0
1.34,-71.563,0
1.341,-77.788,0
1.342,-72.112,0
1.343,-66.985,0
1.344,-62.224,0
1.345,-49.407,0
1.346,-45.562,0
1.347,-42.083,0
1.348,-38.97,0
1.349,-30.181,0
1.35,-32.744,0
1.351,-25.603,0
1.352,-19.011,0
1.353,-16.997,0
1.354,-11.504,0
1.355,-6.56,0
1.356,-5.095,0
1.357,-1.067,0
1.358,2.412,0
1.359,8.088,0
1.36,7.173,0
1.361,4.426,0
1.362,6.806,0
1.363,9.004,0
1.364,10.835,0
1.365,6.44,0
1.366,10.285,0
1.367,14.863,0
1.368,10.469,0
1.369,7.722,0
1.37,6.44,0
1.371,4.243,0
1.372,4.609,0
1.373,2.046,0
1.374,5.342,0
1.375,2.595,0
1.376,2.229,0
1.377,0.215,0
1.378,-1.616,0
1.379,-1.8,0
1.38,2.412,0
1.381,11.933,0
1.382,32.441,0
1.383,65.034,0
1.384,69.245,0
1.385,65.4,0
1.386,68.879,0
1.387,26.582,0
1.388,-13.701,0
1.389,-50.323,0
1.39,-64.605,0
1.391,-68.816,0
1.392,-64.971,0
1.393,-61.492,0
1.394,-64.605,0
1.395,-49.773,0
1.396,-47.21,0
1.397,-40.069,0
1.398,-37.871,0
1.399,-31.829,0
1.4,-26.336,0
1.401,-21.392,0
1.402,-16.997,0
1.403,-15.716,0
1.404,-9.673,0
1.405,-3.997,0
1.406,0.947,0
1.407,1.863,0
1.408,2.595,0
1.409,6.44,0
1.41,6.99,0
1.411,15.229,0
1.412,11.933,0
1.413,6.99,0
1.414,9.736,0
1.415,9.004,0
1.416,9.736,0
1.417,7.905,0
1.418,8.454,0
1.419,12.3,0
1.42,9.004,0
1.421,9.37,0
1.422,6.623,0
1.423,3.144,0
1.424,2.778,0
1.425,1.679,0
1.426,3.51,0
1.427,2.412,0
1.428,0.215,0
1.429,0.398,0
1.43,4.609,0
1.431,14.131,0
1.432,34.638,0
1.433,79.133,0
1.434,47.456,0
1.435,7.173,0
1.436,-19.011,0
1.437,-23.772,0
1.438,-36.59,0
1.439,-32.744,0
1.44,-29.265,0
1.441,-32.378,0
1.442,-35.308,0
1.443,-32.744,0
1.444,-30.364,0
1.445,-23.772,0
1.446,-25.786,0
1.447,-23.955,0
1.448,-19.011,0
1.449,-14.617,0
1.45,-13.335,0
1.451,-9.856,0
1.452,-6.56,0
1.453,4.609,0
1.454,27.131,0
1.455,30.244,0
1.456,9.553,0
1.457,1.679,0
1.458,-5.462,0
1.459,-3.264,0
1.46,-9.307,0
1.461,-7.476,0
1.462,-5.828,0
1.463,-10.222,0
1.464,-8.941,0
1.465,-7.842,0
1.466,-6.743,0
1.467,-11.687,0
1.468,-8.941,0
1.469,-8.208,0
1.47,-8.941,0
1.471,-4.363,0
1.472,1.313,0
1.473,-2.532,0
1.474,0.764,0
1.475,1.313,0
1.476,-1.433,0
1.477,-6.011,0
1.478,-1.616,0
1.479,-1.983,0
1.48,-1.433,0
1.481,6.074,0
1.482,23.103,0
1.483,59.541,0
1.484,75.105,0
1.485,51.301,0
1.486,3.694,0
1.487,-15.166,0
1.488,-32.378,0
1.489,-37.505,0
1.49,-42.266,0
1.491,-46.477,0
1.492,-34.759,0
1.493,-38.238,0
1.494,-35.125,0
1.495,-32.195,0
1.496,-24.322,0
1.497,-21.941,0
1.498,-19.744,0
1.499,-17.73,0
1.5,-15.899,0
1.501,-14.251,0
1.502,-12.786,0
1.503,-8.758,0
1.504,-5.279,0
1.505,-1.983,0
1.506,-1.067,0
1.507,5.342,0
1.508,1.313,0
1.509,2.046,0
1.51,3.877,0
1.511,-3.081,0
1.512,-0.335,0
1.513,3.694,0
1.514,1.496,0
1.515,6.074,0
1.516,1.679,0
1.517,5.525,0
1.518,4.243,0
1.519,5.525,0
1.52,2.778,0
1.521,0.947,0
1.522,-1.616,0
1.523,2.961,0
1.524,4.792,0
1.525,2.961,0
1.526,5.708,0
1.527,2.412,0
1.528,0.215,0
1.529,-3.631,0
1.53,-0.518,0
1.531,-3.814,0
1.532,3.144,0
1.533,18.342,0
1.534,51.484,0
1.535,75.288,0
1.536,53.681,0
1.537,18.159,0
1.538,-15.166,0
1.539,-36.773,0
1.54,-40.618,0
1.541,-44.097,0
1.542,-40.984,0
1.543,-43.914,0
1.544,-41.35,0
1.545,-38.97,0
1.546,-32.378,0
1.547,-26.336,0
1.548,-28.167,0
1.549,-23.223,0
1.55,-18.828,0
1.551,-17.547,0
1.552,-16.448,0
1.553,-13.152,0
1.554,-10.222,0
1.555,-3.814,0
1.556,-6.194,0
1.557,0.764,0
1.558,-1.983,0
1.559,3.694,0
1.56,2.961,0
1.561,3.51,0
1.562,4.06,0
1.563,-1.067,0
1.564,3.51,0
1.565,2.961,0
1.566,3.51,0
1.567,2.229,0
1.568,0.031,0
1.569,1.13,0
1.57,0.031,0
1.571,3.327,0
1.572,7.173,0
1.573,0.581,0
1.574,1.496,0
1.575,-2.532,0
1.576,-3.264,0
1.577,0.031,0
1.578,-4.363,0
1.579,-1.616,0
1.58,-1.25,0
1.581,0.215,0
1.582,-2.898,0
1.583,3.327,0
1.584,17.243,0
1.585,47.456,0
1.586,86.457,0
1.587,60.273,0
1.588,26.948,0
1.589,-3.264,0
1.59,-30.73,0
1.591,-41.35,0
1.592,-44.463,0
1.593,-41.533,0
1.594,-38.97,0
1.595,-31.829,0
1.596,-34.026,0
1.597,-36.04,0
1.598,-26.885,0
1.599,-25.237,0
1.6,-20.843,0
1.601,-22.124,0
1.602,-21.026,0
1.603,-15.349,0
1.604,-14.434,0
1.605,-11.687,0
1.606,-9.307,0
1.607,-5.462,0
1.608,-3.631,0
1.609,0.764,0
1.61,1.313,0
1.611,3.694,0
1.612,2.412,0
1.613,4.426,0
1.614,1.863,0
1.615,2.229,0
1.616,2.412,0
1.617,1.13,0
1.618,0.398,0
1.619,-0.701,0
1.62,1.679,0
1.621,0.215,0
1.622,0.947,0
1.623,2.229,0
1.624,3.694,0
1.625,0.764,0
1.626,-4.18,0
1.627,4.792,0
1.628,8.271,0
1.629,4.975,0
1.63,4.06,0
1.631,-0.518,0
1.632,-1.983,0
1.633,-1.25,0
1.634,-0.518,0
1.635,9.736,0
1.636,32.258,0
1.637,54.78,0
1.638,57.71,0
1.639,49.836,0
1.64,23.103,0
1.641,-16.265,0
1.642,-31.829,0
1.643,-46.111,0
1.644,-50.323,0
1.645,-46.477,0
1.646,-49.956,0
1.647,-46.844,0
1.648,-38.054,0
1.649,-35.491,0
1.65,-33.111,0
1.651,-26.519,0
1.652,-20.476,0
1.653,-25.969,0
1.654,-17.73,0
1.655,-16.265,0
1.656,-12.237,0
1.657,-8.758,0
1.658,-3.081,0
1.659,-2.166,0
1.66,-4.912,0
1.661,-4.18,0
1.662,-0.335,0
1.663,5.891,0
1.664,5.158,0
1.665,5.891,0
1.666,4.06,0
1.667,8.454,0
1.668,3.327,0
1.669,7.905,0
1.67,7.356,0
1.671,5.708,0
1.672,8.088,0
1.673,6.806,0
1.674,2.229,0
1.675,-4.729,0
1.676,-7.476,0
1.677,-1.8,0
1.678,-2.532,0
1.679,-0.701,0
1.68,-2.532,0
1.681,-0.884,0
1.682,1.496,0
1.683,1.679,0
1.684,-0.518,0
1.685,5.708,0
1.686,19.624,0
1.687,49.836,0
1.688,80.049,0
1.689,52.583,0
1.69,13.215,0
1.691,-12.969,0
1.692,-27.251,0
1.693,-40.069,0
1.694,-36.223,0
1.695,-32.744,0
1.696,-35.857,0
1.697,-32.927,0
1.698,-30.364,0
1.699,-23.223,0
1.7,9.919,0
1.701,14.68,0
1.702,-6.927,0
1.703,-18.645,0
1.704,-22.124,0
1.705,-25.237,0
1.706,-22.307,0
1.707,-19.744,0
1.708,-22.124,0
1.709,-15.532,0
1.71,-17.547,0
1.711,-19.378,0
1.712,-14.434,0
1.713,-10.039,0
1.714,-6.011,0
1.715,-2.532,0
1.716,0.764,0
1.717,-0.152,0
1.718,0.764,0
1.719,1.496,0
1.72,-0.701,0
1.721,-0.152,0
1.722,2.961,0
1.723,5.708,0
1.724,4.426,0
1.725,3.144,0
1.726,-3.081,0
1.727,-0.335,0
1.728,-2.715,0
1.729,-3.448,0
1.73,1.13,0
1.731,0.581,0
1.732,1.13,0
1.733,-0.152,0
1.734,2.412,0
1.735,3.694,0
1.736,9.919,0
1.737,23.835,0
1.738,54.048,0
1.739,84.26,0
1.74,64.668,0
1.741,18.159,0
1.742,-0.701,0
1.743,-29.448,0
1.744,-34.575,0
1.745,-39.336,0
1.746,-43.548,0
1.747,-47.393,0
1.748,-36.773,0
1.749,-33.66,0
1.75,-36.59,0
1.751,-34.026,0
1.752,-26.885,0
1.753,-24.688,0
1.754,-22.674,0
1.755,-17.18,0
1.756,-12.237,0
1.757,-7.842,0
1.758,-6.56,0
1.759,-0.518,0
1.76,0.581,0
1.761,-2.349,0
1.762,-5.095,0
1.763,-2.715,0
1.764,-4.912,0
1.765,2.595,0
1.766,5.525,0
1.767,6.44,0
1.768,5.708,0
1.769,0.398,0
1.77,4.975,0
1.771,5.525,0
1.772,7.173,0
1.773,6.806,0
1.774,4.609,0
1.775,5.708,0
1.776,0.031,0
1.777,5.708,0
1.778,6.44,0
1.779,4.609,0
1.78,0.215,0
1.781,2.961,0
1.782,4.243,0
1.783,2.046,0
1.784,-4.18,0
1.785,-7.842,0
1.786,-5.095,0
1.787,7.356,0
1.788,20.173,0
1.789,45.075,0
1.79,55.696,0
1.791,71.809,0
1.792,51.118,0
1.793,10.835,0
1.794,-17.913,0
1.795,-33.477,0
1.796,-38.238,0
1.797,-51.055,0
1.798,-54.9,0
1.799,-51.421,0
1.8,-48.308,0
1.801,-39.519,0
1.802,-36.956,0
1.803,-39.336,0
1.804,-32.744,0
1.805,-30.73,0
1.806,-28.899,0
1.807,-20.659,0
1.808,-16.265,0
1.809,-14.983,0
1.81,-8.941,0
1.811,-3.264,0
1.812,3.694,0
1.813,10.102,0
1.814,4.426,0
1.815,-2.532,0
1.816,0.215,0
1.817,2.595,0
1.818,0.398,0
1.819,3.694,0
1.82,4.243,0
1.821,3.694,0
1.822,4.975,0
1.823,7.173,0
1.824,4.426,0
1.825,1.863,0
1.826,-2.166,0
1.827,2.412,0
1.828,5.525,0
1.829,2.778,0
1.83,4.06,0
1.831,4.426,0
1.832,4.06,0
1.833,0.581,0
1.834,2.778,0
1.835,0.031,0
1.836,2.412,0
1.837,-3.264,0
1.838,0.764,0
1.839,12.3,0
1.84,37.202,0
1.841,47.822,0
1.842,77.119,0
1.843,65.4,0
1.844,26.032,0
1.845,-10.589,0
1.846,-34.392,0
1.847,-38.604,0
1.848,-42.449,0
1.849,-53.069,0
1.85,-49.956,0
1.851,-52.886,0
1.852,-45.012,0
1.853,-37.871,0
1.854,-35.674,0
1.855,-25.603,0
1.856,-27.434,0
1.857,-25.786,0
1.858,-21.392,0
1.859,-17.364,0
1.86,-13.885,0
1.861,-8.208,0
1.862,-3.264,0
1.863,1.313,0
1.864,6.99,0
1.865,9.187,0
1.866,16.694,0
1.867,21.638,0
1.868,24.385,0
1.869,30.061,0
1.87,32.258,0
1.871,34.089,0
1.872,24.568,0
1.873,20.539,0
1.874,19.441,0
1.875,13.764,0
1.876,12.849,0
1.877,6.44,0
1.878,-6.011,0
1.879,-22.49,0
1.88,-29.082,0
1.881,-35.125,0
1.882,-44.28,0
1.883,-49.224,0
1.884,-44.829,0
1.885,-38.054,0
1.886,-29.632,0
1.887,-26.153,0
1.888,-34.026,0
1.889,-47.21,0
1.89,-38.054,0
1.891,-26.519,0
1.892,-27.984,0
1.893,-48.491,0
1.894,-92.986,0
1.895,-162.93,0
1.896,-172.27,0
1.897,-180.69,0
1.898,-157.62,0
1.899,-150.66,0
1.9,-131.8,0
1.901,-91.521,0
1.902,-12.786,0
1.903,88.838,0
1.904,129.67,0
1.905,142.12,0
1.906,153.29,0
1.907,122.53,0
1.908,94.514,0
1.909,86.091,0
1.91,93.781,0
1.911,72.907,0
1.912,91.767,0
1.913,97.444,0
1.914,134.06,0
1.915,138.82,0
1.916,143.04,0
1.917,131.32,0
1.918,127.84,0
1.919,111.73,0
1.92,114.66,0
1.921,101.29,0
1.922,84.443,0
1.923,55.696,0
1.924,36.103,0
1.925,25.483,0
1.926,28.596,0
1.927,31.526,0
1.928,18.159,0
1.929,6.074,0
1.93,-4.912,0
1.931,-6.927,0
1.932,-19.744,0
1.933,-27.984,0
1.934,-29.448,0
1.935,-36.223,0
1.936,-47.393,0
1.937,-54.9,0
1.938,-54.717,0
1.939,-58.745,0
1.94,-62.224,0
1.941,-61.126,0
1.942,-60.21,0
1.943,-62.957,0
1.944,-68.633,0
1.945,-57.097,0
1.946,-45.562,0
1.947,-47.027,0
1.948,-59.295,0
1.949,-47.759,0
1.95,-28.167,0
1.951,1.313,0
1.952,-10.406,0
1.953,-42.632,0
1.954,-64.239,0
1.955,-83.831,0
1.956,-94.451,0
1.957,-84.929,0
1.958,-76.14,0
1.959,-73.577,0
1.96,-66.436,0
1.961,-59.844,0
1.962,-53.802,0
1.963,-44.646,0
1.964,-36.406,0
1.965,-32.012,0
1.966,-25.237,0
1.967,-19.195,0
1.968,-18.096,0
1.969,-11.138,0
1.97,-8.391,0
1.971,-4.363,0
1.972,-2.166,0
1.973,-1.616,0
1.974,4.06,0
1.975,9.37,0
1.976,7.539,0
1.977,8.088,0
1.978,10.835,0
1.979,15.412,0
1.98,12.3,0
1.981,10.652,0
1.982,9.37,0
1.983,14.497,0
1.984,12.666,0
1.985,10.835,0
1.986,4.609,0
1.987,6.99,0
1.988,12.3,0
1.989,11.933,0
1.99,8.637,0
1.991,18.159,0
1.992,38.667,0
1.993,65.4,0
1.994,90.302,0
1.995,74.189,0
1.996,35.554,0
1.997,9.37,0
1.998,-14.434,0
1.999,-27.251,0
2,-38.97,0
2.001,-42.449,0
2.002,-45.562,0
2.003,-36.773,0
2.004,-34.209,0
2.005,-27.068,0
2.006,-20.476,0
2.007,-18.462,0
2.008,-20.293,0
2.009,-15.349,0
2.01,-13.885,0
2.011,-7.11,0
2.012,-6.011,0
2.013,-4.912,0
2.014,0.031,0
2.015,4.609,0
2.016,6.99,0
2.017,4.792,0
2.018,4.243,0
2.019,1.13,0
2.02,4.975,0
2.021,6.257,0
2.022,4.975,0
2.023,8.821,0
2.024,1.313,0
2.025,0.215,0
2.026,3.144,0
2.027,4.06,0
2.028,1.679,0
2.029,3.877,0
2.03,-0.701,0
2.031,-0.152,0
2.032,-0.701,0
2.033,2.595,0
2.034,-1.616,0
2.035,3.51,0
2.036,-1.067,0
2.037,-6.743,0
2.038,-6.011,0
2.039,1.496,0
2.04,0.215,0
2.041,-2.715,0
2.042,9.37,0
2.043,14.314,0
2.044,36.836,0
2.045,79.133,0
2.046,61.921,0
2.047,14.68,0
2.048,-16.997,0
2.049,-22.674,0
2.05,-38.238,0
2.051,-42.998,0
2.052,-38.787,0
2.053,-42.632,0
2.054,-39.153,0
2.055,-36.04,0
2.056,-33.111,0
2.057,-25.237,0
2.058,-22.857,0
2.059,-29.448,0
2.06,-19.378,0
2.061,-13.885,0
2.062,-8.941,0
2.063,-4.546,0
2.064,-3.264,0
2.065,-4.363,0
2.066,-1.067,0
2.067,-0.152,0
2.068,-1.067,0
2.069,-1.8,0
2.07,0.398,0
2.071,-2.898,0
2.072,0.215,0
2.073,-0.335,0
2.074,0.947,0
2.075,-0.335,0
2.076,0.031,0
2.077,2.595,0
2.078,-0.701,0
2.079,-0.335,0
2.08,3.144,0
2.081,3.51,0
2.082,0.764,0
2.083,3.327,0
2.084,0.764,0
2.085,0.947,0
2.086,-2.166,0
2.087,-1.8,0
2.088,-4.363,0
2.089,-3.264,0
2.09,-1.25,0
2.091,-1.983,0
2.092,-1.8,0
2.093,2.229,0
2.094,10.652,0
2.095,29.145,0
2.096,53.315,0
2.097,69.428,0
2.098,66.499,0
2.099,26.216,0
2.1,-14.068,0
2.101,-29.632,0
2.102,-43.914,0
2.103,-56.731,0
2.104,-60.576,0
2.105,-57.097,0
2.106,-47.576,0
2.107,-50.506,0
2.108,-42.632,0
2.109,-40.252,0
2.11,-29.265,0
2.111,-23.223,0
2.112,-17.73,0
2.113,-12.786,0
2.114,-14.251,0
2.115,-10.222,0
2.116,-9.124,0
2.117,-12.42,0
2.118,-7.476,0
2.119,-4.729,0
2.12,2.778,0
2.121,7.722,0
2.122,8.637,0
2.123,6.257,0
2.124,5.525,0
2.125,0.947,0
2.126,4.06,0
2.127,3.51,0
2.128,4.792,0
2.129,6.074,0
2.13,4.975,0
2.131,8.454,0
2.132,5.342,0
2.133,2.595,0
2.134,2.961,0
2.135,4.792,0
2.136,0.215,0
2.137,-0.335,0
2.138,-2.166,0
2.139,0.581,0
2.14,-0.701,0
2.141,0.581,0
2.142,0.947,0
2.143,2.046,0
2.144,7.722,0
2.145,20.173,0
2.146,47.639,0
2.147,51.484,0
2.148,62.104,0
2.149,78.218,0
2.15,45.625,0
2.151,6.623,0
2.152,-29.998,0
2.153,-44.28,0
2.154,-48.491,0
2.155,-44.646,0
2.156,-48.125,0
2.157,-51.238,0
2.158,-42.449,0
2.159,-45.012,0
2.16,-42.632,0
2.161,-36.04,0
2.162,-25.969,0
2.163,-24.138,0
2.164,-22.49,0
2.165,-18.096,0
2.166,-11.321,0
2.167,-12.42,0
2.168,-4.546,0
2.169,-3.631,0
2.17,-2.715,0
2.171,-1.983,0
2.172,-4.18,0
2.173,-2.349,0
2.174,3.327,0
2.175,4.06,0
2.176,2.229,0
2.177,1.679,0
2.178,2.229,0
2.179,3.51,0
2.18,4.792,0
2.181,2.046,0
2.182,6.99,0
2.183,2.412,0
2.184,5.525,0
2.185,0.398,0
2.186,0.947,0
2.187,2.778,0
2.188,1.13,0
2.189,0.764,0
2.19,-2.349,0
2.191,3.877,0
2.192,17.793,0
2.193,3.144,0
2.194,-2.898,0
2.195,-4.729,0
2.196,3.51,0
2.197,19.99,0
2.198,53.132,0
2.199,57.893,0
2.2,27.68,0
2.201,-7.842,0
2.202,-22.124,0
2.203,-34.942,0
2.204,-46.66,0
2.205,-43.181,0
2.206,-40.069,0
2.207,-37.139,0
2.208,-34.575,0
2.209,-32.195,0
2.21,-29.998,0
2.211,-23.955,0
2.212,-22.124,0
2.213,-17.18,0
2.214,-15.716,0
2.215,-14.434,0
2.216,-10.955,0
2.217,-5.279,0
2.218,-4.363,0
2.219,0.215,0
2.22,-0.518,0
2.221,0.215,0
2.222,-3.081,0
2.223,0.031,0
2.224,5.158,0
2.225,5.708,0
2.226,1.313,0
2.227,6.44,0
2.228,6.99,0
2.229,5.158,0
2.23,7.905,0
2.231,6.623,0
2.232,3.51,0
2.233,-2.715,0
2.234,-3.631,0
2.235,-2.898,0
2.236,0.947,0
2.237,-2.349,0
2.238,-0.518,0
2.239,-4.363,0
2.24,-3.081,0
2.241,-6.194,0
2.242,-3.448,0
2.243,-6.011,0
2.244,0.947,0
2.245,1.313,0
2.246,5.891,0
2.247,16.145,0
2.248,38.667,0
2.249,54.78,0
2.25,75.471,0
2.251,56.794,0
2.252,25.117,0
2.253,-13.885,0
2.254,-40.069,0
2.255,-44.829,0
2.256,-49.041,0
2.257,-52.886,0
2.258,-49.407,0
2.259,-52.52,0
2.26,-43.731,0
2.261,-41.167,0
2.262,-34.026,0
2.263,-31.829,0
2.264,-25.786,0
2.265,-20.293,0
2.266,-18.645,0
2.267,-14.251,0
2.268,-10.222,0
2.269,-6.743,0
2.27,-5.645,0
2.271,-0.701,0
2.272,-3.448,0
2.273,-4.18,0
2.274,-1.983,0
2.275,1.313,0
2.276,1.863,0
2.277,5.708,0
2.278,8.088,0
2.279,9.37,0
2.28,3.877,0
2.281,6.074,0
2.282,1.496,0
2.283,3.327,0
2.284,2.778,0
2.285,-0.518,0
2.286,2.595,0
2.287,6.44,0
2.288,3.144,0
2.289,1.863,0
2.29,3.877,0
2.291,1.313,0
2.292,0.947,0
2.293,1.679,0
2.294,-1.983,0
2.295,0.947,0
2.296,-2.349,0
2.297,4.609,0
2.298,19.807,0
2.299,52.949,0
2.3,76.753,0
2.301,46.54,0
2.302,11.018,0
2.303,-12.786,0
2.304,-25.603,0
2.305,-29.448,0
2.306,-32.927,0
2.307,-36.04,0
2.308,-38.97,0
2.309,-36.406,0
2.31,-29.265,0
2.311,-27.068,0
2.312,-25.054,0
2.313,-19.561,0
2.314,-14.617,0
2.315,-16.082,0
2.316,-17.364,0
2.317,-16.265,0
2.318,-10.589,0
2.319,-9.673,0
2.32,-6.927,0
2.321,-6.194,0
2.322,-8.391,0
2.323,-7.842,0
2.324,-10.955,0
2.325,-3.631,0
2.326,-0.701,0
2.327,2.046,0
2.328,-3.631,0
2.329,-4.363,0
2.33,-1.067,0
2.331,-1.616,0
2.332,1.13,0
2.333,1.496,0
2.334,1.13,0
2.335,-4.363,0
2.336,0.947,0
2.337,2.778,0
2.338,0.947,0
2.339,0.398,0
2.34,1.679,0
2.341,2.046,0
2.342,2.412,0
2.343,4.975,0
2.344,0.215,0
2.345,2.046,0
2.346,0.947,0
2.347,-1.8,0
2.348,5.708,0
2.349,22.737,0
2.35,54.414,0
2.351,84.626,0
2.352,57.16,0
2.353,17.793,0
2.354,-8.391,0
2.355,-22.674,0
2.356,-35.491,0
2.357,-39.336,0
2.358,-42.815,0
2.359,-45.928,0
2.36,-42.998,0
2.361,-40.435,0
2.362,-33.294,0
2.363,-26.702,0
2.364,-24.688,0
2.365,-22.857,0
2.366,-17.913,0
2.367,-22.307,0
2.368,-15.532,0
2.369,-12.053,0
2.37,-4.18,0
2.371,-3.264,0
2.372,-4.18,0
2.373,-3.448,0
2.374,-2.715,0
2.375,-0.884,0
2.376,0.947,0
2.377,-2.898,0
2.378,-5.279,0
2.379,1.679,0
2.38,6.623,0
2.381,2.046,0
2.382,1.313,0
2.383,8.271,0
2.384,1.863,0
2.385,1.13,0
2.386,1.863,0
2.387,0.031,0
2.388,1.863,0
2.389,3.51,0
2.39,4.792,0
2.391,2.595,0
2.392,7.173,0
2.393,7.722,0
2.394,4.975,0
2.395,-1.616,0
2.396,1.13,0
2.397,-5.645,0
2.398,-3.264,0
2.399,8.271,0
2.4,19.807,0
2.401,42.329,0
2.402,78.034,0
2.403,54.231,0
2.404,24.018,0
2.405,-11.504,0
2.406,-35.308,0
2.407,-39.519,0
2.408,-43.365,0
2.409,-39.885,0
2.41,-36.773,0
2.411,-33.843,0
2.412,-36.406,0
2.413,-34.026,0
2.414,-23.04,0
2.415,-21.026,0
2.416,-22.857,0
2.417,-14.617,0
2.418,-10.222,0
2.419,-14.251,0
2.42,-15.349,0
2.421,-9.673,0
2.422,-6.743,0
2.423,-3.997,0
2.424,-4.729,0
2.425,-3.997,0
2.426,-4.546,0
2.427,-3.997,0
2.428,2.229,0
2.429,4.609,0
2.43,2.412,0
2.431,4.243,0
2.432,3.694,0
2.433,2.046,0
2.434,-1.25,0
2.435,5.708,0
2.436,20.906,0
2.437,40.864,0
2.438,16.694,0
2.439,7.173,0
2.44,-7.659,0
2.441,-10.222,0
2.442,-12.603,0
2.443,-10.406,0
2.444,-12.42,0
2.445,-10.589,0
2.446,-8.941,0
2.447,-10.406,0
2.448,-10.772,0
2.449,-9.49,0
2.45,1.679,0
2.451,12.116,0
2.452,32.624,0
2.453,77.119,0
2.454,58.259,0
2.455,6.257,0
2.456,-14.617,0
2.457,-33.477,0
2.458,-39.153,0
2.459,-44.28,0
2.46,-39.519,0
2.461,-43.731,0
2.462,-32.012,0
2.463,-28.533,0
2.464,-25.42,0
2.465,-16.631,0
2.466,-14.068,0
2.467,-11.687,0
2.468,-13.885,0
2.469,-15.899,0
2.47,-14.068,0
2.471,-12.42,0
2.472,-8.025,0
2.473,-3.997,0
2.474,-2.898,0
2.475,-1.8,0
2.476,1.13,0
2.477,2.046,0
2.478,1.313,0
2.479,6.623,0
2.48,4.792,0
2.481,1.679,0
2.482,-1.067,0
2.483,0.215,0
2.484,-2.898,0
2.485,-2.532,0
2.486,-3.631,0
2.487,-3.997,0
2.488,0.581,0
2.489,1.13,0
2.49,1.679,0
2.491,2.229,0
2.492,2.595,0
2.493,4.792,0
2.494,2.778,0
2.495,6.257,0
2.496,3.144,0
2.497,3.51,0
2.498,-2.166,0
2.499,2.412,0
2.5,-1.616,0
2.501,9.919,0
2.502,24.934,0
2.503,55.146,0
2.504,67.964,0
2.505,32.441,0
2.506,-0.884,0
2.507,-22.49,0
2.508,-34.209,0
2.509,-30.73,0
2.51,-33.843,0
2.511,-30.913,0
2.512,-28.35,0
2.513,-30.73,0
2.514,-28.533,0
2.515,-26.519,0
2.516,-21.026,0
2.517,-19.378,0
2.518,-14.983,0
2.519,-10.955,0
2.52,-7.476,0
2.521,-8.574,0
2.522,-7.659,0
2.523,-6.743,0
2.524,-4.363,0
2.525,-3.631,0
2.526,0.947,0
2.527,1.496,0
2.528,3.144,0
2.529,-0.152,0
2.53,2.046,0
2.531,4.792,0
2.532,-0.152,0
2.533,1.679,0
2.534,2.229,0
2.535,3.877,0
2.536,0.581,0
2.537,2.778,0
2.538,1.679,0
2.539,-0.884,0
2.54,-4.912,0
2.541,-10.406,0
2.542,-8.208,0
2.543,-4.912,0
2.544,-1.8,0
2.545,3.327,0
2.546,2.778,0
2.547,-1.616,0
2.548,-5.462,0
2.549,-2.166,0
2.55,-1.983,0
2.551,-8.025,0
2.552,-2.349,0
2.553,9.187,0
2.554,34.089,0
2.555,73.457,0
2.556,47.273,0
2.557,4.243,0
2.558,-24.505,0
2.559,-29.632,0
2.56,-34.392,0
2.561,-38.604,0
2.562,-34.759,0
2.563,-38.238,0
2.564,-28.716,0
2.565,-25.786,0
2.566,-28.35,0
2.567,-25.969,0
2.568,-23.772,0
2.569,-17.73,0
2.57,-15.899,0
2.571,-17.547,0
2.572,-13.152,0
2.573,-6.377,0
2.574,-7.476,0
2.575,-6.377,0
2.576,-5.462,0
2.577,0.947,0
2.578,1.679,0
2.579,3.877,0
2.58,5.708,0
2.581,2.595,0
2.582,-0.152,0
2.583,0.215,0
2.584,0.581,0
2.585,-1.433,0
2.586,-1.8,0
2.587,-0.701,0
2.588,-3.997,0
2.589,2.961,0
2.59,-1.983,0
2.591,2.595,0
2.592,-4.912,0
2.593,-1.983,0
2.594,0.764,0
2.595,1.496,0
2.596,3.694,0
2.597,-0.884,0
2.598,2.229,0
2.599,2.778,0
2.6,-0.518,0
2.601,0.947,0
2.602,-3.264,0
2.603,5.158,0
2.604,21.272,0
2.605,50.019,0
2.606,61.738,0
2.607,79.499,0
2.608,56.977,0
2.609,18.342,0
2.61,-18.279,0
2.611,-32.561,0
2.612,-45.379,0
2.613,-49.224,0
2.614,-45.745,0
2.615,-48.858,0
2.616,-40.069,0
2.617,-37.505,0
2.618,-25.42,0
2.619,-23.223,0
2.62,-13.152,0
2.621,-11.321,0
2.622,0.215,0
2.623,1.679,0
2.624,8.454,0
2.625,14.497,0
2.626,17.793,0
2.627,20.722,0
2.628,19.807,0
2.629,12.3,0
2.63,17.243,0
2.631,5.158,0
2.632,-13.152,0
2.633,-25.237,0
2.634,-31.829,0
2.635,-33.843,0
2.636,-39.336,0
2.637,-40.984,0
2.638,-33.477,0
2.639,-18.462,0
2.64,-16.448,0
2.641,-29.265,0
2.642,-44.28,0
2.643,-62.407,0
2.644,-79.253,0
2.645,-99.212,0
2.646,-112.58,0
2.647,-124.66,0
2.648,-131.25,0
2.649,-141.33,0
2.65,-150.48,0
2.651,-145.54,0
2.652,-138.21,0
2.653,-115.69,0
2.654,-79.986,0
2.655,-8.391,0
2.656,125.09,0
2.657,216.1,0
2.658,199.62,0
2.659,154.57,0
2.66,141.02,0
2.661,103.67,0
2.662,69.978,0
2.663,59.724,0
2.664,69.062,0
2.665,77.485,0
2.666,85.176,0
2.667,106.05,0
2.668,137.73,0
2.669,143.4,0
2.67,138.28,0
2.671,123.99,0
2.672,111.18,0
2.673,107.33,0
2.674,103.85,0
2.675,81.33,0
2.676,54.597,0
2.677,36.836,0
2.678,33.723,0
2.679,30.793,0
2.68,33.357,0
2.681,26.216,0
2.682,46.174,0
2.683,27.497,0
2.684,0.764,0
2.685,-16.997,0
2.686,-26.519,0
2.687,-35.308,0
2.688,-53.985,0
2.689,-61.126,0
2.69,-67.718,0
2.691,-65.703,0
2.692,-63.872,0
2.693,-62.224,0
2.694,-66.619,0
2.695,-67.901,0
2.696,-71.38,0
2.697,-74.676,0
2.698,-77.605,0
2.699,-80.352,0
2.7,-79.619,0
2.701,-77.422,0
2.702,-74.126,0
2.703,-67.901,0
2.704,-66.07,0
2.705,-57.647,0
2.706,-39.153,0
2.707,1.13,0
2.708,29.878,0
2.709,35.005,0
2.71,11.201,0
2.711,-27.801,0
2.712,-53.985,0
2.713,-58.745,0
2.714,-62.957,0
2.715,-59.112,0
2.716,-55.633,0
2.717,-52.52,0
2.718,-43.731,0
2.719,-41.167,0
2.72,-38.787,0
2.721,-32.195,0
2.722,-26.153,0
2.723,-20.659,0
2.724,-15.716,0
2.725,-8.208,0
2.726,-6.927,0
2.727,-3.448,0
2.728,-0.152,0
2.729,4.792,0
2.73,11.201,0
2.731,7.173,0
2.732,11.018,0
2.733,6.44,0
2.734,9.553,0
2.735,12.3,0
2.736,13.581,0
2.737,12.3,0
2.738,12.666,0
2.739,13.764,0
2.74,10.469,0
2.741,8.454,0
2.742,8.088,0
2.743,7.722,0
2.744,9.187,0
2.745,9.004,0
2.746,7.722,0
2.747,7.539,0
2.748,10.469,0
2.749,8.637,0
2.75,7.539,0
2.751,4.792,0
2.752,5.158,0
2.753,6.99,0
2.754,5.342,0
2.755,2.595,0
2.756,8.271,0
2.757,20.722,0
2.758,48.188,0
2.759,83.711,0
2.76,59.907,0
2.761,12.3,0
2.762,-6.56,0
2.763,-23.772,0
2.764,-28.899,0
2.765,-33.66,0
2.766,-29.448,0
2.767,-33.294,0
2.768,-29.815,0
2.769,-32.927,0
2.77,-29.998,0
2.771,-22.124,0
2.772,-19.744,0
2.773,-17.547,0
2.774,-15.532,0
2.775,-17.364,0
2.776,-9.124,0
2.777,-7.659,0
2.778,-6.377,0
2.779,-5.279,0
2.78,0.398,0
2.781,-0.518,0
2.782,2.229,0
2.783,-0.152,0
2.784,-2.349,0
2.785,-0.518,0
2.786,6.44,0
2.787,3.694,0
2.788,2.961,0
2.789,3.694,0
2.79,0.398,0
2.791,-0.152,0
2.792,2.595,0
2.793,1.313,0
2.794,1.679,0
2.795,2.778,0
2.796,-0.701,0
2.797,1.496,0
2.798,-0.518,0
2.799,2.046,0
2.8,2.412,0
2.801,0.947,0
2.802,5.158,0
2.803,4.609,0
2.804,-1.616,0
2.805,-1.25,0
2.806,2.778,0
2.807,14.314,0
2.808,25.849,0
2.809,48.371,0
2.81,70.893,0
2.811,73.823,0
2.812,38.85,0
2.813,5.525,0
2.814,-24.688,0
2.815,-36.406,0
2.816,-47.027,0
2.817,-50.139,0
2.818,-47.21,0
2.819,-44.646,0
2.82,-47.027,0
2.821,-44.829,0
2.822,-38.787,0
2.823,-33.294,0
2.824,-28.35,0
2.825,-23.955,0
2.826,-17.18,0
2.827,-16.082,0
2.828,-8.208,0
2.829,-3.264,0
2.83,-0.518,0
2.831,-2.898,0
2.832,-0.701,0
2.833,-5.279,0
2.834,0.398,0
2.835,1.13,0
2.836,2.961,0
2.837,4.792,0
2.838,5.342,0
2.839,-0.152,0
2.84,-0.884,0
2.841,0.947,0
2.842,4.06,0
2.843,0.215,0
2.844,0.581,0
2.845,0.215,0
2.846,2.229,0
2.847,7.173,0
2.848,-0.335,0
2.849,2.595,0
2.85,-0.152,0
2.851,2.229,0
2.852,1.496,0
2.853,-3.081,0
2.854,-3.631,0
2.855,-0.884,0
2.856,-2.715,0
2.857,-0.335,0
2.858,5.708,0
2.859,18.159,0
2.86,45.625,0
2.861,73.091,0
2.862,76.57,0
2.863,40.864,0
2.864,-2.166,0
2.865,-19.378,0
2.866,-34.942,0
2.867,-39.702,0
2.868,-52.52,0
2.869,-48.675,0
2.87,-38.054,0
2.871,-41.167,0
2.872,-38.238,0
2.873,-30.364,0
2.874,-32.744,0
2.875,-26.153,0
2.876,-20.11,0
2.877,-21.941,0
2.878,-13.701,0
2.879,-12.237,0
2.88,-5.462,0
2.881,-4.363,0
2.882,-3.264,0
2.883,-2.349,0
2.884,4.06,0
2.885,0.031,0
2.886,-3.814,0
2.887,-0.518,0
2.888,5.158,0
2.889,1.313,0
2.89,8.821,0
2.891,5.891,0
2.892,4.975,0
2.893,2.595,0
2.894,3.327,0
2.895,2.778,0
2.896,4.609,0
2.897,0.764,0
2.898,4.06,0
2.899,3.694,0
2.9,2.595,0
2.901,0.031,0
2.902,0.398,0
2.903,-1.067,0
2.904,3.144,0
2.905,0.031,0
2.906,-1.616,0
2.907,-2.715,0
2.908,-2.349,0
2.909,4.609,0
2.91,19.807,0
2.911,52.949,0
2.912,67.231,0
2.913,80.049,0
2.914,44.526,0
2.915,1.496,0
2.916,-27.251,0
2.917,-32.378,0
2.918,-46.66,0
2.919,-50.872,0
2.92,-47.027,0
2.921,-43.548,0
2.922,-46.66,0
2.923,-37.871,0
2.924,-35.308,0
2.925,-32.927,0
2.926,-30.73,0
2.927,-12.603,0
2.928,4.243,0
2.929,10.835,0
2.93,-3.264,0
2.931,-12.42,0
2.932,-17.364,0
2.933,-18.828,0
2.934,-17.547,0
2.935,-18.645,0
2.936,-15.349,0
2.937,-12.42,0
2.938,-9.673,0
2.939,-7.293,0
2.94,-3.448,0
2.941,-6.743,0
2.942,-3.631,0
2.943,-0.884,0
2.944,-0.518,0
2.945,-0.884,0
2.946,3.694,0
2.947,1.863,0
2.948,4.609,0
2.949,1.313,0
2.95,3.51,0
2.951,0.764,0
2.952,0.398,0
2.953,-0.701,0
2.954,-1.433,0
2.955,1.679,0
2.956,2.778,0
2.957,0.947,0
2.958,-0.518,0
2.959,2.046,0
2.96,6.623,0
2.961,16.877,0
2.962,39.399,0
2.963,61.921,0
2.964,64.851,0
2.965,56.977,0
2.966,59.358,0
2.967,52.766,0
2.968,50.752,0
2.969,23.286,0
2.97,-35.857,0
2.971,-61.126,0
2.972,-68.816,0
2.973,-75.774,0
2.974,-82,0
2.975,-76.323,0
2.976,-60.76,0
2.977,-55.999,0
2.978,-51.787,0
2.979,-40.069,0
2.98,-36.59,0
2.981,-27.068,0
2.982,-24.138,0
2.983,-16.265,0
2.984,-18.645,0
2.985,-12.053,0
2.986,-6.011,0
2.987,-7.842,0
2.988,-2.898,0
2.989,1.496,0
2.99,2.778,0
2.991,6.257,0
2.992,9.553,0
2.993,6.623,0
2.994,11.201,0
2.995,10.469,0
2.996,12.666,0
2.997,13.215,0
2.998,7.539,0
2.999,9.736,0
3,6.44,0
3.001,5.891,0
3.002,8.637,0
3.003,7.356,0
3.004,7.722,0
3.005,4.975,0
3.006,4.609,0
3.007,2.778,0
3.008,2.046,0
3.009,3.877,0
3.01,4.609,0
3.011,8.637,0
3.012,17.06,0
3.013,35.554,0
3.014,65.034,0
3.015,84.626,0
3.016,52.4,0
3.017,13.398,0
3.018,-23.223,0
3.019,-37.505,0
3.02,-50.323,0
3.021,-54.168,0
3.022,-50.689,0
3.023,-47.576,0
3.024,-44.646,0
3.025,-47.21,0
3.026,-40.069,0
3.027,-33.477,0
3.028,-31.463,0
3.029,-25.969,0
3.03,-21.026,0
3.031,-19.561,0
3.032,-10.039,0
3.033,-8.941,0
3.034,-3.264,0
3.035,-8.208,0
3.036,-5.462,0
3.037,-1.433,0
3.038,0.764,0
3.039,-1.067,0
3.04,0.764,0
3.041,2.412,0
3.042,2.778,0
3.043,-4.18,0
3.044,9.004,0
3.045,3.51,0
3.046,1.863,0
3.047,3.327,0
3.048,2.046,0
3.049,3.144,0
3.05,-0.152,0
3.051,0.764,0
3.052,1.679,0
3.053,-2.349,0
3.054,-0.152,0
3.055,0.398,0
3.056,0.947,0
3.057,-2.898,0
3.058,-3.264,0
3.059,-4.546,0
3.06,-3.448,0
3.061,-2.349,0
3.062,3.327,0
3.063,15.779,0
3.064,43.244,0
3.065,86.64,0
3.066,57.893,0
3.067,21.272,0
3.068,-2.532,0
3.069,-24.138,0
3.07,-35.857,0
3.071,-39.336,0
3.072,-42.449,0
3.073,-39.519,0
3.074,-36.956,0
3.075,-34.575,0
3.076,-36.773,0
3.077,-30.73,0
3.078,-28.899,0
3.079,-20.659,0
3.08,-19.195,0
3.081,-15.166,0
3.082,-11.687,0
3.083,-8.391,0
3.084,-5.462,0
3.085,-6.377,0
3.086,-5.645,0
3.087,-3.448,0
3.088,-2.898,0
3.089,-4.729,0
3.09,-0.884,0
3.091,-4.18,0
3.092,-2.898,0
3.093,-4.912,0
3.094,0.031,0
3.095,3.327,0
3.096,1.496,0
3.097,2.046,0
3.098,3.327,0
3.099,3.694,0
3.1,2.595,0
3.101,3.694,0
3.102,4.06,0
3.103,-0.518,0
3.104,1.313,0
3.105,0.764,0
3.106,-3.081,0
3.107,-6.377,0
3.108,-2.166,0
3.109,-1.616,0
3.11,-0.335,0
3.111,1.679,0
3.112,-4.363,0
3.113,8.088,0
3.114,20.906,0
3.115,45.808,0
3.116,70.71,0
3.117,73.823,0
3.118,41.23,0
3.119,2.229,0
3.12,-23.955,0
3.121,-38.238,0
3.122,-42.449,0
3.123,-46.294,0
3.124,-42.815,0
3.125,-39.702,0
3.126,-36.773,0
3.127,-34.209,0
3.128,-31.829,0
3.129,-25.237,0
3.13,-23.223,0
3.131,-17.73,0
3.132,-12.786,0
3.133,-14.251,0
3.134,-10.222,0
3.135,-13.701,0
3.136,-10.406,0
3.137,-3.448,0
3.138,-4.363,0
3.139,-3.631,0
3.14,0.215,0
3.141,-0.335,0
3.142,1.496,0
3.143,-0.152,0
3.144,1.13,0
3.145,4.243,0
3.146,4.609,0
3.147,3.51,0
3.148,5.342,0
3.149,3.327,0
3.15,1.496,0
3.151,1.679,0
3.152,1.863,0
3.153,2.412,0
3.154,0.215,0
3.155,-1.067,0
3.156,0.764,0
3.157,0.947,0
3.158,1.13,0
3.159,4.06,0
3.16,-2.166,0
3.161,-4.912,0
3.162,-4.18,0
3.163,-3.448,0
3.164,8.088,0
3.165,26.399,0
3.166,48.371,0
3.167,75.105,0
3.168,57.344,0
3.169,21.638,0
3.17,-11.687,0
3.171,-24.505,0
3.172,-36.223,0
3.173,-18.462,0
3.174,-8.941,0
3.175,-23.772,0
3.176,-37.139,0
3.177,-39.519,0
3.178,-37.322,0
3.179,-39.336,0
3.18,-33.843,0
3.181,-32.195,0
3.182,-30.73,0
3.183,-26.702,0
3.184,-23.223,0
3.185,-24.322,0
3.186,-17.364,0
3.187,-16.448,0
3.188,-12.42,0
3.189,-11.687,0
3.19,-8.391,0
3.191,-3.997,0
3.192,-4.546,0
3.193,-5.828,0
3.194,-1.616,0
3.195,2.229,0
3.196,3.51,0
3.197,5.708,0
3.198,4.609,0
3.199,2.046,0
3.2,0.947,0
3.201,0.215,0
3.202,1.496,0
3.203,0.215,0
3.204,3.694,0
3.205,4.06,0
3.206,0.947,0
3.207,3.694,0
3.208,-1.25,0
3.209,0.581,0
3.21,1.13,0
3.211,2.778,0
3.212,5.158,0
3.213,2.412,0
3.214,4.609,0
3.215,10.835,0
3.216,24.751,0
3.217,54.963,0
3.218,76.57,0
3.219,56.977,0
3.22,17.61,0
3.221,-8.574,0
3.222,-32.378,0
3.223,-36.59,0
3.224,-40.435,0
3.225,-43.914,0
3.226,-40.801,0
3.227,-37.871,0
3.228,-40.435,0
3.229,-33.294,0
3.23,-31.096,0
3.231,-25.054,0
3.232,-19.561,0
3.233,-14.617,0
3.234,-13.152,0
3.235,-11.87,0
3.236,-10.772,0
3.237,-7.476,0
3.238,-12.42,0
3.239,-7.842,0
3.24,-2.166,0
3.241,-1.433,0
3.242,-3.264,0
3.243,-0.152,0
3.244,3.694,0
3.245,-0.884,0
3.246,3.51,0
3.247,-0.335,0
3.248,2.961,0
3.249,6.074,0
3.25,7.173,0
3.251,8.271,0
3.252,5.708,0
3.253,1.13,0
3.254,1.679,0
3.255,-0.152,0
3.256,2.595,0
3.257,-2.898,0
3.258,-5.095,0
3.259,-3.264,0
3.26,-1.433,0
3.261,-3.081,0
3.262,-4.363,0
3.263,-2.166,0
3.264,-4.18,0
3.265,2.046,0
3.266,12.3,0
3.267,27.314,0
3.268,53.498,0
3.269,71.26,0
3.27,74.372,0
3.271,35.737,0
3.272,-0.884,0
3.273,-24.688,0
3.274,-46.294,0
3.275,-42.449,0
3.276,-45.928,0
3.277,-49.041,0
3.278,-46.111,0
3.279,-43.548,0
3.28,-36.406,0
3.281,-34.209,0
3.282,-32.195,0
3.283,-26.702,0
3.284,-21.758,0
3.285,-17.364,0
3.286,-13.335,0
3.287,-4.912,0
3.288,-3.814,0
3.289,-2.898,0
3.29,-3.814,0
3.291,-3.081,0
3.292,-5.279,0
3.293,-3.448,0
3.294,0.947,0
3.295,2.595,0
3.296,7.173,0
3.297,7.722,0
3.298,4.975,0
3.299,1.679,0
3.3,-0.518,0
3.301,4.975,0
3.302,5.708,0
3.303,6.257,0
3.304,5.708,0
3.305,7.356,0
3.306,4.975,0
3.307,-0.152,0
3.308,0.398,0
3.309,2.229,0
3.31,0.581,0
3.311,0.215,0
3.312,-0.152,0
3.313,-1.25,0
3.314,-0.884,0
3.315,-1.25,0
3.316,-3.814,0
3.317,0.764,0
3.318,11.018,0
3.319,33.54,0
3.32,82.246,0
3.321,61.372,0
3.322,29.695,0
3.323,-10.589,0
3.324,-26.153,0
3.325,-40.435,0
3.326,-44.646,0
3.327,-40.801,0
3.328,-37.322,0
3.329,-40.435,0
3.33,-37.505,0
3.331,-29.632,0
3.332,-27.251,0
3.333,-25.054,0
3.334,-19.011,0
3.335,-20.843,0
3.336,-15.899,0
3.337,-14.434,0
3.338,-13.152,0
3.339,-9.673,0
3.34,-10.772,0
3.341,-9.856,0
3.342,-8.941,0
3.343,-1.433,0
3.344,-0.518,0
3.345,-1.433,0
3.346,-0.701,0
3.347,0.031,0
3.348,-0.518,0
3.349,0.031,0
3.35,0.581,0
3.351,1.863,0
3.352,0.581,0
3.353,-2.166,0
3.354,2.046,0
3.355,0.398,0
3.356,0.764,0
3.357,-1.433,0
3.358,-1.067,0
3.359,-1.433,0
3.36,4.06,0
3.361,0.215,0
3.362,3.51,0
3.363,4.06,0
3.364,5.708,0
3.365,2.412,0
3.366,-3.448,0
3.367,-6.56,0
3.368,-0.335,0
3.369,13.581,0
3.37,43.794,0
3.371,82.795,0
3.372,56.611,0
3.373,23.286,0
3.374,-15.716,0
3.375,-31.28,0
3.376,-36.04,0
3.377,-48.858,0
3.378,-45.012,0
3.379,-41.533,0
3.38,-38.421,0
3.381,-29.632,0
3.382,-32.195,0
3.383,-29.815,0
3.384,-27.617,0
3.385,-21.575,0
3.386,-19.744,0
3.387,-18.096,0
3.388,-13.701,0
3.389,-6.927,0
3.39,-5.828,0
3.391,-4.729,0
3.392,-3.814,0
3.393,-2.898,0
3.394,-0.518,0
3.395,3.327,0
3.396,9.553,0
3.397,11.933,0
3.398,17.243,0
3.399,21.821,0
3.4,22.37,0
3.401,26.216,0
3.402,29.511,0
3.403,29.878,0
3.404,23.652,0
3.405,19.074,0
3.406,16.694,0
3.407,9.736,0
3.408,10.652,0
3.409,-0.152,0
3.41,-10.589,0
3.411,-25.603,0
3.412,-35.674,0
3.413,-44.829,0
3.414,-46.477,0
3.415,-38.97,0
3.416,-34.942,0
3.417,-24.688,0
3.418,-6.194,0
3.419,-3.631,0
3.42,-6.011,0
3.421,-39.153,0
3.422,-91.704,0
3.423,-84.746,0
3.424,-78.521,0
3.425,-61.309,0
3.426,-87.493,0
3.427,-130.52,0
3.428,-170.81,0
3.429,-165.68,0
3.43,-170.44,0
3.431,-148.83,0
3.432,-121.37,0
3.433,-67.718,0
3.434,47.822,0
3.435,97.444,0
3.436,112.46,0
3.437,126.01,0
3.438,113.56,0
3.439,79.865,0
3.44,69.612,0
3.441,78.95,0
3.442,70.527,0
3.443,78.218,0
3.444,99.092,0
3.445,130.77,0
3.446,147.98,0
3.447,153.11,0
3.448,148.35,0
3.449,135.53,0
3.45,123.81,0
3.451,120.33,0
3.452,117.22,0
3.453,96.528,0
3.454,67.048,0
3.455,47.456,0
3.456,43.977,0
3.457,40.864,0
3.458,43.794,0
3.459,30.427,0
3.46,18.342,0
3.461,2.961,0
3.462,-3.081,0
3.463,-19.561,0
3.464,-26.153,0
3.465,-24.138,0
3.466,-33.294,0
3.467,-48.308,0
3.468,-55.449,0
3.469,-57.464,0
3.47,-37.322,0
3.471,-29.448,0
3.472,-2.715,0
3.473,15.046,0
3.474,18.159,0
3.475,-14.434,0
3.476,-62.041,0
3.477,-93.719,0
3.478,-110.93,0
3.479,-116.06,0
3.48,-120.82,0
3.481,-116.61,0
3.482,-104.89,0
3.483,-101.41,0
3.484,-91.887,0
3.485,-88.958,0
3.486,-81.084,0
3.487,-68.999,0
3.488,-58.013,0
3.489,-51.97,0
3.49,-46.477,0
3.491,-38.238,0
3.492,-30.73,0
3.493,-23.955,0
3.494,-15.532,0
3.495,-9.856,0
3.496,-4.912,0
3.497,-0.335,0
3.498,0.398,0
3.499,1.13,0
3.5,0.581,0
3.501,2.412,0
3.502,5.158,0
3.503,0.581,0
3.504,4.975,0
3.505,6.623,0
3.506,6.99,0
3.507,7.356,0
3.508,11.201,0
3.509,10.835,0
3.51,12.116,0
3.511,14.131,0
3.512,11.567,0
3.513,11.201,0
3.514,13.215,0
3.515,12.483,0
3.516,8.454,0
3.517,4.609,0
3.518,6.99,0
3.519,4.609,0
3.52,8.821,0
3.521,17.243,0
3.522,33.357,0
3.523,62.104,0
3.524,73.823,0
3.525,70.344,0
3.526,60.823,0
3.527,28.23,0
3.528,-10.772,0
3.529,-26.336,0
3.53,-40.618,0
3.531,-44.829,0
3.532,-40.984,0
3.533,-44.463,0
3.534,-47.576,0
3.535,-38.787,0
3.536,-36.223,0
3.537,-29.082,0
3.538,-26.885,0
3.539,-20.843,0
3.54,-19.011,0
3.541,-14.068,0
3.542,-12.603,0
3.543,-11.321,0
3.544,-5.279,0
3.545,-1.983,0
3.546,0.947,0
3.547,3.694,0
3.548,2.961,0
3.549,6.806,0
3.55,0.581,0
3.551,2.961,0
3.552,6.806,0
3.553,7.356,0
3.554,5.525,0
3.555,4.975,0
3.556,3.694,0
3.557,2.412,0
3.558,1.313,0
3.559,6.257,0
3.56,5.708,0
3.561,3.877,0
3.562,6.623,0
3.563,9.919,0
3.564,11.201,0
3.565,10.102,0
3.566,4.426,0
3.567,-1.25,0
3.568,-0.518,0
3.569,1.313,0
3.57,0.215,0
3.571,0.764,0
3.572,9.187,0
3.573,27.68,0
3.574,51.85,0
3.575,74.372,0
3.576,65.583,0
3.577,25.3,0
3.578,-3.448,0
3.579,-29.632,0
3.58,-34.392,0
3.581,-38.604,0
3.582,-42.449,0
3.583,-45.928,0
3.584,-42.815,0
3.585,-39.885,0
3.586,-37.322,0
3.587,-34.942,0
3.588,-28.35,0
3.589,-22.307,0
3.59,-20.476,0
3.591,-15.532,0
3.592,-8.025,0
3.593,-6.743,0
3.594,-3.264,0
3.595,0.031,0
3.596,0.947,0
3.597,3.694,0
3.598,1.313,0
3.599,-0.884,0
3.6,-7.11,0
3.601,-1.433,0
3.602,-0.701,0
3.603,2.595,0
3.604,0.764,0
3.605,1.313,0
3.606,2.595,0
3.607,-1.616,0
3.608,-3.264,0
3.609,-0.884,0
3.61,1.313,0
3.611,0.215,0
3.612,-1.616,0
3.613,-1.983,0
3.614,-2.715,0
3.615,-2.532,0
3.616,-1.25,0
3.617,-1.8,0
3.618,-5.095,0
3.619,-1.983,0
3.62,0.764,0
3.621,-1.25,0
3.622,1.313,0
3.623,6.806,0
3.624,18.342,0
3.625,43.244,0
3.626,89.753,0
3.627,70.893,0
3.628,30.61,0
3.629,-6.011,0
3.63,-29.815,0
3.631,-34.026,0
3.632,-37.871,0
3.633,-48.491,0
3.634,-45.379,0
3.635,-48.308,0
3.636,-40.435,0
3.637,-42.815,0
3.638,-36.223,0
3.639,-30.181,0
3.64,-28.35,0
3.641,-23.406,0
3.642,-15.899,0
3.643,-14.617,0
3.644,-11.138,0
3.645,-7.842,0
3.646,-0.884,0
3.647,-5.462,0
3.648,-7.842,0
3.649,-0.884,0
3.65,-1.8,0
3.651,0.581,0
3.652,2.778,0
3.653,4.609,0
3.654,5.158,0
3.655,3.51,0
3.656,1.13,0
3.657,4.243,0
3.658,3.877,0
3.659,4.975,0
3.66,4.609,0
3.661,4.792,0
3.662,6.623,0
3.663,5.891,0
3.664,8.454,0
3.665,13.948,0
3.666,25.483,0
3.667,10.469,0
3.668,0.398,0
3.669,-5.095,0
3.67,-10.039,0
3.671,-14.434,0
3.672,-11.504,0
3.673,-10.222,0
3.674,-11.321,0
3.675,5.708,0
3.676,37.385,0
3.677,58.991,0
3.678,55.146,0
3.679,65.766,0
3.68,62.654,0
3.681,59.724,0
3.682,30.244,0
3.683,-28.899,0
3.684,-54.168,0
3.685,-61.858,0
3.686,-68.816,0
3.687,-75.042,0
3.688,-69.365,0
3.689,-64.239,0
3.69,-59.478,0
3.691,-55.266,0
3.692,-43.548,0
3.693,-32.927,0
3.694,-29.815,0
3.695,-21.026,0
3.696,-18.462,0
3.697,-11.321,0
3.698,-9.124,0
3.699,-7.11,0
3.7,-5.279,0
3.701,-3.631,0
3.702,0.764,0
3.703,4.792,0
3.704,8.271,0
3.705,9.37,0
3.706,6.44,0
3.707,5.525,0
3.708,6.257,0
3.709,6.99,0
3.71,8.821,0
3.711,9.37,0
3.712,11.018,0
3.713,8.637,0
3.714,8.271,0
3.715,9.37,0
3.716,6.806,0
3.717,3.51,0
3.718,3.877,0
3.719,4.975,0
3.72,3.144,0
3.721,2.412,0
3.722,4.243,0
3.723,2.412,0
3.724,-0.518,0
3.725,5.158,0
3.726,17.61,0
3.727,45.075,0
3.728,80.598,0
3.729,75.837,0
3.73,36.836,0
3.731,0.215,0
3.732,-23.589,0
3.733,-36.406,0
3.734,-40.252,0
3.735,-50.872,0
3.736,-47.759,0
3.737,-44.829,0
3.738,-42.266,0
3.739,-39.885,0
3.74,-33.294,0
3.741,-31.28,0
3.742,-25.786,0
3.743,-20.843,0
3.744,-13.335,0
3.745,-14.617,0
3.746,-6.194,0
3.747,-5.095,0
3.748,-4.18,0
3.749,0.398,0
3.75,-0.335,0
3.751,0.398,0
3.752,2.229,0
3.753,2.778,0
3.754,-1.067,0
3.755,0.215,0
3.756,0.581,0
3.757,0.215,0
3.758,2.778,0
3.759,-0.518,0
3.76,2.229,0
3.761,1.863,0
3.762,1.496,0
3.763,5.525,0
3.764,2.778,0
3.765,3.144,0
3.766,-1.983,0
3.767,-1.433,0
3.768,2.961,0
3.769,1.313,0
3.77,-1.983,0
3.771,-0.701,0
3.772,0.398,0
3.773,-1.433,0
3.774,-1.983,0
3.775,-1.616,0
3.776,2.961,0
3.777,13.215,0
3.778,35.737,0
3.779,65.034,0
3.78,84.626,0
3.781,52.4,0
3.782,22.187,0
3.783,-13.335,0
3.784,-37.139,0
3.785,-49.956,0
3.786,-53.802,0
3.787,-57.281,0
3.788,-60.393,0
3.789,-51.604,0
3.79,-49.041,0
3.791,-41.9,0
3.792,-35.308,0
3.793,-33.294,0
3.794,-27.801,0
3.795,-19.561,0
3.796,-12.053,0
3.797,-10.772,0
3.798,-7.293,0
3.799,-6.194,0
3.8,-7.11,0
3.801,-8.025,0
3.802,-3.997,0
3.803,-6.194,0
3.804,-4.363,0
3.805,-1.25,0
3.806,-0.701,0
3.807,-0.335,0
3.808,2.778,0
3.809,5.525,0
3.81,9.004,0
3.811,9.37,0
3.812,9.004,0
3.813,10.835,0
3.814,5.342,0
3.815,6.074,0
3.816,1.496,0
3.817,-1.616,0
3.818,0.031,0
3.819,0.398,0
3.82,-0.884,0
3.821,1.13,0
3.822,-0.701,0
3.823,0.398,0
3.824,-2.898,0
3.825,-0.518,0
3.826,-0.884,0
3.827,5.342,0
3.828,19.258,0
3.829,45.442,0
3.83,70.344,0
3.831,73.457,0
3.832,46.723,0
3.833,0.215,0
3.834,-18.645,0
3.835,-35.857,0
3.836,-51.421,0
3.837,-46.66,0
3.838,-50.872,0
3.839,-47.027,0
3.84,-43.548,0
3.841,-40.435,0
3.842,-31.646,0
3.843,-29.082,0
3.844,-21.941,0
3.845,-19.744,0
3.846,-13.701,0
3.847,-8.208,0
3.848,-6.56,0
3.849,-8.025,0
3.85,-9.307,0
3.851,-5.828,0
3.852,-6.927,0
3.853,-3.997,0
3.854,-1.25,0
3.855,1.13,0
3.856,0.398,0
3.857,-0.152,0
3.858,1.679,0
3.859,0.031,0
3.86,2.412,0
3.861,2.778,0
3.862,3.877,0
3.863,4.243,0
3.864,6.074,0
3.865,7.539,0
3.866,4.426,0
3.867,1.679,0
3.868,0.581,0
3.869,3.877,0
3.87,4.975,0
3.871,4.609,0
3.872,0.581,0
3.873,-0.701,0
3.874,-3.814,0
3.875,-4.912,0
3.876,-0.518,0
3.877,-1.616,0
3.878,3.877,0
3.879,15.412,0
3.88,40.315,0
3.881,79.682,0
3.882,74.555,0
3.883,31.526,0
3.884,-8.758,0
3.885,-24.322,0
3.886,-38.604,0
3.887,-34.392,0
3.888,-38.238,0
3.889,-41.717,0
3.89,-44.829,0
3.891,-47.759,0
3.892,-45.196,0
3.893,-33.111,0
3.894,-26.519,0
3.895,-24.505,0
3.896,-19.011,0
3.897,-17.364,0
3.898,-9.856,0
3.899,-11.138,0
3.9,-12.237,0
3.901,-8.941,0
3.902,-6.011,0
3.903,-3.264,0
3.904,-2.532,0
3.905,-3.264,0
3.906,0.031,0
3.907,0.581,0
3.908,0.031,0
3.909,2.412,0
3.91,9.37,0
3.911,24.568,0
3.912,31.159,0
3.913,13.032,0
3.914,5.891,0
3.915,-0.701,0
3.916,-6.743,0
3.917,-8.574,0
3.918,-10.222,0
3.919,-8.758,0
3.92,-10.039,0
3.921,-13.518,0
3.922,-14.617,0
3.923,-5.462,0
3.924,-8.941,0
3.925,-12.237,0
3.926,-11.321,0
3.927,-8.574,0
3.928,-3.997,0
3.929,8.454,0
3.93,28.596,0
3.931,58.076,0
3.932,77.668,0
3.933,81.147,0
3.934,38.85,0
3.935,-1.433,0
3.936,-27.617,0
3.937,-41.9,0
3.938,-46.111,0
3.939,-49.956,0
3.94,-46.477,0
3.941,-43.365,0
3.942,-40.435,0
3.943,-32.561,0
3.944,-30.181,0
3.945,-27.984,0
3.946,-21.941,0
3.947,-16.448,0
3.948,-14.8,0
3.949,-13.335,0
3.95,-12.053,0
3.951,-8.574,0
3.952,-5.279,0
3.953,-6.194,0
3.954,-5.279,0
3.955,-4.546,0
3.956,0.764,0
3.957,-1.067,0
3.958,2.046,0
3.959,3.694,0
3.96,6.074,0
3.961,7.356,0
3.962,3.51,0
3.963,4.792,0
3.964,6.074,0
3.965,7.173,0
3.966,2.229,0
3.967,1.679,0
3.968,-1.433,0
3.969,-3.081,0
3.97,-4.363,0
3.971,2.595,0
3.972,-0.335,0
3.973,-1.25,0
3.974,-0.518,0
3.975,3.327,0
3.976,2.778,0
3.977,3.327,0
3.978,3.144,0
3.979,-3.081,0
3.98,4.426,0
3.981,19.624,0
3.982,52.766,0
3.983,67.048,0
3.984,45.442,0
3.985,2.046,0
3.986,-15.166,0
3.987,-30.73,0
3.988,-35.491,0
3.989,-39.702,0
3.99,-35.857,0
3.991,-39.336,0
3.992,-36.223,0
3.993,-27.434,0
3.994,-24.871,0
3.995,-27.251,0
3.996,-25.054,0
3.997,-14.983,0
3.998,-16.814,0
3.999,-8.574,0
4,-10.039,0
4.001,-6.011,0
4.002,-7.11,0
4.003,-6.011,0
4.004,-1.067,0
4.005,-1.983,0
4.006,-1.25,0
4.007,0.947,0
4.008,1.496,0
4.009,-1.616,0
4.01,3.51,0
4.011,4.06,0
4.012,3.51,0
4.013,-0.335,0
4.014,-1.616,0
4.015,-1.983,0
4.016,-0.884,0
4.017,-3.448,0
4.018,-6.743,0
4.019,-3.997,0
4.02,-4.363,0
4.021,-2.532,0
4.022,-1.8,0
4.023,-0.518,0
4.024,-0.335,0
4.025,0.215,0
4.026,2.595,0
4.027,1.863,0
4.028,-0.701,0
4.029,0.947,0
4.03,2.046,0
4.031,6.623,0
4.032,16.877,0
4.033,39.399,0
4.034,75.105,0
4.035,60.823,0
4.036,21.821,0
4.037,-14.8,0
4.038,-29.082,0
4.039,-41.9,0
4.04,-45.745,0
4.041,-49.224,0
4.042,-39.702,0
4.043,-42.632,0
4.044,-34.759,0
4.045,-32.378,0
4.046,-30.181,0
4.047,-28.167,0
4.048,-22.674,0
4.049,-24.322,0
4.05,-16.814,0
4.051,-15.532,0
4.052,-12.053,0
4.053,-4.18,0
4.054,-1.25,0
4.055,-2.166,0
4.056,0.215,0
4.057,0.947,0
4.058,1.496,0
4.059,4.609,0
4.06,6.257,0
4.061,6.623,0
4.062,8.821,0
4.063,8.454,0
4.064,4.975,0
4.065,2.778,0
4.066,3.144,0
4.067,1.313,0
4.068,-1.25,0
4.069,-1.983,0
4.07,-2.715,0
4.071,-1.983,0
4.072,-0.518,0
4.073,2.778,0
4.074,9.736,0
4.075,24.934,0
4.076,58.076,0
4.077,43.794,0
4.078,4.792,0
4.079,-21.392,0
4.08,-32.744,0
4.081,-37.505,0
4.082,-33.294,0
4.083,-13.701,0
4.084,11.201,0
4.085,27.314,0
4.086,24.385,0
4.087,21.821,0
4.088,-9.856,0
4.089,-40.069,0
4.09,-51.787,0
4.091,-62.407,0
4.092,-59.295,0
4.093,-56.365,0
4.094,-48.491,0
4.095,-50.872,0
4.096,-44.28,0
4.097,-38.238,0
4.098,-29.082,0
4.099,-24.138,0
4.1,-19.744,0
4.101,-15.716,0
4.102,-9.673,0
4.103,-8.574,0
4.104,-5.645,0
4.105,-4.729,0
4.106,-3.997,0
4.107,-1.8,0
4.108,4.426,0
4.109,3.694,0
4.11,7.539,0
4.111,5.708,0
4.112,7.539,0
4.113,9.187,0
4.114,11.567,0
4.115,8.454,0
4.116,9.553,0
4.117,7.722,0
4.118,7.356,0
4.119,9.37,0
4.12,5.158,0
4.121,6.99,0
4.122,4.243,0
4.123,1.863,0
4.124,1.496,0
4.125,1.13,0
4.126,0.031,0
4.127,4.06,0
4.128,0.764,0
4.129,4.975,0
4.13,3.327,0
4.131,3.877,0
4.132,5.158,0
4.133,12.116,0
4.134,27.314,0
4.135,60.456,0
4.136,65.217,0
4.137,78.034,0
4.138,42.512,0
4.139,-0.518,0
4.14,-29.265,0
4.141,-34.392,0
4.142,-48.675,0
4.143,-52.886,0
4.144,-49.041,0
4.145,-45.562,0
4.146,-42.449,0
4.147,-39.519,0
4.148,-31.646,0
4.149,-29.265,0
4.15,-27.068,0
4.151,-21.026,0
4.152,-11.87,0
4.153,-6.927,0
4.154,-2.532,0
4.155,1.496,0
4.156,19.99,0
4.157,49.47,0
4.158,45.625,0
4.159,35.005,0
4.16,31.892,0
4.161,17.06,0
4.162,9.187,0
4.163,6.806,0
4.164,0.215,0
4.165,2.229,0
4.166,-3.264,0
4.167,-21.575,0
4.168,-28.716,0
4.169,-35.308,0
4.17,-45.379,0
4.171,-47.21,0
4.172,-55.449,0
4.173,-51.055,0
4.174,-38.787,0
4.175,-27.251,0
4.176,-31.646,0
4.177,-43.914,0
4.178,-55.449,0
4.179,-71.929,0
4.18,-96.282,0
4.181,-105.8,0
4.182,-122.1,0
4.183,-136.93,0
4.184,-123.56,0
4.185,-125.94,0
4.186,-92.803,0
4.187,-40.252,0
4.188,-47.21,0
4.189,-66.07,0
4.19,-60.393,0
4.191,7.905,0
4.192,91.95,0
4.193,125.64,0
4.194,135.9,0
4.195,126.56,0
4.196,101.29,0
4.197,78.218,0
4.198,71.26,0
4.199,77.485,0
4.2,60.273,0
4.201,65.4,0
4.202,89.204,0
4.203,119.42,0
4.204,131.13,0
4.205,134.61,0
4.206,131.5,0
4.207,116.67,0
4.208,108.8,0
4.209,106.42,0
4.21,99.824,0
4.211,85.725,0
4.212,58.259,0
4.213,38.667,0
4.214,35.188,0
4.215,38.301,0
4.216,35.371,0
4.217,22.004,0
4.218,9.919,0
4.219,-5.462,0
4.22,-7.476,0
4.221,-20.293,0
4.222,-28.533,0
4.223,-29.998,0
4.224,-34.026,0
4.225,-45.196,0
4.226,-55.633,0
4.227,-56.914,0
4.228,-55.816,0
4.229,-50.139,0
4.23,-59.295,0
4.231,-58.196,0
4.232,-63.872,0
4.233,-64.971,0
4.234,-65.886,0
4.235,-76.14,0
4.236,-55.633,0
4.237,-28.899,0
4.238,-11.138,0
4.239,4.975,0
4.24,7.905,0
4.241,-16.265,0
4.242,-58.562,0
4.243,-75.774,0
4.244,-91.338,0
4.245,-86.577,0
4.246,-90.789,0
4.247,-79.07,0
4.248,-75.591,0
4.249,-72.478,0
4.25,-63.689,0
4.251,-55.816,0
4.252,-48.675,0
4.253,-42.083,0
4.254,-36.04,0
4.255,-30.547,0
4.256,-22.307,0
4.257,-17.913,0
4.258,-13.885,0
4.259,-10.406,0
4.26,-2.532,0
4.261,4.426,0
4.262,9.004,0
4.263,8.271,0
4.264,7.539,0
4.265,9.37,0
4.266,9.919,0
4.267,11.567,0
4.268,11.933,0
4.269,12.3,0
4.27,14.314,0
4.271,13.948,0
4.272,14.314,0
4.273,10.285,0
4.274,13.032,0
4.275,11.75,0
4.276,11.384,0
4.277,11.75,0
4.278,10.652,0
4.279,13.948,0
4.28,11.201,0
4.281,12.3,0
4.282,8.271,0
4.283,8.637,0
4.284,6.806,0
4.285,3.694,0
4.286,9.919,0
4.287,23.835,0
4.288,54.048,0
4.289,66.865,0
4.29,86.457,0
4.291,61.555,0
4.292,19.258,0
4.293,-9.49,0
4.294,-25.054,0
4.295,-39.336,0
4.296,-43.548,0
4.297,-47.393,0
4.298,-50.872,0
4.299,-41.35,0
4.3,-38.421,0
4.301,-35.857,0
4.302,-28.716,0
4.303,-22.124,0
4.304,-20.11,0
4.305,-18.279,0
4.306,-16.631,0
4.307,-9.124,0
4.308,-5.095,0
4.309,-6.194,0
4.31,4.06,0
4.311,2.778,0
4.312,3.877,0
4.313,4.975,0
4.314,5.891,0
4.315,3.144,0
4.316,3.877,0
4.317,3.144,0
4.318,3.694,0
4.319,4.243,0
4.32,4.792,0
4.321,4.426,0
4.322,1.313,0
4.323,0.215,0
4.324,0.581,0
4.325,2.412,0
4.326,3.144,0
4.327,3.327,0
4.328,4.609,0
4.329,4.06,0
4.33,0.764,0
4.331,4.975,0
4.332,1.13,0
4.333,-0.152,0
4.334,-5.279,0
4.335,-1.25,0
4.336,2.046,0
4.337,10.285,0
4.338,18.159,0
4.339,33.357,0
4.34,57.71,0
4.341,60.823,0
4.342,75.654,0
4.343,73.091,0
4.344,36.653,0
4.345,-21.026,0
4.346,-44.097,0
4.347,-51.055,0
4.348,-57.281,0
4.349,-62.957,0
4.35,-57.83,0
4.351,-53.069,0
4.352,-48.858,0
4.353,-52.703,0
4.354,-42.083,0
4.355,-38.97,0
4.356,-30.181,0
4.357,-32.744,0
4.358,-25.603,0
4.359,-19.011,0
4.36,-12.969,0
4.361,-7.476,0
4.362,-5.828,0
4.363,-4.363,0
4.364,-3.081,0
4.365,0.398,0
4.366,1.496,0
4.367,4.426,0
4.368,9.004,0
4.369,3.327,0
4.37,7.173,0
4.371,5.342,0
4.372,2.229,0
4.373,2.778,0
4.374,2.412,0
4.375,3.694,0
4.376,7.539,0
4.377,7.905,0
4.378,5.708,0
4.379,8.454,0
4.38,2.778,0
4.381,-1.25,0
4.382,-0.518,0
4.383,1.313,0
4.384,3.144,0
4.385,4.792,0
4.386,0.215,0
4.387,0.581,0
4.388,7.539,0
4.389,22.737,0
4.39,47.09,0
4.391,56.611,0
4.392,77.302,0
4.393,58.625,0
4.394,22.187,0
4.395,-14.434,0
4.396,-28.716,0
4.397,-41.533,0
4.398,-45.379,0
4.399,-48.858,0
4.4,-51.97,0
4.401,-43.181,0
4.402,-19.011,0
4.403,-2.898,0
4.404,-17.73,0
4.405,-31.096,0
4.406,-23.955,0
4.407,-30.547,0
4.408,-24.505,0
4.409,-26.336,0
4.41,-24.688,0
4.411,-20.293,0
4.412,-13.518,0
4.413,-12.42,0
4.414,-4.546,0
4.415,-5.462,0
4.416,-0.884,0
4.417,-1.616,0
4.418,-3.814,0
4.419,-3.264,0
4.42,-3.814,0
4.421,-1.067,0
4.422,0.215,0
4.423,5.342,0
4.424,3.51,0
4.425,2.961,0
4.426,8.088,0
4.427,7.539,0
4.428,9.37,0
4.429,5.525,0
4.43,8.821,0
4.431,9.187,0
4.432,11.201,0
4.433,5.525,0
4.434,3.144,0
4.435,2.412,0
4.436,4.243,0
4.437,5.342,0
4.438,2.229,0
4.439,10.652,0
4.44,29.145,0
4.441,64.118,0
4.442,78.401,0
4.443,56.794,0
4.444,13.398,0
4.445,-15.349,0
4.446,-20.476,0
4.447,-34.759,0
4.448,-38.97,0
4.449,-35.125,0
4.45,-38.604,0
4.451,-41.717,0
4.452,-32.927,0
4.453,-30.364,0
4.454,-27.984,0
4.455,-25.786,0
4.456,-19.744,0
4.457,-17.913,0
4.458,-19.561,0
4.459,-15.166,0
4.46,-8.391,0
4.461,-7.293,0
4.462,-3.997,0
4.463,-4.912,0
4.464,-2.166,0
4.465,-1.433,0
4.466,-5.279,0
4.467,-5.828,0
4.468,-2.715,0
4.469,-2.166,0
4.47,0.215,0
4.471,-1.983,0
4.472,0.764,0
4.473,1.13,0
4.474,0.031,0
4.475,1.496,0
4.476,-0.335,0
4.477,3.144,0
4.478,3.51,0
4.479,8.088,0
4.48,9.919,0
4.481,4.792,0
4.482,5.342,0
4.483,2.229,0
4.484,-0.518,0
4.485,-0.152,0
4.486,-0.518,0
4.487,-1.616,0
4.488,-4.912,0
4.489,-4.546,0
4.49,0.947,0
4.491,12.483,0
4.492,37.385,0
4.493,62.287,0
4.494,65.4,0
4.495,50.569,0
4.496,15.595,0
4.497,-17.73,0
4.498,-30.547,0
4.499,-42.266,0
4.5,-52.886,0
4.501,-55.999,0
4.502,-53.069,0
4.503,-39.702,0
4.504,-37.322,0
4.505,-39.519,0
4.506,-29.448,0
4.507,-27.617,0
4.508,-25.969,0
4.509,-24.505,0
4.51,-14.983,0
4.511,-11.504,0
4.512,-14.8,0
4.513,-9.856,0
4.514,-3.448,0
4.515,-1.067,0
4.516,-0.335,0
4.517,-2.166,0
4.518,-0.335,0
4.519,-0.884,0
4.52,2.412,0
4.521,2.046,0
4.522,3.144,0
4.523,0.581,0
4.524,-0.518,0
4.525,1.496,0
4.526,4.609,0
4.527,3.51,0
4.528,6.99,0
4.529,5.708,0
4.53,5.342,0
4.531,1.863,0
4.532,0.581,0
4.533,-1.433,0
4.534,2.046,0
4.535,0.764,0
4.536,0.398,0
4.537,1.496,0
4.538,-1.8,0
4.539,-4.912,0
4.54,-0.335,0
4.541,6.623,0
4.542,18.708,0
4.543,43.611,0
4.544,75.837,0
4.545,80.049,0
4.546,36.653,0
4.547,-3.631,0
4.548,-19.195,0
4.549,-33.477,0
4.55,-37.688,0
4.551,-41.533,0
4.552,-45.012,0
4.553,-41.9,0
4.554,-38.97,0
4.555,-36.406,0
4.556,-29.265,0
4.557,-27.068,0
4.558,-25.054,0
4.559,-19.561,0
4.56,-24.505,0
4.561,-20.11,0
4.562,-13.335,0
4.563,-9.856,0
4.564,-6.56,0
4.565,-3.631,0
4.566,-2.715,0
4.567,-1.983,0
4.568,1.863,0
4.569,0.031,0
4.57,-0.518,0
4.571,3.327,0
4.572,3.694,0
4.573,5.891,0
4.574,3.144,0
4.575,0.581,0
4.576,2.412,0
4.577,-0.335,0
4.578,0.031,0
4.579,1.863,0
4.58,5.158,0
4.581,4.792,0
4.582,2.046,0
4.583,1.679,0
4.584,2.778,0
4.585,0.764,0
4.586,0.031,0
4.587,-1.8,0
4.588,0.764,0
4.589,-0.335,0
4.59,-2.715,0
4.591,1.863,0
4.592,6.44,0
4.593,15.962,0
4.594,36.469,0
4.595,80.964,0
4.596,62.104,0
4.597,21.821,0
4.598,-14.8,0
4.599,-29.082,0
4.6,-41.9,0
4.601,-38.054,0
4.602,-41.533,0
4.603,-44.646,0
4.604,-41.717,0
4.605,-33.843,0
4.606,-31.463,0
4.607,-24.871,0
4.608,-22.857,0
4.609,-17.364,0
4.61,-19.011,0
4.611,-14.617,0
4.612,-10.589,0
4.613,-7.11,0
4.614,-3.814,0
4.615,-4.729,0
4.616,-1.983,0
4.617,-1.25,0
4.618,-0.518,0
4.619,-3.814,0
4.62,-1.983,0
4.621,0.764,0
4.622,1.13,0
4.623,1.496,0
4.624,0.398,0
4.625,4.609,0
4.626,0.764,0
4.627,-1.616,0
4.628,-1.25,0
4.629,4.243,0
4.63,6.44,0
4.631,3.144,0
4.632,1.313,0
4.633,-3.814,0
4.634,0.764,0
4.635,-3.631,0
4.636,1.496,0
4.637,2.046,0
4.638,1.496,0
4.639,-0.152,0
4.64,-3.448,0
4.641,-5.645,0
4.642,-6.011,0
4.643,-3.264,0
4.644,2.412,0
4.645,0.031,0
4.646,-0.701,0
4.647,9.553,0
4.648,32.075,0
4.649,35.188,0
4.65,8.454,0
4.651,4.975,0
4.652,27.497,0
4.653,36.286,0
4.654,54.963,0
4.655,62.104,0
4.656,33.357,0
4.657,-10.039,0
4.658,-38.787,0
4.659,-54.351,0
4.66,-59.112,0
4.661,-63.323,0
4.662,-59.478,0
4.663,-48.858,0
4.664,-51.97,0
4.665,-49.041,0
4.666,-41.167,0
4.667,-34.026,0
4.668,-31.829,0
4.669,-25.786,0
4.67,-16.631,0
4.671,-14.983,0
4.672,-10.589,0
4.673,-9.307,0
4.674,-5.828,0
4.675,-6.927,0
4.676,-1.983,0
4.677,-1.067,0
4.678,2.961,0
4.679,5.158,0
4.68,8.454,0
4.681,4.06,0
4.682,10.285,0
4.683,7.905,0
4.684,5.708,0
4.685,3.877,0
4.686,4.426,0
4.687,2.778,0
4.688,5.158,0
4.689,6.44,0
4.69,3.694,0
4.691,2.595,0
4.692,-1.25,0
4.693,1.313,0
4.694,5.891,0
4.695,16.145,0
4.696,38.667,0
4.697,74.372,0
4.698,88.655,0
4.699,67.048,0
4.7,15.779,0
4.701,-19.195,0
4.702,-38.054,0
4.703,-43.731,0
4.704,-48.858,0
4.705,-44.097,0
4.706,-48.308,0
4.707,-44.463,0
4.708,-40.984,0
4.709,-37.871,0
4.71,-29.082,0
4.711,-21.209,0
4.712,-23.589,0
4.713,-16.997,0
4.714,-10.955,0
4.715,-12.786,0
4.716,-11.138,0
4.717,-6.743,0
4.718,-8.025,0
4.719,-4.546,0
4.72,-1.25,0
4.721,-0.335,0
4.722,0.581,0
4.723,-0.152,0
4.724,2.046,0
4.725,3.877,0
4.726,5.708,0
4.727,4.06,0
4.728,6.44,0
4.729,5.158,0
4.73,9.004,0
4.731,6.623,0
4.732,2.412,0
4.733,0.764,0
4.734,-0.518,0
4.735,-2.715,0
4.736,0.031,0
4.737,0.398,0
4.738,-0.701,0
4.739,0.764,0
4.74,-0.518,0
4.741,-3.448,0
4.742,-5.279,0
4.743,-4.912,0
4.744,0.581,0
4.745,12.116,0
4.746,23.652,0
4.747,46.174,0
4.748,55.696,0
4.749,64.485,0
4.75,72.358,0
4.751,65.217,0
4.752,32.075,0
4.753,-20.476,0
4.754,-41.35,0
4.755,-60.21,0
4.756,-65.886,0
4.757,-60.76,0
4.758,-65.52,0
4.759,-52.703,0
4.76,-48.858,0
4.761,-45.379,0
4.762,-35.857,0
4.763,-32.927,0
4.764,-25.054,0
4.765,-17.913,0
4.766,-15.716,0
4.767,-13.701,0
4.768,-11.87,0
4.769,-10.222,0
4.77,-5.828,0
4.771,-4.546,0
4.772,-1.067,0
4.773,0.031,0
4.774,2.961,0
4.775,2.046,0
4.776,6.074,0
4.777,5.342,0
4.778,3.51,0
4.779,7.905,0
4.78,8.454,0
4.781,8.821,0
4.782,6.623,0
4.783,6.257,0
4.784,6.623,0
4.785,4.06,0
4.786,4.792,0
4.787,2.229,0
4.788,2.595,0
4.789,1.13,0
4.79,3.694,0
4.791,-1.067,0
4.792,0.764,0
4.793,0.215,0
4.794,3.144,0
4.795,3.51,0
4.796,10.469,0
4.797,25.666,0
4.798,54.414,0
4.799,58.259,0
4.8,76.02,0
4.801,72.907,0
4.802,34.272,0
4.803,-12.969,0
4.804,-31.829,0
4.805,-49.041,0
4.806,-54.168,0
4.807,-49.407,0
4.808,-53.618,0
4.809,-49.773,0
4.81,-53.252,0
4.811,-43.731,0
4.812,-40.801,0
4.813,-27.434,0
4.814,-25.054,0
4.815,-14.068,0
4.816,-20.11,0
4.817,-14.617,0
4.818,-16.265,0
4.819,-14.8,0
4.82,-8.025,0
4.821,-4.546,0
4.822,-1.25,0
4.823,1.679,0
4.824,0.764,0
4.825,1.496,0
4.826,2.229,0
4.827,2.778,0
4.828,4.609,0
4.829,7.356,0
4.83,6.074,0
4.831,2.961,0
4.832,4.975,0
4.833,3.144,0
4.834,4.243,0
4.835,0.215,0
4.836,2.961,0
4.837,1.679,0
4.838,2.961,0
4.839,0.215,0
4.84,-2.349,0
4.841,-1.983,0
4.842,-3.997,0
4.843,0.215,0
4.844,0.764,0
4.845,-0.518,0
4.846,3.327,0
4.847,10.835,0
4.848,27.864,0
4.849,49.836,0
4.85,64.668,0
4.851,83.344,0
4.852,56.611,0
4.853,10.102,0
4.854,-21.575,0
4.855,-38.787,0
4.856,-43.914,0
4.857,-58.196,0
4.858,-53.985,0
4.859,-50.139,0
4.86,-46.66,0
4.861,-43.548,0
4.862,-40.618,0
4.863,-32.744,0
4.864,-30.364,0
4.865,-23.772,0
4.866,-17.73,0
4.867,-15.899,0
4.868,-14.251,0
4.869,-6.743,0
4.87,-2.715,0
4.871,-1.616,0
4.872,1.679,0
4.873,4.609,0
4.874,1.863,0
4.875,4.243,0
4.876,3.51,0
4.877,4.06,0
4.878,-0.335,0
4.879,3.51,0
4.88,3.144,0
4.881,4.426,0
4.882,4.792,0
4.883,2.229,0
4.884,-1.8,0
4.885,5.708,0
4.886,4.609,0
4.887,-0.335,0
4.888,2.412,0
4.889,-1.616,0
4.89,3.694,0
4.891,1.863,0
4.892,1.313,0
4.893,9.736,0
4.894,28.23,0
4.895,36.103,0
4.896,17.793,0
4.897,5.708,0
4.898,-5.279,0
4.899,-7.293,0
4.9,1.863,0
4.901,26.765,0
4.902,58.991,0
4.903,63.203,0
4.904,35.737,0
4.905,-3.631,0
4.906,-29.815,0
4.907,-44.097,0
4.908,-48.308,0
4.909,-52.154,0
4.91,-48.675,0
4.911,-45.562,0
4.912,-36.773,0
4.913,-34.209,0
4.914,-31.829,0
4.915,-25.237,0
4.916,-27.251,0
4.917,-21.758,0
4.918,-20.11,0
4.919,-15.716,0
4.92,-11.687,0
4.921,-8.208,0
4.922,-7.11,0
4.923,-2.166,0
4.924,-6.743,0
4.925,-4.363,0
4.926,-0.518,0
4.927,-1.067,0
4.928,2.046,0
4.929,2.595,0
4.93,-0.701,0
4.931,1.496,0
4.932,-0.518,0
4.933,2.961,0
4.934,3.327,0
4.935,0.581,0
4.936,0.215,0
4.937,1.313,0
4.938,-0.701,0
4.939,3.51,0
4.94,2.961,0
4.941,-3.264,0
4.942,0.764,0
4.943,1.496,0
4.944,-3.081,0
4.945,-2.532,0
4.946,3.694,0
4.947,0.215,0
4.948,0.947,0
4.949,12.483,0
4.95,27.497,0
4.951,45.625,0
4.952,57.71,0
4.953,73.091,0
4.954,71.076,0
4.955,43.611,0
4.956,-15.532,0
4.957,-40.801,0
4.958,-48.491,0
4.959,-55.449,0
4.96,-49.224,0
4.961,-54.9,0
4.962,-49.773,0
4.963,-45.012,0
4.964,-40.801,0
4.965,-36.956,0
4.966,-26.336,0
4.967,-23.223,0
4.968,-20.293,0
4.969,-17.73,0
4.97,-10.589,0
4.971,-8.391,0
4.972,-6.377,0
4.973,-4.546,0
4.974,-2.898,0
4.975,-4.363,0
4.976,-3.081,0
4.977,0.398,0
4.978,-0.701,0
4.979,0.215,0
4.98,6.623,0
4.981,5.891,0
4.982,5.158,0
4.983,3.327,0
4.984,1.496,0
4.985,-1.25,0
4.986,2.046,0
4.987,4.243,0
4.988,2.229,0
4.989,4.06,0
4.99,5.158,0
4.991,4.426,0
4.992,6.99,0
4.993,7.356,0
4.994,11.933,0
4.995,8.637,0
4.996,9.187,0
4.997,10.835,0
4.998,16.328,0
4.999,21.821,0
5,33.357,0
5.001,54.963,0
5.002,75.654,0
5.003,99.824,0
5.004,90.302,0
5.005,45.808,0
5.006,14.131,0
5.007,-14.617,0
5.008,-40.801,0
5.009,-55.083,0
5.01,-76.69,0
5.011,-80.535,0
5.012,-91.155,0
5.013,-88.042,0
5.014,-79.253,0
5.015,-60.576,0
5.016,-53.435,0
5.017,-60.027,0
5.018,-74.126,0
5.019,-86.944,0
5.02,-105.25,0
5.021,-127.23,0
5.022,-142.06,0
5.023,-139.5,0
5.024,-151.58,0
5.025,-162.57,0
5.026,-156.52,0
5.027,-140.04,0
5.028,-124.66,0
5.029,-102.51,0
5.03,-81.817,0
5.031,-41.533,0
5.032,33.54,0
5.033,126.01,0
5.034,163.36,0
5.035,174.53,0
5.036,143.77,0
5.037,134.43,0
5.038,126.01,0
5.039,118.32,0
5.04,125.28,0
5.041,131.5,0
5.042,137.18,0
5.043,163.36,0
5.044,177.64,0
5.045,190.46,0
5.046,186.62,0
5.047,168.85,0
5.048,152.74,0
5.049,134.98,0
5.05,120.15,0
5.051,101.47,0
5.052,89.387,0
5.053,109.34,0
5.054,111.91,0
5.055,75.471,0
5.056,28.23,0
5.057,-3.448,0
5.058,-32.195,0
5.059,-47.759,0
5.06,-52.52,0
5.061,-65.337,0
5.062,-77.056,0
5.063,-73.577,0
5.064,-76.69,0
5.065,-85.479,0
5.066,-88.042,0
5.067,-85.662,0
5.068,-79.07,0
5.069,-77.056,0
5.07,-78.887,0
5.071,-73.943,0
5.072,-81.45,0
5.073,-80.169,0
5.074,-83.648,0
5.075,-80.352,0
5.076,-77.422,0
5.077,-71.013,0
5.078,-70.281,0
5.079,-64.971,0
5.08,-58.745,0
5.081,-54.717,0
5.082,-52.52,0
5.083,-54.351,0
5.084,-48.675,0
5.085,-41.717,0
5.086,-35.308,0
5.087,-31.28,0
5.088,-30.547,0
5.089,-25.969,0
5.09,-22.857,0
5.091,-19.011,0
5.092,-18.645,0
5.093,-13.518,0
5.094,-10.222,0
5.095,-10.772,0
5.096,-6.927,0
5.097,-2.349,0
5.098,-0.518,0
5.099,1.13,0
5.1,6.074,0
5.101,0.581,0
5.102,12.116,0
5.103,33.723,0
5.104,72.358,0
5.105,77.485,0
5.106,82.246,0
5.107,52.033,0
5.108,8.637,0
5.109,-20.11,0
5.11,-25.237,0
5.111,-39.519,0
5.112,-35.308,0
5.113,-39.153,0
5.114,-35.674,0
5.115,-32.561,0
5.116,-35.491,0
5.117,-27.617,0
5.118,-20.476,0
5.119,-13.885,0
5.12,-15.899,0
5.121,-10.406,0
5.122,-12.053,0
5.123,-1.616,0
5.124,-2.898,0
5.125,-1.8,0
5.126,1.496,0
5.127,2.412,0
5.128,5.158,0
5.129,5.891,0
5.13,6.623,0
5.131,9.919,0
5.132,9.37,0
5.133,9.919,0
5.134,6.623,0
5.135,6.99,0
5.136,7.356,0
5.137,8.454,0
5.138,8.088,0
5.139,12.666,0
5.14,22.92,0
5.141,30.427,0
5.142,12.666,0
5.143,5.525,0
5.144,-5.462,0
5.145,-3.448,0
5.146,-8.941,0
5.147,-10.589,0
5.148,-9.124,0
5.149,-10.406,0
5.15,-9.307,0
5.151,-7.11,0
5.152,-3.814,0
5.153,11.384,0
5.154,17.976,0
5.155,48.188,0
5.156,69.795,0
5.157,73.64,0
5.158,41.413,0
5.159,2.412,0
5.16,-23.772,0
5.161,-28.533,0
5.162,-32.744,0
5.163,-36.59,0
5.164,-40.069,0
5.165,-36.956,0
5.166,-39.885,0
5.167,-37.322,0
5.168,-30.181,0
5.169,-27.984,0
5.17,-21.941,0
5.171,-16.448,0
5.172,-11.504,0
5.173,-15.899,0
5.174,-14.617,0
5.175,-8.574,0
5.176,-7.476,0
5.177,-8.391,0
5.178,-1.983,0
5.179,-1.25,0
5.18,4.06,0
5.181,3.51,0
5.182,5.342,0
5.183,2.595,0
5.184,3.877,0
5.185,4.243,0
5.186,4.609,0
5.187,3.51,0
5.188,7.539,0
5.189,7.905,0
5.19,1.863,0
5.191,1.13,0
5.192,-1.067,0
5.193,2.229,0
5.194,-0.884,0
5.195,-0.335,0
5.196,2.046,0
5.197,-2.166,0
5.198,0.581,0
5.199,-0.701,0
5.2,-1.983,0
5.201,-0.884,0
5.202,-1.983,0
5.203,0.581,0
5.204,6.074,0
5.205,17.61,0
5.206,42.512,0
5.207,60.273,0
5.208,76.386,0
5.209,55.696,0
5.21,15.412,0
5.211,-13.335,0
5.212,-39.519,0
5.213,-44.28,0
5.214,-48.491,0
5.215,-52.337,0
5.216,-48.858,0
5.217,-45.745,0
5.218,-42.815,0
5.219,-40.252,0
5.22,-37.871,0
5.221,-31.28,0
5.222,-25.237,0
5.223,-19.744,0
5.224,-14.8,0
5.225,-16.265,0
5.226,-9.49,0
5.227,-10.589,0
5.228,-9.49,0
5.229,-6.56,0
5.23,-1.983,0
5.231,-1.25,0
5.232,-0.518,0
5.233,2.778,0
5.234,2.229,0
5.235,7.356,0
5.236,5.525,0
5.237,4.975,0
5.238,1.13,0
5.239,3.51,0
5.24,2.229,0
5.241,1.13,0
5.242,-2.349,0
5.243,0.764,0
5.244,0.398,0
5.245,0.764,0
5.246,-3.264,0
5.247,-3.631,0
5.248,-2.349,0
5.249,-0.335,0
5.25,-3.814,0
5.251,-1.616,0
5.252,1.13,0
5.253,2.412,0
5.254,3.51,0
5.255,9.004,0
5.256,20.539,0
5.257,45.442,0
5.258,70.344,0
5.259,79.865,0
5.26,59.175,0
5.261,18.891,0
5.262,-9.856,0
5.263,-25.42,0
5.264,-39.702,0
5.265,-52.52,0
5.266,-48.675,0
5.267,-45.196,0
5.268,-42.083,0
5.269,-39.153,0
5.27,-36.59,0
5.271,-24.505,0
5.272,-22.307,0
5.273,-24.322,0
5.274,-18.828,0
5.275,-13.885,0
5.276,-12.42,0
5.277,-11.138,0
5.278,-7.659,0
5.279,-6.56,0
5.28,0.398,0
5.281,-0.518,0
5.282,0.215,0
5.283,-0.518,0
5.284,-2.349,0
5.285,3.327,0
5.286,5.525,0
5.287,2.229,0
5.288,0.398,0
5.289,2.046,0
5.29,1.679,0
5.291,5.891,0
5.292,5.342,0
5.293,4.06,0
5.294,0.947,0
5.295,1.313,0
5.296,4.792,0
5.297,1.679,0
5.298,-0.335,0
5.299,0.031,0
5.3,-3.264,0
5.301,-3.631,0
5.302,-1.067,0
5.303,-3.631,0
5.304,-3.448,0
5.305,-5.462,0
5.306,-1.25,0
5.307,8.271,0
5.308,28.779,0
5.309,43.611,0
5.31,62.287,0
5.311,69.428,0
5.312,45.075,0
5.313,-3.631,0
5.314,-24.505,0
5.315,-43.365,0
5.316,-49.041,0
5.317,-43.914,0
5.318,-48.675,0
5.319,-52.886,0
5.32,-41.167,0
5.321,-44.646,0
5.322,-35.125,0
5.323,-32.195,0
5.324,-29.632,0
5.325,-22.49,0
5.326,-20.293,0
5.327,-18.279,0
5.328,-9.124,0
5.329,-14.068,0
5.33,-9.673,0
5.331,-5.645,0
5.332,-4.546,0
5.333,-3.448,0
5.334,-0.518,0
5.335,5.891,0
5.336,6.623,0
5.337,4.426,0
5.338,4.975,0
5.339,1.863,0
5.34,3.51,0
5.341,2.229,0
5.342,1.863,0
5.343,6.44,0
5.344,3.327,0
5.345,1.679,0
5.346,2.961,0
5.347,1.679,0
5.348,4.426,0
5.349,3.327,0
5.35,3.694,0
5.351,4.426,0
5.352,4.609,0
5.353,4.792,0
5.354,3.694,0
5.355,0.947,0
5.356,3.327,0
5.357,7.905,0
5.358,18.159,0
5.359,40.681,0
5.36,69.978,0
5.361,81.697,0
5.362,49.47,0
5.363,1.863,0
5.364,-29.815,0
5.365,-35.491,0
5.366,-51.055,0
5.367,-55.816,0
5.368,-51.604,0
5.369,-47.759,0
5.37,-44.28,0
5.371,-41.167,0
5.372,-38.238,0
5.373,-35.674,0
5.374,-28.533,0
5.375,-21.941,0
5.376,-15.899,0
5.377,-10.406,0
5.378,-8.758,0
5.379,-7.293,0
5.38,-3.264,0
5.381,-2.166,0
5.382,-3.264,0
5.383,-4.18,0
5.384,4.243,0
5.385,21.272,0
5.386,38.117,0
5.387,13.764,0
5.388,4.243,0
5.389,-4.546,0
5.39,-7.11,0
5.391,-9.49,0
5.392,-11.687,0
5.393,-13.701,0
5.394,-11.87,0
5.395,-13.518,0
5.396,-14.983,0
5.397,-10.955,0
5.398,-7.476,0
5.399,-4.18,0
5.4,-7.11,0
5.401,-2.532,0
5.402,-3.264,0
5.403,0.581,0
5.404,-3.997,0
5.405,-2.166,0
5.406,-0.518,0
5.407,-3.264,0
5.408,4.243,0
5.409,21.272,0
5.41,57.71,0
5.411,73.274,0
5.412,39.948,0
5.413,0.947,0
5.414,-14.617,0
5.415,-28.899,0
5.416,-33.111,0
5.417,-36.956,0
5.418,-26.336,0
5.419,-29.448,0
5.42,-26.519,0
5.421,-29.082,0
5.422,-21.941,0
5.423,-19.744,0
5.424,-17.73,0
5.425,-12.237,0
5.426,-10.589,0
5.427,-9.124,0
5.428,-7.842,0
5.429,-6.743,0
5.43,-3.448,0
5.431,-4.363,0
5.432,-3.448,0
5.433,-5.828,0
5.434,-3.631,0
5.435,-3.081,0
5.436,-2.532,0
5.437,-3.081,0
5.438,-2.715,0
5.439,-2.349,0
5.44,-3.448,0
5.441,-0.884,0
5.442,0.947,0
5.443,-0.518,0
5.444,-2.349,0
5.445,-1.067,0
5.446,1.13,0
5.447,5.342,0
5.448,0.947,0
5.449,1.496,0
5.45,-0.884,0
5.451,3.327,0
5.452,0.581,0
5.453,0.947,0
5.454,-0.335,0
5.455,-3.081,0
5.456,-1.25,0
5.457,-0.518,0
5.458,-1.616,0
5.459,2.961,0
5.46,4.792,0
5.461,14.314,0
5.462,34.822,0
5.463,55.512,0
5.464,52.949,0
5.465,50.569,0
5.466,61.555,0
5.467,43.427,0
5.468,6.99,0
5.469,-40.252,0
5.47,-59.112,0
5.471,-64.788,0
5.472,-69.915,0
5.473,-74.676,0
5.474,-70.464,0
5.475,-58.745,0
5.476,-55.266,0
5.477,-45.745,0
5.478,-42.815,0
5.479,-34.942,0
5.48,-27.801,0
5.481,-25.603,0
5.482,-19.561,0
5.483,-21.392,0
5.484,-13.152,0
5.485,-8.758,0
5.486,-4.729,0
5.487,-5.828,0
5.488,-0.152,0
5.489,6.806,0
5.49,7.722,0
5.491,6.99,0
5.492,9.187,0
5.493,13.764,0
5.494,9.37,0
5.495,9.919,0
5.496,10.285,0
5.497,9.919,0
5.498,11.018,0
5.499,9.187,0
5.5,5.891,0
5.501,9.736,0
5.502,4.243,0
5.503,4.975,0
5.504,5.525,0
5.505,7.356,0
5.506,4.609,0
5.507,6.99,0
5.508,4.609,0
5.509,1.496,0
5.51,7.722,0
5.511,21.638,0
5.512,51.85,0
5.513,73.457,0
5.514,77.302,0
5.515,45.075,0
5.516,-2.532,0
5.517,-21.392,0
5.518,-38.604,0
5.519,-43.731,0
5.52,-48.491,0
5.521,-52.703,0
5.522,-48.858,0
5.523,-38.238,0
5.524,-41.35,0
5.525,-38.421,0
5.526,-30.547,0
5.527,-23.406,0
5.528,-21.209,0
5.529,-15.166,0
5.53,-13.335,0
5.531,-8.391,0
5.532,-6.927,0
5.533,-0.152,0
5.534,-3.631,0
5.535,-2.532,0
5.536,0.398,0
5.537,-0.518,0
5.538,5.158,0
5.539,2.961,0
5.54,3.51,0
5.541,0.398,0
5.542,4.243,0
5.543,0.947,0
5.544,4.06,0
5.545,3.694,0
5.546,4.06,0
5.547,5.891,0
5.548,1.313,0
5.549,1.863,0
5.55,-2.532,0
5.551,-1.983,0
5.552,-0.701,0
5.553,-1.067,0
5.554,-4.912,0
5.555,-1.616,0
5.556,-2.898,0
5.557,-0.884,0
5.558,-1.25,0
5.559,-0.518,0
5.56,0.581,0
5.561,5.158,0
5.562,15.412,0
5.563,37.934,0
5.564,73.64,0
5.565,78.401,0
5.566,48.188,0
5.567,-3.081,0
5.568,-23.955,0
5.569,-42.815,0
5.57,-48.491,0
5.571,-53.618,0
5.572,-48.858,0
5.573,-44.646,0
5.574,-40.801,0
5.575,-37.322,0
5.576,-34.209,0
5.577,-25.42,0
5.578,-22.857,0
5.579,-20.476,0
5.58,-18.279,0
5.581,-16.265,0
5.582,-14.434,0
5.583,-9.49,0
5.584,-1.983,0
5.585,-6.011,0
5.586,-2.532,0
5.587,-3.631,0
5.588,-0.701,0
5.589,3.877,0
5.59,-0.152,0
5.591,0.581,0
5.592,5.158,0
5.593,3.327,0
5.594,2.778,0
5.595,0.398,0
5.596,5.525,0
5.597,6.074,0
5.598,0.398,0
5.599,1.13,0
5.6,-2.166,0
5.601,-1.616,0
5.602,0.031,0
5.603,-1.25,0
5.604,-3.448,0
5.605,-1.433,0
5.606,-1.067,0
5.607,1.496,0
5.608,0.764,0
5.609,0.947,0
5.61,2.412,0
5.611,-1.067,0
5.612,5.891,0
5.613,21.089,0
5.614,54.231,0
5.615,78.034,0
5.616,73.823,0
5.617,38.301,0
5.618,-4.729,0
5.619,-21.941,0
5.62,-37.505,0
5.621,-42.266,0
5.622,-46.477,0
5.623,-42.632,0
5.624,-39.153,0
5.625,-42.266,0
5.626,-33.477,0
5.627,-30.913,0
5.628,-28.533,0
5.629,-26.336,0
5.63,-12.237,0
5.631,11.567,0
5.632,21.089,0
5.633,0.398,0
5.634,-7.476,0
5.635,-14.617,0
5.636,-12.42,0
5.637,-14.434,0
5.638,-16.265,0
5.639,-11.321,0
5.64,-9.856,0
5.641,-13.885,0
5.642,-7.842,0
5.643,-11.138,0
5.644,-4.18,0
5.645,-6.927,0
5.646,-1.25,0
5.647,0.947,0
5.648,1.496,0
5.649,-1.616,0
5.65,0.031,0
5.651,1.313,0
5.652,3.51,0
5.653,1.496,0
5.654,7.173,0
5.655,7.905,0
5.656,7.173,0
5.657,2.595,0
5.658,2.046,0
5.659,2.595,0
5.66,-1.983,0
5.661,-3.448,0
5.662,-2.898,0
5.663,5.525,0
5.664,24.018,0
5.665,58.991,0
5.666,82.795,0
5.667,61.189,0
5.668,25.666,0
5.669,-7.659,0
5.67,-29.265,0
5.671,-33.111,0
5.672,-43.731,0
5.673,-40.618,0
5.674,-43.548,0
5.675,-35.674,0
5.676,-38.054,0
5.677,-27.068,0
5.678,-29.082,0
5.679,-27.251,0
5.68,-19.011,0
5.681,-17.547,0
5.682,-16.265,0
5.683,-12.786,0
5.684,-9.49,0
5.685,-10.406,0
5.686,-5.828,0
5.687,-1.8,0
5.688,-2.532,0
5.689,-1.983,0
5.69,3.694,0
5.691,1.496,0
5.692,-0.335,0
5.693,1.496,0
5.694,2.046,0
5.695,3.327,0
5.696,2.046,0
5.697,4.792,0
5.698,5.891,0
5.699,2.595,0
5.7,1.496,0
5.701,-4.18,0
5.702,-3.448,0
5.703,-1.25,0
5.704,-1.8,0
5.705,-2.349,0
5.706,-0.701,0
5.707,-1.983,0
5.708,-1.616,0
5.709,-1.25,0
5.71,-2.349,0
5.711,-1.983,0
5.712,0.215,0
5.713,-1.25,0
5.714,2.961,0
5.715,12.483,0
5.716,32.99,0
5.717,77.485,0
5.718,58.625,0
5.719,18.342,0
5.72,-7.842,0
5.721,-31.646,0
5.722,-35.857,0
5.723,-39.702,0
5.724,-43.181,0
5.725,-40.069,0
5.726,-37.139,0
5.727,-34.575,0
5.728,-32.195,0
5.729,-29.998,0
5.73,-23.955,0
5.731,-22.124,0
5.732,-20.476,0
5.733,-16.082,0
5.734,-14.8,0
5.735,-13.701,0
5.736,-10.406,0
5.737,-9.49,0
5.738,-8.574,0
5.739,-7.842,0
5.74,-2.532,0
5.741,3.694,0
5.742,6.074,0
5.743,3.877,0
5.744,5.708,0
5.745,5.158,0
5.746,3.51,0
5.747,2.229,0
5.748,2.595,0
5.749,2.961,0
5.75,1.13,0
5.751,5.158,0
5.752,8.454,0
5.753,2.412,0
5.754,1.679,0
5.755,2.412,0
5.756,1.863,0
5.757,-2.532,0
5.758,0.215,0
5.759,0.581,0
5.76,4.792,0
5.761,2.046,0
5.762,2.412,0
5.763,3.877,0
5.764,2.595,0
5.765,8.821,0
5.766,22.737,0
5.767,52.949,0
5.768,74.555,0
5.769,62.837,0
5.77,23.469,0
5.771,-13.152,0
5.772,-27.434,0
5.773,-31.646,0
5.774,-43.365,0
5.775,-46.844,0
5.776,-49.956,0
5.777,-41.167,0
5.778,-43.731,0
5.779,-36.59,0
5.78,-34.392,0
5.781,-28.35,0
5.782,-22.857,0
5.783,-21.209,0
5.784,-19.744,0
5.785,-18.462,0
5.786,-12.42,0
5.787,-13.518,0
5.788,-8.574,0
5.789,-7.659,0
5.79,-3.631,0
5.791,-2.898,0
5.792,0.398,0
5.793,-0.152,0
5.794,1.496,0
5.795,3.877,0
5.796,1.679,0
5.797,2.778,0
5.798,2.412,0
5.799,1.313,0
5.8,4.06,0
5.801,-0.884,0
5.802,3.694,0
5.803,5.525,0
5.804,2.778,0
5.805,2.412,0
5.806,1.13,0
5.807,-1.616,0
5.808,1.863,0
5.809,0.581,0
5.81,0.947,0
5.811,-2.532,0
5.812,-0.335,0
5.813,3.51,0
5.814,3.877,0
5.815,0.581,0
5.816,7.539,0
5.817,16.694,0
5.818,35.188,0
5.819,53.865,0
5.82,61.006,0
5.821,76.386,0
5.822,46.174,0
5.823,15.962,0
5.824,-27.434,0
5.825,-44.646,0
5.826,-49.773,0
5.827,-54.534,0
5.828,-58.745,0
5.829,-54.9,0
5.83,-51.421,0
5.831,-48.308,0
5.832,-45.379,0
5.833,-42.815,0
5.834,-35.674,0
5.835,-29.082,0
5.836,-23.04,0
5.837,-17.547,0
5.838,-15.899,0
5.839,-11.504,0
5.84,-10.222,0
5.841,-6.743,0
5.842,-3.448,0
5.843,3.51,0
5.844,4.426,0
5.845,6.806,0
5.846,7.539,0
5.847,8.088,0
5.848,3.694,0
5.849,4.243,0
5.85,11.75,0
5.851,15.046,0
5.852,17.976,0
5.853,18.891,0
5.854,22.92,0
5.855,26.765,0
5.856,30.061,0
5.857,33.174,0
5.858,31.526,0
5.859,26.948,0
5.86,26.399,0
5.861,20.173,0
5.862,17.793,0
5.863,10.835,0
5.864,2.412,0
5.865,-12.237,0
5.866,-29.265,0
5.867,-17.18,0
5.868,-19.378,0
5.869,-9.307,0
5.87,18.159,0
5.871,45.625,0
5.872,27.864,0
5.873,-20.843,0
5.874,-69.732,0
5.875,-101.41,0
5.876,-118.62,0
5.877,-113.49,0
5.878,-137.3,0
5.879,-158.9,0
5.88,-170.62,0
5.881,-195.53,0
5.882,-198.64,0
5.883,-195.71,0
5.884,-171.54,0
5.885,-155.43,0
5.886,-134.73,0
5.887,-94.451,0
5.888,-19.378,0
5.889,73.091,0
5.89,135.35,0
5.891,146.52,0
5.892,156.77,0
5.893,128.75,0
5.894,120.33,0
5.895,112.64,0
5.896,105.68,0
5.897,111.91,0
5.898,140.66,0
5.899,145.78,0
5.9,169.59,0
5.901,182.41,0
5.902,178.56,0
5.903,175.08,0
5.904,152.56,0
5.905,137.73,0
5.906,135.16,0
5.907,108.43,0
5.908,76.203,0
5.909,54.597,0
5.91,42.878,0
5.911,39.399,0
5.912,36.286,0
5.913,21.455,0
5.914,8.088,0
5.915,-3.997,0
5.916,-6.377,0
5.917,-17.364,0
5.918,-15.349,0
5.919,1.13,0
5.92,34.272,0
5.921,19.99,0
5.922,-10.222,0
5.923,-53.618,0
5.924,-70.83,0
5.925,-86.394,0
5.926,-91.155,0
5.927,-95.366,0
5.928,-99.212,0
5.929,-102.69,0
5.93,-105.8,0
5.931,-102.87,0
5.932,-105.44,0
5.933,-103.06,0
5.934,-96.465,0
5.935,-90.423,0
5.936,-84.929,0
5.937,-83.281,0
5.938,-75.774,0
5.939,-66.253,0
5.94,-60.21,0
5.941,-52.337,0
5.942,-45.379,0
5.943,-40.801,0
5.944,-35.125,0
5.945,-26.702,0
5.946,-23.406,0
5.947,-16.448,0
5.948,-15.532,0
5.949,-11.504,0
5.95,-7.659,0
5.951,-7.11,0
5.952,-5.279,0
5.953,-3.631,0
5.954,-1.25,0
5.955,-1.616,0
5.956,1.13,0
5.957,-2.349,0
5.958,3.694,0
5.959,6.074,0
5.96,8.271,0
5.961,10.102,0
5.962,9.553,0
5.963,10.102,0
5.964,7.722,0
5.965,6.44,0
5.966,3.694,0
5.967,3.877,0
5.968,2.778,0
5.969,8.271,0
5.97,19.807,0
5.971,44.709,0
5.972,62.47,0
5.973,59.358,0
5.974,68.147,0
5.975,65.583,0
5.976,43.611,0
5.977,11.018,0
5.978,-27.984,0
5.979,-43.548,0
5.98,-57.83,0
5.981,-53.618,0
5.982,-57.464,0
5.983,-53.985,0
5.984,-50.872,0
5.985,-42.083,0
5.986,-39.519,0
5.987,-32.378,0
5.988,-25.786,0
5.989,-19.744,0
5.99,-17.913,0
5.991,-9.673,0
5.992,-5.279,0
5.993,-3.997,0
5.994,-2.898,0
5.995,2.778,0
5.996,3.694,0
5.997,4.609,0
5.998,5.342,0
5.999,4.609,0
6,6.44,0
6.001,5.891,0
6.002,6.44,0
6.003,6.074,0
6.004,7.356,0
6.005,5.342,0
6.006,8.821,0
6.007,10.102,0
6.008,10.469,0
6.009,7.905,0
6.01,9.004,0
6.011,9.736,0
6.012,12.849,0
6.013,10.102,0
6.014,9.004,0
6.015,5.708,0
6.016,3.694,0
6.017,1.13,0
6.018,0.215,0
6.019,3.51,0
6.02,-1.983,0
6.021,9.553,0
6.022,34.455,0
6.023,59.358,0
6.024,62.47,0
6.025,77.302,0
6.026,69.428,0
6.027,32.99,0
6.028,-14.251,0
6.029,-33.111,0
6.03,-50.323,0
6.031,-55.449,0
6.032,-60.21,0
6.033,-55.999,0
6.034,-59.844,0
6.035,-49.224,0
6.036,-46.111,0
6.037,-37.322,0
6.038,-34.759,0
6.039,-32.378,0
6.04,-30.181,0
6.041,-24.138,0
6.042,-18.645,0
6.043,-7.11,0
6.044,-5.645,0
6.045,-4.363,0
6.046,1.679,0
6.047,4.975,0
6.048,4.06,0
6.049,6.806,0
6.05,4.426,0
6.051,3.694,0
6.052,5.525,0
6.053,3.694,0
6.054,5.342,0
6.055,-1.25,0
6.056,-0.335,0
6.057,2.046,0
6.058,4.243,0
6.059,2.412,0
6.06,4.243,0
6.061,2.595,0
6.062,2.961,0
6.063,2.595,0
6.064,2.229,0
6.065,-0.335,0
6.066,2.229,0
6.067,0.215,0
6.068,1.496,0
6.069,-1.983,0
6.07,-2.715,0
6.071,-1.25,0
6.072,2.046,0
6.073,9.004,0
6.074,24.201,0
6.075,57.344,0
6.076,71.626,0
6.077,24.018,0
6.078,-20.293,0
6.079,-37.505,0
6.08,-42.632,0
6.081,-47.393,0
6.082,-51.604,0
6.083,-55.449,0
6.084,-51.97,0
6.085,-42.449,0
6.086,-39.519,0
6.087,-36.956,0
6.088,-29.815,0
6.089,-23.223,0
6.09,-21.209,0
6.091,-15.716,0
6.092,-14.068,0
6.093,-9.673,0
6.094,-10.955,0
6.095,-7.476,0
6.096,-4.18,0
6.097,-3.264,0
6.098,-0.518,0
6.099,0.215,0
6.1,2.412,0
6.101,1.863,0
6.102,-2.532,0
6.103,0.215,0
6.104,0.581,0
6.105,0.947,0
6.106,5.525,0
6.107,4.975,0
6.108,8.821,0
6.109,3.327,0
6.11,5.525,0
6.111,6.074,0
6.112,6.623,0
6.113,7.173,0
6.114,7.539,0
6.115,1.496,0
6.116,5.525,0
6.117,0.215,0
6.118,0.764,0
6.119,-1.067,0
6.12,-2.715,0
6.121,-4.363,0
6.122,3.144,0
6.123,20.173,0
6.124,22.553,0
6.125,2.595,0
6.126,10.469,0
6.127,32.441,0
6.128,41.23,0
6.129,49.104,0
6.13,65.949,0
6.131,37.202,0
6.132,-6.194,0
6.133,-34.942,0
6.134,-50.506,0
6.135,-55.266,0
6.136,-59.478,0
6.137,-63.323,0
6.138,-52.703,0
6.139,-49.59,0
6.14,-46.66,0
6.141,-38.787,0
6.142,-36.406,0
6.143,-25.42,0
6.144,-19.378,0
6.145,-17.547,0
6.146,-15.899,0
6.147,-11.504,0
6.148,-4.729,0
6.149,-1.25,0
6.15,-0.152,0
6.151,-1.067,0
6.152,-1.983,0
6.153,0.398,0
6.154,-0.335,0
6.155,4.243,0
6.156,4.792,0
6.157,2.046,0
6.158,4.426,0
6.159,2.229,0
6.16,6.074,0
6.161,5.708,0
6.162,6.99,0
6.163,4.243,0
6.164,5.342,0
6.165,2.046,0
6.166,4.06,0
6.167,2.229,0
6.168,-1.067,0
6.169,-3.814,0
6.17,-1.25,0
6.171,-1.25,0
6.172,2.778,0
6.173,10.285,0
6.174,27.314,0
6.175,54.048,0
6.176,71.809,0
6.177,81.33,0
6.178,48.738,0
6.179,1.13,0
6.18,-17.73,0
6.181,-34.942,0
6.182,-40.069,0
6.183,-54.351,0
6.184,-50.139,0
6.185,-46.294,0
6.186,-42.815,0
6.187,-39.702,0
6.188,-36.773,0
6.189,-28.899,0
6.19,-31.28,0
6.191,-24.688,0
6.192,-22.674,0
6.193,-17.18,0
6.194,-12.237,0
6.195,-4.729,0
6.196,-3.448,0
6.197,2.595,0
6.198,3.694,0
6.199,2.778,0
6.2,3.694,0
6.201,1.313,0
6.202,3.51,0
6.203,5.342,0
6.204,0.947,0
6.205,0.398,0
6.206,-0.884,0
6.207,-0.518,0
6.208,-1.616,0
6.209,-0.518,0
6.21,1.313,0
6.211,-0.701,0
6.212,2.412,0
6.213,3.51,0
6.214,5.342,0
6.215,4.243,0
6.216,2.229,0
6.217,-1.433,0
6.218,-1.8,0
6.219,-0.518,0
6.22,3.327,0
6.221,2.046,0
6.222,0.947,0
6.223,1.313,0
6.224,7.539,0
6.225,21.455,0
6.226,51.667,0
6.227,81.88,0
6.228,54.414,0
6.229,15.046,0
6.23,-11.138,0
6.231,-34.942,0
6.232,-39.153,0
6.233,-35.308,0
6.234,-38.787,0
6.235,-41.9,0
6.236,-38.97,0
6.237,-36.406,0
6.238,-34.026,0
6.239,-31.829,0
6.24,-25.786,0
6.241,-23.955,0
6.242,-19.011,0
6.243,-11.504,0
6.244,-10.222,0
6.245,-4.18,0
6.246,-5.279,0
6.247,-0.335,0
6.248,-1.25,0
6.249,-1.983,0
6.25,-5.828,0
6.251,-2.532,0
6.252,-3.081,0
6.253,2.046,0
6.254,-1.25,0
6.255,0.581,0
6.256,-1.067,0
6.257,1.313,0
6.258,2.595,0
6.259,2.229,0
6.26,3.327,0
6.261,0.764,0
6.262,0.947,0
6.263,4.06,0
6.264,-1.433,0
6.265,0.764,0
6.266,-1.067,0
6.267,-2.898,0
6.268,-0.152,0
6.269,-1.433,0
6.27,-1.067,0
6.271,-3.081,0
6.272,-3.448,0
6.273,-4.912,0
6.274,-0.884,0
6.275,2.412,0
6.276,9.37,0
6.277,24.568,0
6.278,57.71,0
6.279,62.47,0
6.28,49.653,0
6.281,22.187,0
6.282,-24.322,0
6.283,-43.181,0
6.284,-48.858,0
6.285,-43.731,0
6.286,-48.491,0
6.287,-52.703,0
6.288,-48.858,0
6.289,-45.379,0
6.29,-42.266,0
6.291,-33.477,0
6.292,-30.913,0
6.293,-23.772,0
6.294,-21.575,0
6.295,-11.504,0
6.296,-13.335,0
6.297,-8.391,0
6.298,-6.927,0
6.299,-2.898,0
6.3,-3.997,0
6.301,-2.898,0
6.302,-5.828,0
6.303,2.595,0
6.304,3.694,0
6.305,4.609,0
6.306,5.525,0
6.307,4.792,0
6.308,4.06,0
6.309,3.51,0
6.31,4.06,0
6.311,3.51,0
6.312,4.792,0
6.313,6.074,0
6.314,2.229,0
6.315,0.947,0
6.316,-1.25,0
6.317,-0.152,0
6.318,-0.518,0
6.319,0.581,0
6.32,0.764,0
6.321,0.947,0
6.322,-2.532,0
6.323,-3.814,0
6.324,-4.912,0
6.325,-1.067,0
6.326,6.44,0
6.327,23.469,0
6.328,59.907,0
6.329,75.471,0
6.33,42.146,0
6.331,3.144,0
6.332,-23.04,0
6.333,-27.801,0
6.334,-32.012,0
6.335,-35.857,0
6.336,-39.336,0
6.337,-36.223,0
6.338,-33.294,0
6.339,-35.857,0
6.34,-28.716,0
6.341,-26.519,0
6.342,-24.505,0
6.343,-15.349,0
6.344,-13.701,0
6.345,-15.166,0
6.346,-13.885,0
6.347,-10.406,0
6.348,-7.11,0
6.349,-6.194,0
6.35,-7.11,0
6.351,-1.433,0
6.352,-2.166,0
6.353,-1.616,0
6.354,-1.067,0
6.355,1.679,0
6.356,0.398,0
6.357,0.764,0
6.358,-1.25,0
6.359,0.581,0
6.36,0.947,0
6.361,2.961,0
6.362,0.398,0
6.363,2.229,0
6.364,3.694,0
6.365,0.031,0
6.366,3.327,0
6.367,1.13,0
6.368,7.356,0
6.369,21.272,0
6.37,23.286,0
6.371,3.144,0
6.372,-4.729,0
6.373,-11.87,0
6.374,-14.068,0
6.375,-16.631,0
6.376,-14.617,0
6.377,1.863,0
6.378,17.243,0
6.379,39.399,0
6.38,54.231,0
6.381,78.401,0
6.382,49.104,0
6.383,21.638,0
6.384,-17.73,0
6.385,-43.914,0
6.386,-48.675,0
6.387,-52.886,0
6.388,-56.731,0
6.389,-53.252,0
6.39,-50.139,0
6.391,-47.21,0
6.392,-33.843,0
6.393,-31.463,0
6.394,-29.265,0
6.395,-23.223,0
6.396,-21.392,0
6.397,-16.448,0
6.398,-14.983,0
6.399,-8.208,0
6.4,-9.307,0
6.401,-6.011,0
6.402,-1.067,0
6.403,3.51,0
6.404,-0.518,0
6.405,0.215,0
6.406,0.764,0
6.407,-1.067,0
6.408,2.778,0
6.409,6.074,0
6.41,9.187,0
6.411,6.44,0
6.412,9.004,0
6.413,10.835,0
6.414,6.257,0
6.415,8.088,0
6.416,4.975,0
6.417,2.229,0
6.418,5.525,0
6.419,-1.433,0
6.42,-4.363,0
6.421,-3.448,0
6.422,0.581,0
6.423,-1.616,0
6.424,-3.448,0
6.425,-0.335,0
6.426,0.947,0
6.427,1.496,0
6.428,1.863,0
6.429,8.821,0
6.43,24.018,0
6.431,57.16,0
6.432,71.443,0
6.433,58.625,0
6.434,23.103,0
6.435,-19.927,0
6.436,-37.139,0
6.437,-42.266,0
6.438,-56.548,0
6.439,-60.76,0
6.44,-49.041,0
6.441,-45.562,0
6.442,-42.449,0
6.443,-39.519,0
6.444,-31.646,0
6.445,-24.505,0
6.446,-22.307,0
6.447,-16.265,0
6.448,-14.434,0
6.449,-9.49,0
6.45,-10.955,0
6.451,-9.673,0
6.452,-8.574,0
6.453,-2.898,0
6.454,-1.983,0
6.455,-1.067,0
6.456,-0.335,0
6.457,-1.067,0
6.458,-1.616,0
6.459,-1.067,0
6.46,2.778,0
6.461,4.06,0
6.462,3.694,0
6.463,1.679,0
6.464,5.158,0
6.465,5.525,0
6.466,4.426,0
6.467,6.257,0
6.468,7.356,0
6.469,5.342,0
6.47,1.13,0
6.471,-0.701,0
6.472,-2.349,0
6.473,3.144,0
6.474,0.947,0
6.475,1.496,0
6.476,0.947,0
6.477,1.679,0
6.478,2.229,0
6.479,9.736,0
6.48,26.765,0
6.481,53.498,0
6.482,64.118,0
6.483,86.64,0
6.484,54.048,0
6.485,15.046,0
6.486,-21.575,0
6.487,-35.857,0
6.488,-48.675,0
6.489,-52.52,0
6.49,-49.041,0
6.491,-45.928,0
6.492,-42.998,0
6.493,-40.435,0
6.494,-38.054,0
6.495,-31.463,0
6.496,-29.448,0
6.497,-23.955,0
6.498,-19.011,0
6.499,-14.617,0
6.5,-10.589,0
6.501,-4.546,0
6.502,-5.645,0
6.503,-4.729,0
6.504,-5.645,0
6.505,-4.912,0
6.506,-4.18,0
6.507,-3.631,0
6.508,-5.462,0
6.509,2.961,0
6.51,6.44,0
6.511,7.539,0
6.512,4.609,0
6.513,3.694,0
6.514,6.074,0
6.515,5.342,0
6.516,4.792,0
6.517,-0.884,0
6.518,1.313,0
6.519,5.891,0
6.52,1.496,0
6.521,0.947,0
6.522,0.581,0
6.523,-1.616,0
6.524,-0.518,0
6.525,0.581,0
6.526,-0.518,0
6.527,-1.983,0
6.528,1.679,0
6.529,0.398,0
6.53,4.426,0
6.531,12.849,0
6.532,31.343,0
6.533,55.512,0
6.534,58.625,0
6.535,61.555,0
6.536,64.118,0
6.537,42.146,0
6.538,3.51,0
6.539,-43.731,0
6.54,-49.956,0
6.541,-55.633,0
6.542,-60.76,0
6.543,-65.52,0
6.544,-61.309,0
6.545,-57.464,0
6.546,-53.985,0
6.547,-50.872,0
6.548,-42.083,0
6.549,-39.519,0
6.55,-37.139,0
6.551,-26.153,0
6.552,-20.11,0
6.553,-18.279,0
6.554,-10.039,0
6.555,-8.574,0
6.556,-4.546,0
6.557,-1.067,0
6.558,2.229,0
6.559,3.144,0
6.56,7.722,0
6.561,10.102,0
6.562,13.948,0
6.563,10.652,0
6.564,12.483,0
6.565,6.257,0
6.566,5.525,0
6.567,10.835,0
6.568,4.609,0
6.569,3.877,0
6.57,-1.433,0
6.571,-0.884,0
6.572,-3.997,0
6.573,-3.448,0
6.574,-0.152,0
6.575,2.046,0
6.576,3.144,0
6.577,4.975,0
6.578,1.679,0
6.579,2.412,0
6.58,5.158,0
6.581,-0.518,0
6.582,11.933,0
6.583,39.399,0
6.584,66.865,0
6.585,84.626,0
6.586,55.329,0
6.587,11.933,0
6.588,-16.814,0
6.589,-32.378,0
6.59,-37.139,0
6.591,-41.35,0
6.592,-45.196,0
6.593,-34.575,0
6.594,-31.463,0
6.595,-28.533,0
6.596,-25.969,0
6.597,-23.589,0
6.598,-21.392,0
6.599,-15.349,0
6.6,-13.518,0
6.601,-11.87,0
6.602,-13.335,0
6.603,-12.053,0
6.604,-10.955,0
6.605,-5.279,0
6.606,-4.363,0
6.607,-7.11,0
6.608,-4.729,0
6.609,-0.884,0
6.61,-2.715,0
6.611,-0.884,0
6.612,-0.335,0
6.613,7.173,0
6.614,24.201,0
6.615,41.047,0
6.616,16.694,0
6.617,7.173,0
6.618,-7.659,0
6.619,-15.532,0
6.62,-13.152,0
6.621,-15.349,0
6.622,-17.364,0
6.623,-15.532,0
6.624,-13.885,0
6.625,-9.49,0
6.626,-8.208,0
6.627,-7.11,0
6.628,-6.011,0
6.629,-3.081,0
6.63,-3.448,0
6.631,-2.532,0
6.632,8.271,0
6.633,21.821,0
6.634,49.287,0
6.635,76.753,0
6.636,58.991,0
6.637,23.286,0
6.638,-10.039,0
6.639,-31.646,0
6.64,-35.491,0
6.641,-38.97,0
6.642,-42.083,0
6.643,-33.294,0
6.644,-35.857,0
6.645,-33.477,0
6.646,-31.28,0
6.647,-29.265,0
6.648,-20.11,0
6.649,-21.758,0
6.65,-14.251,0
6.651,-15.532,0
6.652,-12.053,0
6.653,-8.758,0
6.654,-5.828,0
6.655,-3.081,0
6.656,-2.349,0
6.657,-6.194,0
6.658,-6.743,0
6.659,-1.067,0
6.66,-1.8,0
6.661,2.778,0
6.662,3.327,0
6.663,4.975,0
6.664,6.257,0
6.665,2.046,0
6.666,2.595,0
6.667,0.215,0
6.668,-0.152,0
6.669,2.595,0
6.67,1.496,0
6.671,0.398,0
6.672,1.863,0
6.673,0.031,0
6.674,0.764,0
6.675,0.215,0
6.676,1.679,0
6.677,2.961,0
6.678,3.144,0
6.679,4.609,0
6.68,2.412,0
6.681,-1.25,0
6.682,-4.912,0
6.683,2.595,0
6.684,19.624,0
6.685,56.062,0
6.686,82.246,0
6.687,87.007,0
6.688,56.794,0
6.689,21.272,0
6.69,-2.532,0
6.691,-15.349,0
6.692,-19.195,0
6.693,-22.674,0
6.694,-25.786,0
6.695,-28.716,0
6.696,-26.153,0
6.697,-23.772,0
6.698,-21.575,0
6.699,-31.646,0
6.7,-40.801,0
6.701,-45.745,0
6.702,-53.252,0
6.703,-60.027,0
6.704,-63.506,0
6.705,-60.21,0
6.706,-47.027,0
6.707,-34.209,0
6.708,-29.265,0
6.709,-42.815,0
6.71,-51.97,0
6.711,-73.577,0
6.712,-100.31,0
6.713,-118.07,0
6.714,-127.59,0
6.715,-130.52,0
6.716,-133.09,0
6.717,-130.71,0
6.718,-119.72,0
6.719,-105.62,0
6.72,-100.13,0
6.721,-88.592,0
6.722,-66.07,0
6.723,-17.364,0
6.724,87.739,0
6.725,163,0
6.726,176.54,0
6.727,164.09,0
6.728,152.93,0
6.729,122.16,0
6.73,112.82,0
6.731,104.4,0
6.732,91.035,0
6.733,83.344,0
6.734,104.22,0
6.735,135.9,0
6.736,199.43,0
6.737,224.7,0
6.738,186.25,0
6.739,137.36,0
6.74,105.68,0
6.741,88.471,0
6.742,72.907,0
6.743,58.625,0
6.744,37.019,0
6.745,9.553,0
6.746,-1.067,0
6.747,8.454,0
6.748,11.384,0
6.749,3.51,0
6.75,-8.574,0
6.751,-19.561,0
6.752,-25.603,0
6.753,-27.434,0
6.754,-42.449,0
6.755,-44.463,0
6.756,-38.97,0
6.757,-43.914,0
6.758,-54.351,0
6.759,-61.126,0
6.76,-55.083,0
6.761,-53.985,0
6.762,-53.069,0
6.763,-59.478,0
6.764,-57.097,0
6.765,-65.52,0
6.766,-68.816,0
6.767,-69.732,0
6.768,-70.647,0
6.769,-71.38,0
6.77,-75.225,0
6.771,-70.647,0
6.772,-66.253,0
6.773,-60.027,0
6.774,-55.999,0
6.775,-49.041,0
6.776,-44.463,0
6.777,-42.083,0
6.778,-36.773,0
6.779,-29.265,0
6.78,-28.35,0
6.781,-23.772,0
6.782,-24.505,0
6.783,-20.293,0
6.784,-18.096,0
6.785,-7.842,0
6.786,14.68,0
6.787,37.202,0
6.788,57.893,0
6.789,76.57,0
6.79,54.597,0
6.791,10.102,0
6.792,-8.758,0
6.793,-37.505,0
6.794,-42.632,0
6.795,-47.393,0
6.796,-43.181,0
6.797,-39.336,0
6.798,-35.857,0
6.799,-38.97,0
6.8,-30.181,0
6.801,-27.617,0
6.802,-25.237,0
6.803,-18.645,0
6.804,-16.631,0
6.805,-7.476,0
6.806,-2.532,0
6.807,-3.997,0
6.808,-2.715,0
6.809,3.327,0
6.81,4.426,0
6.811,9.37,0
6.812,12.116,0
6.813,12.849,0
6.814,13.581,0
6.815,13.032,0
6.816,11.201,0
6.817,11.75,0
6.818,11.384,0
6.819,11.75,0
6.82,11.384,0
6.821,12.483,0
6.822,9.919,0
6.823,12.666,0
6.824,6.99,0
6.825,11.018,0
6.826,8.821,0
6.827,8.271,0
6.828,6.44,0
6.829,8.088,0
6.83,4.792,0
6.831,3.51,0
6.832,2.412,0
6.833,4.975,0
6.834,1.679,0
6.835,-0.152,0
6.836,4.426,0
6.837,14.68,0
6.838,37.202,0
6.839,72.907,0
6.84,87.19,0
6.841,56.977,0
6.842,13.581,0
6.843,-15.166,0
6.844,-30.73,0
6.845,-45.012,0
6.846,-49.224,0
6.847,-53.069,0
6.848,-49.59,0
6.849,-40.069,0
6.85,-37.139,0
6.851,-39.702,0
6.852,-27.617,0
6.853,-25.42,0
6.854,-23.406,0
6.855,-17.913,0
6.856,-16.265,0
6.857,-14.8,0
6.858,-8.025,0
6.859,0.398,0
6.86,17.427,0
6.861,34.272,0
6.862,14.314,0
6.863,6.44,0
6.864,-0.701,0
6.865,-2.898,0
6.866,-8.941,0
6.867,-10.772,0
6.868,-5.828,0
6.869,-7.293,0
6.87,-11.321,0
6.871,-7.842,0
6.872,-8.941,0
6.873,-1.983,0
6.874,-6.56,0
6.875,-5.828,0
6.876,-0.518,0
6.877,0.031,0
6.878,1.863,0
6.879,3.51,0
6.88,1.13,0
6.881,0.764,0
6.882,-1.25,0
6.883,-2.349,0
6.884,0.215,0
6.885,2.412,0
6.886,2.595,0
6.887,6.806,0
6.888,16.328,0
6.889,36.836,0
6.89,63.569,0
6.891,81.33,0
6.892,58.808,0
6.893,14.314,0
6.894,-17.364,0
6.895,-34.575,0
6.896,-50.139,0
6.897,-54.9,0
6.898,-50.689,0
6.899,-46.844,0
6.9,-50.323,0
6.901,-47.21,0
6.902,-38.421,0
6.903,-35.857,0
6.904,-28.716,0
6.905,-26.519,0
6.906,-16.448,0
6.907,-14.617,0
6.908,-9.673,0
6.909,-8.208,0
6.91,-1.433,0
6.911,-0.335,0
6.912,0.764,0
6.913,3.694,0
6.914,4.609,0
6.915,5.342,0
6.916,3.144,0
6.917,1.313,0
6.918,5.708,0
6.919,1.863,0
6.92,1.496,0
6.921,3.694,0
6.922,3.327,0
6.923,2.961,0
6.924,1.13,0
6.925,2.595,0
6.926,3.877,0
6.927,2.595,0
6.928,0.031,0
6.929,-1.8,0
6.93,-0.335,0
6.931,3.877,0
6.932,3.327,0
6.933,-2.898,0
6.934,-5.279,0
6.935,-3.081,0
6.936,-0.518,0
6.937,-2.349,0
6.938,7.173,0
6.939,27.68,0
6.94,36.469,0
6.941,65.949,0
6.942,77.668,0
6.943,52.766,0
6.944,4.06,0
6.945,-16.814,0
6.946,-35.674,0
6.947,-41.35,0
6.948,-46.477,0
6.949,-51.238,0
6.95,-47.027,0
6.951,-43.181,0
6.952,-39.702,0
6.953,-36.59,0
6.954,-33.66,0
6.955,-25.786,0
6.956,-23.406,0
6.957,-21.209,0
6.958,-15.166,0
6.959,-13.335,0
6.96,-8.391,0
6.961,-6.927,0
6.962,-8.208,0
6.963,-4.729,0
6.964,3.144,0
6.965,-1.8,0
6.966,2.778,0
6.967,5.158,0
6.968,2.961,0
6.969,4.792,0
6.97,4.243,0
6.971,6.99,0
6.972,6.623,0
6.973,2.412,0
6.974,4.06,0
6.975,4.426,0
6.976,4.06,0
6.977,6.074,0
6.978,7.905,0
6.979,3.877,0
6.98,1.496,0
6.981,4.609,0
6.982,2.595,0
6.983,0.031,0
6.984,-2.532,0
6.985,-7.11,0
6.986,-5.279,0
6.987,-7.11,0
6.988,-1.433,0
6.989,6.99,0
6.99,24.018,0
6.991,50.752,0
6.992,68.513,0
6.993,58.991,0
6.994,26.399,0
6.995,-12.603,0
6.996,-28.167,0
6.997,-32.927,0
6.998,-37.139,0
6.999,-40.984,0
7,-37.505,0
7.001,-40.618,0
7.002,-37.688,0
7.003,-35.125,0
7.004,-32.744,0
7.005,-21.758,0
7.006,-19.744,0
7.007,-21.575,0
7.008,-19.927,0
7.009,-15.532,0
7.01,-8.758,0
7.011,-5.279,0
7.012,-4.18,0
7.013,-7.11,0
7.014,-2.532,0
7.015,-0.152,0
7.016,0.581,0
7.017,1.13,0
7.018,4.243,0
7.019,0.398,0
7.02,-2.898,0
7.021,1.313,0
7.022,-2.532,0
7.023,2.046,0
7.024,1.496,0
7.025,2.046,0
7.026,0.764,0
7.027,1.13,0
7.028,4.975,0
7.029,3.694,0
7.03,4.06,0
7.031,3.694,0
7.032,4.792,0
7.033,2.961,0
7.034,-0.335,0
7.035,0.947,0
7.036,-1.067,0
7.037,0.031,0
7.038,-1.25,0
7.039,-3.081,0
7.04,1.496,0
7.041,11.75,0
7.042,34.272,0
7.043,82.978,0
7.044,62.104,0
7.045,17.793,0
7.046,-10.955,0
7.047,-26.519,0
7.048,-40.801,0
7.049,-45.012,0
7.05,-48.858,0
7.051,-38.238,0
7.052,-41.35,0
7.053,-38.421,0
7.054,-35.857,0
7.055,-28.716,0
7.056,-26.519,0
7.057,-24.505,0
7.058,-19.011,0
7.059,-14.068,0
7.06,-9.673,0
7.061,-5.645,0
7.062,-2.166,0
7.063,-3.264,0
7.064,-0.335,0
7.065,-1.25,0
7.066,1.13,0
7.067,-4.18,0
7.068,-6.011,0
7.069,-2.898,0
7.07,-2.349,0
7.071,-1.067,0
7.072,0.215,0
7.073,-0.884,0
7.074,-0.518,0
7.075,2.778,0
7.076,2.412,0
7.077,4.975,0
7.078,7.539,0
7.079,4.792,0
7.08,-0.152,0
7.081,1.679,0
7.082,1.13,0
7.083,-0.518,0
7.084,-1.8,0
7.085,-3.081,0
7.086,-5.828,0
7.087,-6.927,0
7.088,-5.828,0
7.089,-3.448,0
7.09,-2.715,0
7.091,1.496,0
7.092,11.018,0
7.093,31.526,0
7.094,76.02,0
7.095,82.246,0
7.096,41.963,0
7.097,5.342,0
7.098,-27.984,0
7.099,-32.195,0
7.1,-43.914,0
7.101,-47.393,0
7.102,-44.28,0
7.103,-47.21,0
7.104,-39.336,0
7.105,-27.251,0
7.106,-7.293,0
7.107,0.581,0
7.108,-16.265,0
7.109,-22.857,0
7.11,-20.843,0
7.111,-26.336,0
7.112,-21.392,0
7.113,-22.857,0
7.114,-18.828,0
7.115,-17.73,0
7.116,-16.631,0
7.117,-13.701,0
7.118,-9.124,0
7.119,-5.095,0
7.12,-4.363,0
7.121,-2.532,0
7.122,-4.363,0
7.123,-3.814,0
7.124,-2.532,0
7.125,-1.25,0
7.126,1.496,0
7.127,4.06,0
7.128,3.694,0
7.129,2.961,0
7.13,6.074,0
7.131,3.327,0
7.132,1.496,0
7.133,-0.335,0
7.134,-1.8,0
7.135,0.031,0
7.136,2.412,0
7.137,2.595,0
7.138,-0.518,0
7.139,-1.616,0
7.14,-1.983,0
7.141,2.229,0
7.142,10.652,0
7.143,29.145,0
7.144,69.428,0
7.145,75.105,0
7.146,48.921,0
7.147,15.595,0
7.148,-14.617,0
7.149,-26.336,0
7.15,-36.956,0
7.151,-33.843,0
7.152,-36.773,0
7.153,-34.209,0
7.154,-31.829,0
7.155,-29.632,0
7.156,-27.617,0
7.157,-22.124,0
7.158,-20.476,0
7.159,-16.082,0
7.16,-14.8,0
7.161,-11.321,0
7.162,-10.222,0
7.163,-7.293,0
7.164,-8.208,0
7.165,-8.941,0
7.166,-5.095,0
7.167,-4.546,0
7.168,-1.433,0
7.169,-4.18,0
7.17,-3.814,0
7.171,-2.532,0
7.172,2.046,0
7.173,0.215,0
7.174,-3.631,0
7.175,-0.335,0
7.176,5.708,0
7.177,4.975,0
7.178,5.708,0
7.179,1.13,0
7.18,5.525,0
7.181,0.398,0
7.182,-0.152,0
7.183,-1.983,0
7.184,-3.631,0
7.185,-2.349,0
7.186,-1.983,0
7.187,-4.729,0
7.188,-0.518,0
7.189,-1.067,0
7.19,-3.448,0
7.191,-2.715,0
7.192,-2.349,0
7.193,3.877,0
7.194,17.793,0
7.195,39.948,0
7.196,66.682,0
7.197,77.302,0
7.198,54.78,0
7.199,10.285,0
7.2,-21.392,0
7.201,-38.604,0
7.202,-54.168,0
7.203,-49.407,0
7.204,-53.618,0
7.205,-49.773,0
7.206,-46.294,0
7.207,-43.181,0
7.208,-34.392,0
7.209,-31.829,0
7.21,-29.448,0
7.211,-27.251,0
7.212,-17.18,0
7.213,-11.687,0
7.214,-6.743,0
7.215,-8.208,0
7.216,-4.18,0
7.217,-0.701,0
7.218,-1.8,0
7.219,-4.729,0
7.22,-3.814,0
7.221,-3.081,0
7.222,2.229,0
7.223,0.398,0
7.224,2.229,0
7.225,3.877,0
7.226,5.158,0
7.227,6.44,0
7.228,6.806,0
7.229,2.595,0
7.23,4.243,0
7.231,-1.25,0
7.232,0.947,0
7.233,2.778,0
7.234,2.229,0
7.235,2.778,0
7.236,1.496,0
7.237,0.215,0
7.238,1.313,0
7.239,0.215,0
7.24,-3.081,0
7.241,-0.335,0
7.242,-2.715,0
7.243,-0.152,0
7.244,5.342,0
7.245,16.877,0
7.246,41.78,0
7.247,59.541,0
7.248,62.654,0
7.249,53.865,0
7.25,18.891,0
7.251,-14.434,0
7.252,-36.04,0
7.253,-47.759,0
7.254,-51.238,0
7.255,-48.125,0
7.256,-51.055,0
7.257,-43.181,0
7.258,-40.801,0
7.259,-34.209,0
7.26,-32.195,0
7.261,-26.702,0
7.262,-21.758,0
7.263,-17.364,0
7.264,-16.082,0
7.265,-12.603,0
7.266,-11.504,0
7.267,-12.42,0
7.268,-11.504,0
7.269,-7.476,0
7.27,-0.518,0
7.271,-1.433,0
7.272,-0.701,0
7.273,-2.898,0
7.274,-3.448,0
7.275,-2.898,0
7.276,-0.152,0
7.277,1.13,0
7.278,4.243,0
7.279,6.257,0
7.28,5.158,0
7.281,5.525,0
7.282,1.496,0
7.283,3.144,0
7.284,3.51,0
7.285,3.144,0
7.286,1.13,0
7.287,2.961,0
7.288,6.257,0
7.289,0.031,0
7.29,-0.884,0
7.291,-0.152,0
7.292,2.046,0
7.293,-1.25,0
7.294,-0.701,0
7.295,8.821,0
7.296,29.328,0
7.297,61.921,0
7.298,74.739,0
7.299,47.273,0
7.3,7.905,0
7.301,-18.279,0
7.302,-32.561,0
7.303,-36.773,0
7.304,-40.618,0
7.305,-44.097,0
7.306,-40.984,0
7.307,-38.054,0
7.308,-35.491,0
7.309,-28.35,0
7.31,-21.758,0
7.311,-19.744,0
7.312,-14.251,0
7.313,-9.307,0
7.314,-10.772,0
7.315,-9.49,0
7.316,-8.391,0
7.317,-7.293,0
7.318,-8.208,0
7.319,-5.462,0
7.32,-3.081,0
7.321,-5.279,0
7.322,-5.828,0
7.323,-5.279,0
7.324,-1.433,0
7.325,-1.8,0
7.326,4.243,0
7.327,0.215,0
7.328,2.412,0
7.329,1.863,0
7.33,4.975,0
7.331,6.623,0
7.332,2.046,0
7.333,-2.349,0
7.334,1.496,0
7.335,1.13,0
7.336,-1.067,0
7.337,0.947,0
7.338,-0.884,0
7.339,-1.25,0
7.34,-3.264,0
7.341,-1.983,0
7.342,-0.701,0
7.343,-2.898,0
7.344,-4.18,0
7.345,-3.997,0
7.346,-2.166,0
7.347,-3.631,0
7.348,-3.448,0
7.349,-4.363,0
7.35,-3.448,0
7.351,-1.433,0
7.352,4.06,0
7.353,15.595,0
7.354,10.652,0
7.355,12.116,0
7.356,32.624,0
7.357,71.26,0
7.358,45.075,0
7.359,2.046,0
7.36,-26.702,0
7.361,-42.266,0
7.362,-47.027,0
7.363,-51.238,0
7.364,-47.393,0
7.365,-50.872,0
7.366,-41.35,0
7.367,-38.421,0
7.368,-35.857,0
7.369,-28.716,0
7.37,-30.913,0
7.371,-24.871,0
7.372,-19.378,0
7.373,-17.73,0
7.374,-16.265,0
7.375,-9.49,0
7.376,-3.448,0
7.377,-0.152,0
7.378,0.764,0
7.379,1.679,0
7.38,0.947,0
7.381,4.792,0
7.382,4.243,0
7.383,3.694,0
7.384,3.144,0
7.385,4.426,0
7.386,3.144,0
7.387,1.13,0
7.388,-0.701,0
7.389,1.863,0
7.39,0.398,0
7.391,0.215,0
7.392,0.947,0
7.393,1.13,0
7.394,1.679,0
7.395,2.412,0
7.396,0.215,0
7.397,4.426,0
7.398,13.948,0
7.399,34.455,0
7.4,78.95,0
7.401,60.09,0
7.402,19.807,0
7.403,-6.377,0
7.404,-30.181,0
7.405,-34.392,0
7.406,-46.111,0
7.407,-49.59,0
7.408,-40.069,0
7.409,-37.139,0
7.41,-34.575,0
7.411,-27.434,0
7.412,-20.843,0
7.413,-18.828,0
7.414,-16.997,0
7.415,-12.053,0
7.416,-16.448,0
7.417,-15.166,0
7.418,-11.687,0
7.419,-8.391,0
7.42,-7.476,0
7.421,-4.729,0
7.422,-3.997,0
7.423,1.313,0
7.424,3.144,0
7.425,2.595,0
7.426,6.44,0
7.427,4.06,0
7.428,0.947,0
7.429,2.961,0
7.43,5.525,0
7.431,6.623,0
7.432,8.088,0
7.433,4.426,0
7.434,4.792,0
7.435,4.426,0
7.436,5.525,0
7.437,6.623,0
7.438,4.06,0
7.439,-0.518,0
7.44,-3.814,0
7.441,-1.983,0
7.442,-3.631,0
7.443,-2.349,0
7.444,-3.631,0
7.445,-2.532,0
7.446,-4.912,0
7.447,-6.011,0
7.448,-0.518,0
7.449,11.018,0
7.45,35.92,0
7.451,53.681,0
7.452,56.794,0
7.453,53.865,0
7.454,61.738,0
7.455,30.061,0
7.456,-0.152,0
7.457,-35.674,0
7.458,-59.478,0
7.459,-63.689,0
7.46,-59.844,0
7.461,-63.323,0
7.462,-66.436,0
7.463,-57.647,0
7.464,-55.083,0
7.465,-47.942,0
7.466,-41.35,0
7.467,-31.28,0
7.468,-29.448,0
7.469,-21.209,0
7.47,-19.744,0
7.471,-15.716,0
7.472,-9.673,0
7.473,-6.377,0
7.474,-5.462,0
7.475,0.947,0
7.476,3.327,0
7.477,4.06,0
7.478,5.891,0
7.479,7.722,0
7.48,10.469,0
7.481,7.173,0
7.482,6.806,0
7.483,5.708,0
7.484,9.187,0
7.485,7.905,0
7.486,4.06,0
7.487,6.44,0
7.488,4.243,0
7.489,4.609,0
7.49,4.975,0
7.491,3.144,0
7.492,3.327,0
7.493,4.06,0
7.494,5.342,0
7.495,4.792,0
7.496,3.327,0
7.497,0.215,0
7.498,3.144,0
7.499,6.99,0
7.5,14.497,0
7.501,31.526,0
7.502,67.964,0
7.503,83.528,0
7.504,40.498,0
7.505,0.215,0
7.506,-25.969,0
7.507,-40.252,0
7.508,-44.463,0
7.509,-48.308,0
7.51,-44.829,0
7.511,-41.717,0
7.512,-44.646,0
7.513,-36.773,0
7.514,-29.632,0
7.515,-27.434,0
7.516,-25.42,0
7.517,-19.927,0
7.518,-18.279,0
7.519,-10.772,0
7.52,-6.743,0
7.521,-0.701,0
7.522,7.173,0
7.523,14.131,0
7.524,16.877,0
7.525,20.906,0
7.526,29.328,0
7.527,37.202,0
7.528,32.258,0
7.529,27.68,0
7.53,28.413,0
7.531,18.342,0
7.532,19.624,0
7.533,16.145,0
7.534,3.694,0
7.535,-14.617,0
7.536,-26.702,0
7.537,-42.083,0
7.538,-48.125,0
7.539,-53.618,0
7.54,-48.675,0
7.541,-41.167,0
7.542,-31.646,0
7.543,-32.744,0
7.544,-49.773,0
7.545,-61.858,0
7.546,-81.817,0
7.547,-122.1,0
7.548,-141.88,0
7.549,-147.55,0
7.55,-131.99,0
7.551,-136.75,0
7.552,-106.54,0
7.553,-86.944,0
7.554,-47.576,0
7.555,-32.012,0
7.556,-55.816,0
7.557,-60.027,0
7.558,-24.505,0
7.559,47.09,0
7.56,98.359,0
7.561,107.7,0
7.562,99.275,0
7.563,91.584,0
7.564,84.626,0
7.565,90.852,0
7.566,85.176,0
7.567,100.74,0
7.568,115.02,0
7.569,136.63,0
7.57,156.22,0
7.571,181.12,0
7.572,184.24,0
7.573,181.31,0
7.574,162.63,0
7.575,145.78,0
7.576,134.8,0
7.577,104.58,0
7.578,74.372,0
7.579,54.78,0
7.58,37.019,0
7.581,33.906,0
7.582,30.976,0
7.583,17.61,0
7.584,5.525,0
7.585,-5.462,0
7.586,-11.504,0
7.587,-24.322,0
7.588,-39.336,0
7.589,-37.322,0
7.59,-42.815,0
7.591,-57.83,0
7.592,-63.872,0
7.593,-62.041,0
7.594,-63.689,0
7.595,-65.154,0
7.596,-55.633,0
7.597,-42.083,0
7.598,-32.927,0
7.599,-56.914,0
7.6,-75.225,0
7.601,-87.31,0
7.602,-89.507,0
7.603,-83.465,0
7.604,-55.999,0
7.605,-20.476,0
7.606,-6.194,0
7.607,-27.801,0
7.608,-63.323,0
7.609,-77.605,0
7.61,-90.423,0
7.611,-86.577,0
7.612,-83.098,0
7.613,-79.986,0
7.614,-71.197,0
7.615,-63.323,0
7.616,-56.182,0
7.617,-49.59,0
7.618,-43.548,0
7.619,-34.392,0
7.62,-26.153,0
7.621,-21.758,0
7.622,-20.476,0
7.623,-12.053,0
7.624,-8.758,0
7.625,-1.8,0
7.626,0.947,0
7.627,0.215,0
7.628,2.412,0
7.629,6.99,0
7.63,10.102,0
7.631,11.75,0
7.632,12.116,0
7.633,10.835,0
7.634,12.849,0
7.635,17.06,0
7.636,14.314,0
7.637,11.018,0
7.638,7.905,0
7.639,6.806,0
7.64,8.637,0
7.641,8.271,0
7.642,12.849,0
7.643,13.398,0
7.644,7.722,0
7.645,9.919,0
7.646,11.75,0
7.647,11.201,0
7.648,12.849,0
7.649,8.271,0
7.65,12.666,0
7.651,9.553,0
7.652,9.004,0
7.653,16.511,0
7.654,33.54,0
7.655,65.217,0
7.656,61.006,0
7.657,64.851,0
7.658,82.612,0
7.659,46.906,0
7.66,3.877,0
7.661,-36.406,0
7.662,-51.97,0
7.663,-56.731,0
7.664,-60.943,0
7.665,-64.788,0
7.666,-61.309,0
7.667,-51.787,0
7.668,-48.858,0
7.669,-40.984,0
7.67,-38.604,0
7.671,-32.012,0
7.672,-25.969,0
7.673,-24.138,0
7.674,-15.899,0
7.675,-5.462,0
7.676,-4.18,0
7.677,1.863,0
7.678,12.116,0
7.679,16.145,0
7.68,17.243,0
7.681,16.145,0
7.682,13.215,0
7.683,12.3,0
7.684,11.567,0
7.685,9.37,0
7.686,9.919,0
7.687,9.37,0
7.688,5.525,0
7.689,6.806,0
7.69,2.595,0
7.691,2.046,0
7.692,-1.25,0
7.693,0.031,0
7.694,1.13,0
7.695,-2.349,0
7.696,4.609,0
7.697,-2.349,0
7.698,-5.095,0
7.699,-4.363,0
7.7,-5.095,0
7.701,-3.448,0
7.702,-2.898,0
7.703,6.623,0
7.704,27.131,0
7.705,65.766,0
7.706,81.33,0
7.707,38.301,0
7.708,9.553,0
7.709,-16.631,0
7.71,-21.392,0
7.711,-34.209,0
7.712,-38.054,0
7.713,-41.533,0
7.714,-38.421,0
7.715,-35.491,0
7.716,-38.054,0
7.717,-30.913,0
7.718,-28.716,0
7.719,-22.674,0
7.72,-24.505,0
7.721,-12.969,0
7.722,-14.434,0
7.723,-13.152,0
7.724,-7.11,0
7.725,-3.814,0
7.726,-2.898,0
7.727,1.679,0
7.728,2.412,0
7.729,1.679,0
7.73,2.229,0
7.731,4.06,0
7.732,1.313,0
7.733,0.031,0
7.734,0.398,0
7.735,3.144,0
7.736,-0.335,0
7.737,1.863,0
7.738,0.764,0
7.739,-1.067,0
7.74,-5.095,0
7.741,-1.8,0
7.742,-1.433,0
7.743,1.313,0
7.744,1.679,0
7.745,2.046,0
7.746,6.623,0
7.747,7.173,0
7.748,1.496,0
7.749,0.764,0
7.75,-2.532,0
7.751,-5.645,0
7.752,-1.25,0
7.753,-6.377,0
7.754,3.877,0
7.755,26.399,0
7.756,48.921,0
7.757,75.654,0
7.758,65.034,0
7.759,29.328,0
7.76,-3.997,0
7.761,-25.603,0
7.762,-37.322,0
7.763,-40.801,0
7.764,-43.914,0
7.765,-46.844,0
7.766,-44.28,0
7.767,-41.9,0
7.768,-39.702,0
7.769,-33.66,0
7.77,-31.829,0
7.771,-26.885,0
7.772,-22.49,0
7.773,-18.462,0
7.774,-17.364,0
7.775,-14.068,0
7.776,-9.124,0
7.777,-8.208,0
7.778,-2.532,0
7.779,-0.335,0
7.78,4.243,0
7.781,3.694,0
7.782,2.046,0
7.783,3.327,0
7.784,2.961,0
7.785,4.975,0
7.786,6.806,0
7.787,7.905,0
7.788,5.158,0
7.789,5.525,0
7.79,3.694,0
7.791,1.679,0
7.792,2.412,0
7.793,3.694,0
7.794,0.215,0
7.795,0.581,0
7.796,3.694,0
7.797,-0.884,0
7.798,-1.433,0
7.799,-1.983,0
7.8,2.595,0
7.801,-0.518,0
7.802,0.031,0
7.803,-1.25,0
7.804,-0.884,0
7.805,6.074,0
7.806,21.272,0
7.807,54.414,0
7.808,78.218,0
7.809,82.429,0
7.81,39.033,0
7.811,-1.25,0
7.812,-27.434,0
7.813,-41.717,0
7.814,-37.505,0
7.815,-49.224,0
7.816,-45.745,0
7.817,-48.858,0
7.818,-40.069,0
7.819,-37.505,0
7.82,-30.364,0
7.821,-28.167,0
7.822,-22.124,0
7.823,-20.293,0
7.824,-18.645,0
7.825,-17.18,0
7.826,-15.899,0
7.827,-9.856,0
7.828,-6.56,0
7.829,-3.631,0
7.83,-0.884,0
7.831,-1.616,0
7.832,-5.462,0
7.833,-2.166,0
7.834,-0.335,0
7.835,-0.884,0
7.836,2.412,0
7.837,4.609,0
7.838,2.595,0
7.839,2.229,0
7.84,-1.8,0
7.841,0.581,0
7.842,7.539,0
7.843,22.737,0
7.844,38.117,0
7.845,19.99,0
7.846,7.905,0
7.847,-3.081,0
7.848,-5.095,0
7.849,-14.251,0
7.85,-9.307,0
7.851,-10.772,0
7.852,-9.49,0
7.853,-10.589,0
7.854,-12.969,0
7.855,-14.068,0
7.856,1.13,0
7.857,34.272,0
7.858,58.076,0
7.859,79.682,0
7.86,52.217,0
7.861,12.849,0
7.862,-13.335,0
7.863,-27.617,0
7.864,-40.435,0
7.865,-44.28,0
7.866,-40.801,0
7.867,-43.914,0
7.868,-35.125,0
7.869,-32.561,0
7.87,-30.181,0
7.871,-23.589,0
7.872,-21.575,0
7.873,-19.744,0
7.874,-18.096,0
7.875,-16.631,0
7.876,-12.603,0
7.877,-6.56,0
7.878,-5.462,0
7.879,-2.532,0
7.88,-1.616,0
7.881,2.412,0
7.882,0.215,0
7.883,0.764,0
7.884,-1.067,0
7.885,-0.518,0
7.886,0.764,0
7.887,4.975,0
7.888,3.327,0
7.889,3.694,0
7.89,2.412,0
7.891,3.51,0
7.892,3.144,0
7.893,4.975,0
7.894,2.229,0
7.895,6.44,0
7.896,2.595,0
7.897,-0.701,0
7.898,-1.067,0
7.899,0.947,0
7.9,-0.152,0
7.901,0.215,0
7.902,0.398,0
7.903,-0.335,0
7.904,0.398,0
7.905,-3.448,0
7.906,-1.25,0
7.907,2.961,0
7.908,12.483,0
7.909,32.99,0
7.91,77.485,0
7.911,71.26,0
7.912,42.512,0
7.913,-4.729,0
7.914,-23.589,0
7.915,-40.801,0
7.916,-45.928,0
7.917,-50.689,0
7.918,-46.477,0
7.919,-42.632,0
7.92,-46.111,0
7.921,-42.998,0
7.922,-34.209,0
7.923,-31.646,0
7.924,-24.505,0
7.925,-22.307,0
7.926,-20.293,0
7.927,-14.8,0
7.928,-13.152,0
7.929,-2.715,0
7.93,-6.743,0
7.931,-5.645,0
7.932,-2.349,0
7.933,-1.433,0
7.934,-0.518,0
7.935,1.863,0
7.936,-1.983,0
7.937,2.595,0
7.938,5.708,0
7.939,1.863,0
7.94,3.144,0
7.941,3.51,0
7.942,4.609,0
7.943,7.173,0
7.944,7.539,0
7.945,6.806,0
7.946,3.694,0
7.947,7.539,0
7.948,2.046,0
7.949,4.243,0
7.95,0.947,0
7.951,0.398,0
7.952,2.046,0
7.953,3.327,0
7.954,3.694,0
7.955,-2.532,0
7.956,-6.377,0
7.957,-9.124,0
7.958,1.679,0
7.959,18.159,0
7.96,46.906,0
7.961,58.625,0
7.962,83.528,0
7.963,54.231,0
7.964,18.708,0
7.965,-14.617,0
7.966,-36.223,0
7.967,-47.942,0
7.968,-44.463,0
7.969,-47.576,0
7.97,-50.506,0
7.971,-47.942,0
7.972,-40.801,0
7.973,-38.604,0
7.974,-36.59,0
7.975,-27.434,0
7.976,-22.49,0
7.977,-18.096,0
7.978,-19.378,0
7.979,-13.335,0
7.98,-10.039,0
7.981,-9.124,0
7.982,-6.377,0
7.983,-2.349,0
7.984,-1.616,0
7.985,-2.166,0
7.986,-0.335,0
7.987,4.792,0
7.988,2.961,0
7.989,3.51,0
7.99,5.158,0
7.991,0.581,0
7.992,1.13,0
7.993,2.778,0
7.994,2.412,0
7.995,2.778,0
7.996,7.356,0
7.997,1.679,0
7.998,0.947,0
7.999,1.496,0
8,3.327,0
8.001,4.975,0
8.002,1.679,0
8.003,2.046,0
8.004,-2.532,0
8.005,-1.983,0
8.006,0.764,0
8.007,-5.645,0
8.008,-4.363,0
8.009,2.595,0
8.01,17.793,0
8.011,50.935,0
8.012,74.739,0
8.013,35.737,0
8.014,-0.884,0
8.015,-15.166,0
8.016,-27.984,0
8.017,-39.702,0
8.018,-36.223,0
8.019,-39.336,0
8.02,-36.406,0
8.021,-33.843,0
8.022,-31.463,0
8.023,-29.265,0
8.024,-23.223,0
8.025,-17.73,0
8.026,-12.786,0
8.027,-11.321,0
8.028,-7.293,0
8.029,-8.391,0
8.03,-2.715,0
8.031,-3.631,0
8.032,-6.377,0
8.033,-3.997,0
8.034,-4.729,0
8.035,-0.152,0
8.036,-3.264,0
8.037,-3.814,0
8.038,-5.095,0
8.039,-3.814,0
8.04,-1.8,0
8.041,0.031,0
8.042,1.13,0
8.043,1.863,0
8.044,-2.349,0
8.045,2.046,0
8.046,2.595,0
8.047,2.961,0
8.048,-1.25,0
8.049,-1.8,0
8.05,0.581,0
8.051,-0.701,0
8.052,2.046,0
8.053,0.947,0
8.054,-1.616,0
8.055,-3.631,0
8.056,-1.8,0
8.057,-1.983,0
8.058,-1.983,0
8.059,-5.095,0
8.06,1.13,0
8.061,15.046,0
8.062,45.259,0
8.063,75.471,0
8.064,48.005,0
8.065,8.637,0
8.066,-6.927,0
8.067,-30.73,0
8.068,-34.942,0
8.069,-38.787,0
8.07,-42.266,0
8.071,-39.153,0
8.072,-36.223,0
8.073,-38.787,0
8.074,-31.646,0
8.075,-29.448,0
8.076,-23.406,0
8.077,-21.575,0
8.078,-16.631,0
8.079,-12.237,0
8.08,-8.208,0
8.081,-11.687,0
8.082,-10.589,0
8.083,-7.659,0
8.084,-6.743,0
8.085,-2.715,0
8.086,-0.518,0
8.087,-3.814,0
8.088,5.708,0
8.089,26.216,0
8.09,29.145,0
8.091,10.469,0
8.092,3.327,0
8.093,-3.264,0
8.094,-5.279,0
8.095,-3.448,0
8.096,-8.391,0
