0,-0.002,0
0.001,2.195,0
0.002,12.449,0
0.003,28.928,0
0.004,44.309,0
0.005,54.38,0
0.006,67.198,0
0.007,52.183,0
0.008,21.97,0
0.009,-17.031,0
0.01,-32.595,0
0.011,-46.877,0
0.012,-42.666,0
0.013,-46.511,0
0.014,-43.032,0
0.015,-39.919,0
0.016,-36.99,0
0.017,-29.116,0
0.018,-21.975,0
0.019,-19.778,0
0.02,-17.763,0
0.021,-15.932,0
0.022,-10.989,0
0.023,-9.524,0
0.024,-8.242,0
0.025,-4.763,0
0.026,-1.467,0
0.027,3.477,0
0.028,4.392,0
0.029,3.66,0
0.03,8.97,0
0.031,10.801,0
0.032,3.843,0
0.033,4.759,0
0.034,8.787,0
0.035,9.519,0
0.036,3.294,0
0.037,7.322,0
0.038,6.59,0
0.039,7.139,0
0.04,4.026,0
0.041,1.28,0
0.042,2.561,0
0.043,4.759,0
0.044,7.505,0
0.045,7.871,0
0.046,6.773,0
0.047,6.04,0
0.048,7.322,0
0.049,4.392,0
0.05,1.829,0
0.051,2.195,0
0.052,2.561,0
0.053,7.139,0
0.054,17.393,0
0.055,39.915,0
0.056,49.436,0
0.057,46.507,0
0.058,54.38,0
0.059,52,0
0.06,54.197,0
0.061,23.985,0
0.062,-23.623,0
0.063,-42.483,0
0.064,-48.159,0
0.065,-63.723,0
0.066,-58.962,0
0.067,-54.751,0
0.068,-50.906,0
0.069,-47.427,0
0.07,-37.905,0
0.071,-29.116,0
0.072,-26.552,0
0.073,-19.411,0
0.074,-21.609,0
0.075,-15.566,0
0.076,-6.411,0
0.077,-4.763,0
0.078,-0.368,0
0.079,6.406,0
0.08,2.927,0
0.081,6.223,0
0.082,5.308,0
0.083,6.223,0
0.084,8.604,0
0.085,9.336,0
0.086,7.505,0
0.087,9.336,0
0.088,10.984,0
0.089,10.618,0
0.09,8.421,0
0.091,6.406,0
0.092,8.97,0
0.093,9.336,0
0.094,8.604,0
0.095,7.322,0
0.096,9.702,0
0.097,8.238,0
0.098,12.449,0
0.099,21.97,0
0.1,25.999,0
0.101,9.885,0
0.102,-0.002,0
0.103,-6.594,0
0.104,-8.608,0
0.105,4.209,0
0.106,29.112,0
0.107,39.732,0
0.108,55.845,0
0.109,52.915,0
0.11,55.479,0
0.111,23.802,0
0.112,-15.2,0
0.113,-41.384,0
0.114,-46.145,0
0.115,-50.356,0
0.116,-54.201,0
0.117,-50.722,0
0.118,-47.61,0
0.119,-38.821,0
0.12,-36.257,0
0.121,-29.116,0
0.122,-22.524,0
0.123,-24.538,0
0.124,-22.707,0
0.125,-14.468,0
0.126,-6.96,0
0.127,-5.678,0
0.128,0.364,0
0.129,3.66,0
0.13,2.744,0
0.131,9.153,0
0.132,8.421,0
0.133,9.153,0
0.134,7.322,0
0.135,7.871,0
0.136,8.421,0
0.137,9.702,0
0.138,4.575,0
0.139,7.871,0
0.14,4.759,0
0.141,6.406,0
0.142,1.829,0
0.143,7.505,0
0.144,9.702,0
0.145,9.153,0
0.146,9.702,0
0.147,10.252,0
0.148,10.618,0
0.149,8.421,0
0.15,5.674,0
0.151,3.843,0
0.152,5.674,0
0.153,5.857,0
0.154,7.322,0
0.155,11.533,0
0.156,21.055,0
0.157,41.563,0
0.158,74.156,0
0.159,52.549,0
0.16,17.027,0
0.161,-16.299,0
0.162,-20.51,0
0.163,-32.229,0
0.164,-28.75,0
0.165,-31.863,0
0.166,-34.792,0
0.167,-26.919,0
0.168,-29.299,0
0.169,-22.707,0
0.17,-20.693,0
0.171,-11.538,0
0.172,-13.186,0
0.173,-11.721,0
0.174,-10.439,0
0.175,-6.96,0
0.176,-3.664,0
0.177,-2.749,0
0.178,-0.002,0
0.179,-0.735,0
0.18,-1.467,0
0.181,0.364,0
0.182,-1.467,0
0.183,-3.115,0
0.184,-1.833,0
0.185,-1.467,0
0.186,3.111,0
0.187,3.66,0
0.188,3.111,0
0.189,1.829,0
0.19,1.463,0
0.191,-0.552,0
0.192,2.927,0
0.193,4.209,0
0.194,1.463,0
0.195,4.026,0
0.196,4.392,0
0.197,4.575,0
0.198,3.843,0
0.199,1.463,0
0.2,-1.284,0
0.201,-0.918,0
0.202,-1.284,0
0.203,-1.467,0
0.204,-0.002,0
0.205,0.73,0
0.206,4.759,0
0.207,13.181,0
0.208,31.675,0
0.209,55.845,0
0.21,58.958,0
0.211,44.126,0
0.212,14.646,0
0.213,-12.82,0
0.214,-30.581,0
0.215,-40.102,0
0.216,-43.032,0
0.217,-45.595,0
0.218,-43.215,0
0.219,-36.623,0
0.22,-30.581,0
0.221,-28.75,0
0.222,-23.806,0
0.223,-19.411,0
0.224,-18.13,0
0.225,-14.651,0
0.226,-11.355,0
0.227,-6.411,0
0.228,-0.002,0
0.229,-0.735,0
0.23,3.111,0
0.231,2.561,0
0.232,-0.552,0
0.233,1.096,0
0.234,4.392,0
0.235,4.026,0
0.236,5.125,0
0.237,6.223,0
0.238,6.59,0
0.239,6.773,0
0.24,4.942,0
0.241,5.125,0
0.242,2.927,0
0.243,6.59,0
0.244,5.308,0
0.245,6.59,0
0.246,7.688,0
0.247,6.59,0
0.248,5.491,0
0.249,4.759,0
0.25,4.575,0
0.251,3.843,0
0.252,5.308,0
0.253,4.209,0
0.254,6.773,0
0.255,8.787,0
0.256,12.815,0
0.257,20.323,0
0.258,37.351,0
0.259,69.029,0
0.26,99.241,0
0.261,79.649,0
0.262,47.422,0
0.263,17.21,0
0.264,-2.383,0
0.265,-20.144,0
0.266,-29.665,0
0.267,-32.595,0
0.268,-30.031,0
0.269,-37.173,0
0.27,-43.764,0
0.271,-49.807,0
0.272,-51.638,0
0.273,-59.878,0
0.274,-64.272,0
0.275,-57.497,0
0.276,-46.328,0
0.277,-32.778,0
0.278,-27.285,0
0.279,-25.637,0
0.28,-36.074,0
0.281,-48.342,0
0.282,-73.244,0
0.283,-91.006,0
0.284,-107.12,0
0.285,-121.95,0
0.286,-135.32,0
0.287,-137.7,0
0.288,-135.5,0
0.289,-121.4,0
0.29,-112.25,0
0.291,-97.231,0
0.292,-75.075,0
0.293,-30.581,0
0.294,64.817,0
0.295,133.12,0
0.296,170.47,0
0.297,181.64,0
0.298,150.88,0
0.299,122.86,0
0.3,114.44,0
0.301,106.75,0
0.302,99.79,0
0.303,93.565,0
0.304,99.241,0
0.305,125.42,0
0.306,142.82,0
0.307,147.58,0
0.308,151.79,0
0.309,147.95,0
0.31,158.57,0
0.311,161.68,0
0.312,158.75,0
0.313,156.19,0
0.314,134.21,0
0.315,89.719,0
0.316,6.956,0
0.317,-4.214,0
0.318,-14.468,0
0.319,-23.806,0
0.32,-49.074,0
0.321,-56.765,0
0.322,-63.723,0
0.323,-69.948,0
0.324,-64.272,0
0.325,-69.399,0
0.326,-55.117,0
0.327,-59.328,0
0.328,-63.174,0
0.329,-59.695,0
0.33,-62.807,0
0.331,-59.878,0
0.332,-62.441,0
0.333,-60.061,0
0.334,-57.864,0
0.335,-55.849,0
0.336,-57.68,0
0.337,-59.328,0
0.338,-57.864,0
0.339,-61.892,0
0.34,-62.99,0
0.341,-59.695,0
0.342,-52.737,0
0.343,-48.159,0
0.344,-35.708,0
0.345,-8.242,0
0.346,-12.087,0
0.347,-22.707,0
0.348,-32.229,0
0.349,-35.158,0
0.35,-32.595,0
0.351,-25.454,0
0.352,-23.257,0
0.353,-25.271,0
0.354,-19.778,0
0.355,-14.834,0
0.356,-10.439,0
0.357,-10.256,0
0.358,-6.228,0
0.359,2.195,0
0.36,19.224,0
0.361,50.901,0
0.362,63.719,0
0.363,75.437,0
0.364,71.958,0
0.365,29.661,0
0.366,-10.622,0
0.367,-26.186,0
0.368,-40.469,0
0.369,-44.68,0
0.37,-40.835,0
0.371,-44.314,0
0.372,-34.792,0
0.373,-31.863,0
0.374,-23.989,0
0.375,-21.609,0
0.376,-15.017,0
0.377,-8.974,0
0.378,-3.481,0
0.379,-1.833,0
0.38,2.561,0
0.381,6.59,0
0.382,7.688,0
0.383,8.787,0
0.384,11.717,0
0.385,14.463,0
0.386,15.196,0
0.387,15.928,0
0.388,16.477,0
0.389,13.365,0
0.39,8.238,0
0.391,11.533,0
0.392,10.984,0
0.393,10.435,0
0.394,11.717,0
0.395,9.519,0
0.396,14.097,0
0.397,17.21,0
0.398,14.463,0
0.399,17.759,0
0.4,13.548,0
0.401,11.9,0
0.402,10.618,0
0.403,6.406,0
0.404,6.956,0
0.405,8.238,0
0.406,5.125,0
0.407,5.491,0
0.408,5.857,0
0.409,4.026,0
0.41,9.519,0
0.411,21.055,0
0.412,45.957,0
0.413,70.86,0
0.414,48.338,0
0.415,9.702,0
0.416,-16.482,0
0.417,-30.764,0
0.418,-34.975,0
0.419,-31.13,0
0.42,-34.609,0
0.421,-31.496,0
0.422,-28.567,0
0.423,-26.003,0
0.424,-23.623,0
0.425,-21.426,0
0.426,-15.383,0
0.427,-13.552,0
0.428,-5.312,0
0.429,-6.777,0
0.43,-0.002,0
0.431,1.096,0
0.432,-0.002,0
0.433,2.927,0
0.434,0.181,0
0.435,-0.552,0
0.436,1.646,0
0.437,4.942,0
0.438,1.829,0
0.439,2.378,0
0.44,2.744,0
0.441,4.026,0
0.442,6.773,0
0.443,6.406,0
0.444,6.04,0
0.445,5.857,0
0.446,5.125,0
0.447,5.308,0
0.448,1.829,0
0.449,0.547,0
0.45,0.913,0
0.451,-0.185,0
0.452,2.378,0
0.453,4.942,0
0.454,2.927,0
0.455,3.111,0
0.456,0.73,0
0.457,2.744,0
0.458,1.463,0
0.459,2.927,0
0.46,0.547,0
0.461,5.125,0
0.462,15.379,0
0.463,37.901,0
0.464,73.606,0
0.465,49.802,0
0.466,10.801,0
0.467,-15.383,0
0.468,-29.665,0
0.469,-42.483,0
0.47,-38.637,0
0.471,-42.116,0
0.472,-32.595,0
0.473,-35.525,0
0.474,-32.961,0
0.475,-25.82,0
0.476,-19.228,0
0.477,-17.214,0
0.478,-11.721,0
0.479,-10.073,0
0.48,-5.678,0
0.481,-4.397,0
0.482,-5.495,0
0.483,-4.397,0
0.484,0.547,0
0.485,-2.199,0
0.486,0.181,0
0.487,4.026,0
0.488,4.575,0
0.489,1.463,0
0.49,-1.284,0
0.491,-0.918,0
0.492,0.364,0
0.493,3.111,0
0.494,1.28,0
0.495,1.646,0
0.496,4.942,0
0.497,4.575,0
0.498,3.477,0
0.499,1.646,0
0.5,-0.185,0
0.501,1.28,0
0.502,2.012,0
0.503,2.195,0
0.504,3.66,0
0.505,2.195,0
0.506,2.378,0
0.507,2.927,0
0.508,1.463,0
0.509,0.913,0
0.51,-0.002,0
0.511,3.294,0
0.512,10.252,0
0.513,25.449,0
0.514,49.802,0
0.515,59.324,0
0.516,74.156,0
0.517,49.986,0
0.518,14.28,0
0.519,-19.045,0
0.52,-31.863,0
0.521,-43.581,0
0.522,-47.06,0
0.523,-43.948,0
0.524,-41.018,0
0.525,-38.454,0
0.526,-31.313,0
0.527,-29.116,0
0.528,-27.102,0
0.529,-21.609,0
0.53,-16.665,0
0.531,-15.2,0
0.532,-8.425,0
0.533,-7.326,0
0.534,-4.031,0
0.535,-4.946,0
0.536,-2.199,0
0.537,-1.467,0
0.538,5.491,0
0.539,6.406,0
0.54,7.139,0
0.541,10.984,0
0.542,6.406,0
0.543,10.801,0
0.544,11.35,0
0.545,10.069,0
0.546,8.787,0
0.547,9.885,0
0.548,11.717,0
0.549,12.083,0
0.55,7.505,0
0.551,5.674,0
0.552,6.223,0
0.553,4.575,0
0.554,2.195,0
0.555,2.561,0
0.556,6.406,0
0.557,1.829,0
0.558,2.378,0
0.559,-0.368,0
0.56,-1.65,0
0.561,4.392,0
0.562,2.195,0
0.563,8.421,0
0.564,22.337,0
0.565,52.549,0
0.566,74.156,0
0.567,54.563,0
0.568,15.196,0
0.569,-10.989,0
0.57,-25.271,0
0.571,-29.482,0
0.572,-33.327,0
0.573,-36.806,0
0.574,-33.694,0
0.575,-30.764,0
0.576,-22.89,0
0.577,-20.51,0
0.578,-18.313,0
0.579,-16.299,0
0.58,-14.468,0
0.581,-12.82,0
0.582,-8.425,0
0.583,-9.707,0
0.584,-3.664,0
0.585,-4.763,0
0.586,0.181,0
0.587,1.096,0
0.588,0.364,0
0.589,7.322,0
0.59,21.238,0
0.591,39.365,0
0.592,17.393,0
0.593,8.604,0
0.594,0.73,0
0.595,-6.411,0
0.596,0.181,0
0.597,-5.862,0
0.598,-4.031,0
0.599,-2.383,0
0.6,-3.847,0
0.601,-5.129,0
0.602,-4.031,0
0.603,-5.129,0
0.604,-2.199,0
0.605,-4.946,0
0.606,-0.918,0
0.607,-0.185,0
0.608,0.364,0
0.609,-2.749,0
0.61,-1.101,0
0.611,2.195,0
0.612,-0.002,0
0.613,3.111,0
0.614,1.096,0
0.615,6.773,0
0.616,19.224,0
0.617,46.69,0
0.618,50.535,0
0.619,54.014,0
0.62,50.901,0
0.621,65.733,0
0.622,30.76,0
0.623,-12.27,0
0.624,-41.018,0
0.625,-46.145,0
0.626,-60.427,0
0.627,-56.216,0
0.628,-52.37,0
0.629,-48.891,0
0.63,-39.37,0
0.631,-42.3,0
0.632,-34.426,0
0.633,-36.806,0
0.634,-25.82,0
0.635,-19.778,0
0.636,-10.622,0
0.637,-12.27,0
0.638,-4.763,0
0.639,-3.481,0
0.64,-0.002,0
0.641,1.096,0
0.642,6.04,0
0.643,8.787,0
0.644,6.406,0
0.645,10.252,0
0.646,12.083,0
0.647,10.252,0
0.648,11.9,0
0.649,10.618,0
0.65,12.815,0
0.651,8.97,0
0.652,8.604,0
0.653,8.238,0
0.654,10.252,0
0.655,9.153,0
0.656,8.054,0
0.657,8.238,0
0.658,8.97,0
0.659,6.59,0
0.66,5.857,0
0.661,2.195,0
0.662,6.773,0
0.663,3.66,0
0.664,5.491,0
0.665,13.914,0
0.666,32.407,0
0.667,56.577,0
0.668,53.465,0
0.669,74.156,0
0.67,60.789,0
0.671,24.351,0
0.672,-22.89,0
0.673,-41.75,0
0.674,-47.427,0
0.675,-52.553,0
0.676,-47.793,0
0.677,-43.581,0
0.678,-39.736,0
0.679,-36.257,0
0.68,-33.144,0
0.681,-24.355,0
0.682,-21.792,0
0.683,-19.411,0
0.684,-17.214,0
0.685,-11.172,0
0.686,-9.341,0
0.687,-4.397,0
0.688,-0.002,0
0.689,1.28,0
0.69,-4.763,0
0.691,0.913,0
0.692,5.857,0
0.693,3.111,0
0.694,5.491,0
0.695,7.688,0
0.696,8.238,0
0.697,11.35,0
0.698,7.505,0
0.699,9.885,0
0.7,6.773,0
0.701,7.139,0
0.702,11.35,0
0.703,7.505,0
0.704,6.223,0
0.705,8.421,0
0.706,8.787,0
0.707,11.35,0
0.708,8.787,0
0.709,8.054,0
0.71,7.322,0
0.711,7.505,0
0.712,4.942,0
0.713,3.111,0
0.714,-1.467,0
0.715,-6.045,0
0.716,1.463,0
0.717,16.66,0
0.718,45.408,0
0.719,65,0
0.72,68.479,0
0.721,32.774,0
0.722,-10.256,0
0.723,-27.468,0
0.724,-32.595,0
0.725,-37.356,0
0.726,-33.144,0
0.727,-36.99,0
0.728,-33.51,0
0.729,-30.398,0
0.73,-27.468,0
0.731,-24.905,0
0.732,-17.763,0
0.733,-15.566,0
0.734,-9.524,0
0.735,-7.693,0
0.736,-6.045,0
0.737,-4.58,0
0.738,-5.862,0
0.739,0.181,0
0.74,3.477,0
0.741,4.392,0
0.742,-0.185,0
0.743,2.195,0
0.744,-0.002,0
0.745,6.223,0
0.746,6.956,0
0.747,4.759,0
0.748,5.308,0
0.749,4.759,0
0.75,3.111,0
0.751,6.406,0
0.752,12.449,0
0.753,6.773,0
0.754,6.04,0
0.755,4.209,0
0.756,2.378,0
0.757,4.026,0
0.758,0.73,0
0.759,3.843,0
0.76,4.209,0
0.761,2.378,0
0.762,1.28,0
0.763,-1.467,0
0.764,1.096,0
0.765,-0.735,0
0.766,-1.833,0
0.767,2.744,0
0.768,12.998,0
0.769,35.52,0
0.77,51.634,0
0.771,60.423,0
0.772,41.746,0
0.773,10.069,0
0.774,-20.144,0
0.775,-31.863,0
0.776,-35.342,0
0.777,-32.229,0
0.778,-41.018,0
0.779,-43.581,0
0.78,-41.201,0
0.781,-34.609,0
0.782,-32.595,0
0.783,-27.102,0
0.784,-18.862,0
0.785,-20.327,0
0.786,-19.045,0
0.787,-7.876,0
0.788,-3.481,0
0.789,-4.763,0
0.79,1.28,0
0.791,6.956,0
0.792,7.871,0
0.793,8.787,0
0.794,8.054,0
0.795,5.857,0
0.796,6.406,0
0.797,4.575,0
0.798,6.223,0
0.799,5.857,0
0.8,3.66,0
0.801,4.026,0
0.802,1.463,0
0.803,0.364,0
0.804,3.111,0
0.805,3.477,0
0.806,3.843,0
0.807,1.829,0
0.808,4.942,0
0.809,0.364,0
0.81,6.04,0
0.811,5.308,0
0.812,2.012,0
0.813,5.125,0
0.814,5.674,0
0.815,1.096,0
0.816,-2.199,0
0.817,-0.368,0
0.818,8.054,0
0.819,26.548,0
0.82,39.915,0
0.821,66.648,0
0.822,56.028,0
0.823,26.731,0
0.824,-8.791,0
0.825,-23.073,0
0.826,-35.891,0
0.827,-39.736,0
0.828,-43.215,0
0.829,-33.694,0
0.83,-24.905,0
0.831,-22.341,0
0.832,-19.961,0
0.833,-17.763,0
0.834,-11.721,0
0.835,4.759,0
0.836,29.112,0
0.837,25.999,0
0.838,11.167,0
0.839,-2.199,0
0.84,-4.58,0
0.841,-11.172,0
0.842,-13.186,0
0.843,-15.017,0
0.844,-10.073,0
0.845,-8.608,0
0.846,-7.326,0
0.847,-10.805,0
0.848,-5.129,0
0.849,-4.214,0
0.85,-3.298,0
0.851,-0.918,0
0.852,2.927,0
0.853,-0.368,0
0.854,1.463,0
0.855,4.209,0
0.856,5.491,0
0.857,4.209,0
0.858,6.223,0
0.859,4.392,0
0.86,1.829,0
0.861,3.843,0
0.862,5.674,0
0.863,4.942,0
0.864,6.406,0
0.865,4.392,0
0.866,4.575,0
0.867,7.322,0
0.868,5.857,0
0.869,9.153,0
0.87,16.111,0
0.871,31.309,0
0.872,55.662,0
0.873,52.549,0
0.874,43.76,0
0.875,14.28,0
0.876,-13.186,0
0.877,-30.947,0
0.878,-40.469,0
0.879,-43.398,0
0.88,-45.962,0
0.881,-43.581,0
0.882,-41.384,0
0.883,-35.342,0
0.884,-29.848,0
0.885,-21.609,0
0.886,-23.073,0
0.887,-16.299,0
0.888,-15.2,0
0.889,-7.326,0
0.89,-8.242,0
0.891,-1.833,0
0.892,2.195,0
0.893,2.927,0
0.894,3.477,0
0.895,5.308,0
0.896,5.857,0
0.897,10.435,0
0.898,12.266,0
0.899,8.421,0
0.9,9.702,0
0.901,4.575,0
0.902,7.871,0
0.903,6.04,0
0.904,3.294,0
0.905,2.012,0
0.906,5.125,0
0.907,-1.101,0
0.908,-0.185,0
0.909,2.195,0
0.91,-0.002,0
0.911,1.829,0
0.912,1.28,0
0.913,1.829,0
0.914,5.125,0
0.915,6.406,0
0.916,2.561,0
0.917,2.927,0
0.918,-2.932,0
0.919,-6.045,0
0.92,0.181,0
0.921,14.097,0
0.922,44.309,0
0.923,65.916,0
0.924,46.323,0
0.925,21.421,0
0.926,-1.101,0
0.927,-21.792,0
0.928,-29.665,0
0.929,-36.806,0
0.93,-34.609,0
0.931,-40.652,0
0.932,-35.158,0
0.933,-30.215,0
0.934,-22.707,0
0.935,-18.679,0
0.936,-12.636,0
0.937,-9.341,0
0.938,-8.425,0
0.939,-5.678,0
0.94,-1.65,0
0.941,-2.383,0
0.942,0.913,0
0.943,2.744,0
0.944,1.096,0
0.945,2.378,0
0.946,8.421,0
0.947,4.392,0
0.948,5.125,0
0.949,3.294,0
0.95,0.181,0
0.951,-1.467,0
0.952,5.125,0
0.953,4.209,0
0.954,1.829,0
0.955,-2.016,0
0.956,-2.566,0
0.957,1.829,0
0.958,2.378,0
0.959,3.66,0
0.96,4.942,0
0.961,2.927,0
0.962,4.759,0
0.963,6.59,0
0.964,9.885,0
0.965,2.927,0
0.966,2.012,0
0.967,6.59,0
0.968,5.857,0
0.969,5.125,0
0.97,1.28,0
0.971,11.533,0
0.972,15.928,0
0.973,36.436,0
0.974,45.225,0
0.975,58.592,0
0.976,60.972,0
0.977,49.986,0
0.978,19.773,0
0.979,-19.228,0
0.98,-45.412,0
0.981,-50.173,0
0.982,-54.385,0
0.983,-50.539,0
0.984,-47.06,0
0.985,-43.948,0
0.986,-41.018,0
0.987,-33.144,0
0.988,-26.003,0
0.989,-23.806,0
0.99,-17.763,0
0.991,-12.27,0
0.992,-10.622,0
0.993,-6.228,0
0.994,-2.199,0
0.995,-1.101,0
0.996,2.195,0
0.997,7.139,0
0.998,8.054,0
0.999,7.322,0
1,5.125,0
1.001,8.421,0
1.002,11.533,0
1.003,8.787,0
1.004,6.406,0
1.005,6.773,0
1.006,7.139,0
1.007,6.04,0
1.008,3.477,0
1.009,0.181,0
1.01,2.378,0
1.011,5.125,0
1.012,7.688,0
1.013,2.195,0
1.014,6.04,0
1.015,2.744,0
1.016,0.913,0
1.017,4.759,0
1.018,4.392,0
1.019,7.505,0
1.02,2.927,0
1.021,1.829,0
1.022,7.505,0
1.023,13.181,0
1.024,24.717,0
1.025,49.619,0
1.026,46.14,0
1.027,10.435,0
1.028,-13.369,0
1.029,-26.186,0
1.03,-30.031,0
1.031,-33.51,0
1.032,-30.398,0
1.033,-21.609,0
1.034,-19.045,0
1.035,-6.96,0
1.036,-0.368,0
1.037,5.674,0
1.038,11.167,0
1.039,19.407,0
1.04,20.872,0
1.041,14.097,0
1.042,12.998,0
1.043,11.9,0
1.044,8.97,0
1.045,8.054,0
1.046,-1.101,0
1.047,-17.214,0
1.048,-23.806,0
1.049,-29.848,0
1.05,-42.666,0
1.051,-50.906,0
1.052,-43.398,0
1.053,-33.877,0
1.054,-22.707,0
1.055,-18.313,0
1.056,-36.074,0
1.057,-58.047,0
1.058,-66.836,0
1.059,-96.316,0
1.06,-115.91,0
1.061,-133.67,0
1.062,-136.78,0
1.063,-151.61,0
1.064,-154.18,0
1.065,-147.04,0
1.066,-127.08,0
1.067,-113.71,0
1.068,-101.63,0
1.069,-68.484,0
1.07,3.111,0
1.071,79.832,0
1.072,151.61,0
1.073,179.62,0
1.074,188.05,0
1.075,195.74,0
1.076,202.7,0
1.077,183.84,0
1.078,143.55,0
1.079,117.37,0
1.08,122.13,0
1.081,126.34,0
1.082,169.74,0
1.083,175.41,0
1.084,149.23,0
1.085,134.95,0
1.086,104.73,0
1.087,93.015,0
1.088,89.536,0
1.089,73.423,0
1.09,46.69,0
1.091,28.928,0
1.092,19.407,0
1.093,16.477,0
1.094,13.914,0
1.095,6.773,0
1.096,-8.608,0
1.097,-22.707,0
1.098,-28.2,0
1.099,-33.144,0
1.1,-43.581,0
1.101,-42.3,0
1.102,-38.821,0
1.103,-46.694,0
1.104,-53.652,0
1.105,-49.074,0
1.106,-48.342,0
1.107,-49.074,0
1.108,-50.906,0
1.109,-55.3,0
1.11,-54.751,0
1.111,-61.343,0
1.112,-65.92,0
1.113,-71.596,0
1.114,-70.864,0
1.115,-72.695,0
1.116,-72.146,0
1.117,-65.92,0
1.118,-60.244,0
1.119,-62.441,0
1.12,-59.145,0
1.121,-60.976,0
1.122,-53.469,0
1.123,-45.046,0
1.124,-31.496,0
1.125,-11.355,0
1.126,12.815,0
1.127,28.928,0
1.128,55.662,0
1.129,30.76,0
1.13,14.646,0
1.131,-17.947,0
1.132,-30.764,0
1.133,-42.483,0
1.134,-39.004,0
1.135,-42.116,0
1.136,-39.187,0
1.137,-31.313,0
1.138,-28.933,0
1.139,-26.736,0
1.14,-16.665,0
1.141,-11.172,0
1.142,-9.524,0
1.143,-5.129,0
1.144,-3.847,0
1.145,4.575,0
1.146,5.674,0
1.147,4.759,0
1.148,5.674,0
1.149,11.35,0
1.15,13.548,0
1.151,12.998,0
1.152,14.829,0
1.153,14.28,0
1.154,13.914,0
1.155,12.632,0
1.156,10.618,0
1.157,14.097,0
1.158,13.731,0
1.159,13.365,0
1.16,12.266,0
1.161,12.632,0
1.162,15.928,0
1.163,17.21,0
1.164,17.576,0
1.165,18.675,0
1.166,15.379,0
1.167,11.533,0
1.168,8.238,0
1.169,6.04,0
1.17,10.618,0
1.171,10.069,0
1.172,10.618,0
1.173,10.984,0
1.174,3.477,0
1.175,15.928,0
1.176,37.534,0
1.177,64.268,0
1.178,74.888,0
1.179,45.591,0
1.18,10.069,0
1.181,-13.735,0
1.182,-17.947,0
1.183,-29.665,0
1.184,-33.144,0
1.185,-30.031,0
1.186,-32.961,0
1.187,-25.088,0
1.188,-27.468,0
1.189,-20.876,0
1.19,-14.834,0
1.191,-16.665,0
1.192,-11.721,0
1.193,-4.214,0
1.194,-5.495,0
1.195,-2.016,0
1.196,-7.693,0
1.197,-0.735,0
1.198,0.181,0
1.199,4.209,0
1.2,4.942,0
1.201,6.773,0
1.202,4.942,0
1.203,1.096,0
1.204,2.378,0
1.205,4.575,0
1.206,1.829,0
1.207,6.04,0
1.208,3.294,0
1.209,3.66,0
1.21,4.026,0
1.211,2.012,0
1.212,6.223,0
1.213,4.575,0
1.214,4.209,0
1.215,5.491,0
1.216,2.744,0
1.217,0.913,0
1.218,-0.185,0
1.219,-0.002,0
1.22,1.28,0
1.221,-0.002,0
1.222,3.477,0
1.223,-1.101,0
1.224,-0.002,0
1.225,3.111,0
1.226,11.533,0
1.227,25.083,0
1.228,52.549,0
1.229,72.141,0
1.23,54.38,0
1.231,12.083,0
1.232,-16.665,0
1.233,-32.229,0
1.234,-36.99,0
1.235,-32.778,0
1.236,-36.623,0
1.237,-33.144,0
1.238,-36.257,0
1.239,-33.327,0
1.24,-30.764,0
1.241,-23.623,0
1.242,-21.426,0
1.243,-11.355,0
1.244,-9.524,0
1.245,-7.876,0
1.246,-6.411,0
1.247,-2.383,0
1.248,1.096,0
1.249,-2.199,0
1.25,-1.284,0
1.251,1.463,0
1.252,0.73,0
1.253,2.927,0
1.254,2.378,0
1.255,0.547,0
1.256,3.294,0
1.257,2.012,0
1.258,0.73,0
1.259,5.308,0
1.26,8.421,0
1.261,3.294,0
1.262,6.59,0
1.263,7.139,0
1.264,4.392,0
1.265,-1.101,0
1.266,1.096,0
1.267,0.547,0
1.268,-3.847,0
1.269,-3.298,0
1.27,-0.918,0
1.271,2.195,0
1.272,2.561,0
1.273,0.73,0
1.274,2.561,0
1.275,2.195,0
1.276,1.463,0
1.277,5.674,0
1.278,15.196,0
1.279,35.703,0
1.28,74.339,0
1.281,48.155,0
1.282,14.829,0
1.283,-15.383,0
1.284,-27.102,0
1.285,-30.581,0
1.286,-33.694,0
1.287,-30.764,0
1.288,-33.327,0
1.289,-30.947,0
1.29,-28.75,0
1.291,-22.707,0
1.292,-17.214,0
1.293,-12.27,0
1.294,-10.805,0
1.295,-6.777,0
1.296,-3.298,0
1.297,-2.199,0
1.298,-5.129,0
1.299,-6.045,0
1.3,-3.664,0
1.301,3.294,0
1.302,6.04,0
1.303,3.66,0
1.304,4.392,0
1.305,1.096,0
1.306,5.491,0
1.307,4.942,0
1.308,6.223,0
1.309,10.435,0
1.31,5.308,0
1.311,9.885,0
1.312,6.773,0
1.313,10.618,0
1.314,8.238,0
1.315,6.956,0
1.316,5.857,0
1.317,9.336,0
1.318,6.223,0
1.319,4.209,0
1.32,3.111,0
1.321,4.209,0
1.322,2.744,0
1.323,-1.467,0
1.324,-0.918,0
1.325,-0.368,0
1.326,5.125,0
1.327,12.632,0
1.328,29.661,0
1.329,22.52,0
1.33,7.139,0
1.331,-6.96,0
1.332,2.195,0
1.333,23.802,0
1.334,38.633,0
1.335,41.197,0
1.336,38.816,0
1.337,45.408,0
1.338,43.394,0
1.339,15.928,0
1.34,-35.342,0
1.341,-56.216,0
1.342,-62.441,0
1.343,-56.765,0
1.344,-61.892,0
1.345,-57.131,0
1.346,-52.92,0
1.347,-41.201,0
1.348,-37.722,0
1.349,-34.609,0
1.35,-25.82,0
1.351,-17.947,0
1.352,-10.805,0
1.353,-8.608,0
1.354,-6.594,0
1.355,-1.101,0
1.356,0.547,0
1.357,8.054,0
1.358,6.773,0
1.359,7.871,0
1.36,8.97,0
1.361,13.914,0
1.362,14.829,0
1.363,14.097,0
1.364,11.9,0
1.365,11.35,0
1.366,11.9,0
1.367,11.35,0
1.368,10.069,0
1.369,9.702,0
1.37,7.688,0
1.371,7.322,0
1.372,8.421,0
1.373,5.125,0
1.374,5.491,0
1.375,3.477,0
1.376,7.688,0
1.377,5.125,0
1.378,5.674,0
1.379,13.181,0
1.38,28.013,0
1.381,50.169,0
1.382,47.239,0
1.383,60.606,0
1.384,72.691,0
1.385,39.549,0
1.386,-3.481,0
1.387,-32.229,0
1.388,-47.793,0
1.389,-52.553,0
1.39,-48.342,0
1.391,-44.497,0
1.392,-41.018,0
1.393,-31.496,0
1.394,-28.567,0
1.395,-26.003,0
1.396,-23.623,0
1.397,-21.426,0
1.398,-19.411,0
1.399,-13.918,0
1.4,-8.974,0
1.401,-4.58,0
1.402,-3.298,0
1.403,-2.199,0
1.404,1.096,0
1.405,6.04,0
1.406,5.125,0
1.407,5.857,0
1.408,5.125,0
1.409,6.956,0
1.41,3.843,0
1.411,8.97,0
1.412,7.139,0
1.413,11.533,0
1.414,9.885,0
1.415,6.59,0
1.416,3.477,0
1.417,7.322,0
1.418,6.04,0
1.419,5.674,0
1.42,3.66,0
1.421,6.223,0
1.422,6.59,0
1.423,5.125,0
1.424,0.913,0
1.425,2.744,0
1.426,1.096,0
1.427,2.378,0
1.428,4.392,0
1.429,4.759,0
1.43,10.984,0
1.431,24.9,0
1.432,55.113,0
1.433,67.93,0
1.434,40.464,0
1.435,1.096,0
1.436,-25.088,0
1.437,-29.848,0
1.438,-34.06,0
1.439,-37.905,0
1.44,-34.426,0
1.441,-31.313,0
1.442,-34.243,0
1.443,-26.369,0
1.444,-19.228,0
1.445,-17.031,0
1.446,-15.017,0
1.447,-13.186,0
1.448,-11.538,0
1.449,-7.143,0
1.45,-3.115,0
1.451,-2.016,0
1.452,-3.115,0
1.453,-0.185,0
1.454,-2.932,0
1.455,-0.552,0
1.456,4.759,0
1.457,4.209,0
1.458,6.04,0
1.459,6.59,0
1.46,3.294,0
1.461,7.505,0
1.462,4.759,0
1.463,4.392,0
1.464,7.505,0
1.465,4.759,0
1.466,5.857,0
1.467,6.223,0
1.468,1.646,0
1.469,-0.185,0
1.47,1.646,0
1.471,2.195,0
1.472,4.575,0
1.473,3.294,0
1.474,2.195,0
1.475,3.294,0
1.476,1.463,0
1.477,3.477,0
1.478,3.66,0
1.479,-0.002,0
1.48,0.181,0
1.481,3.66,0
1.482,11.167,0
1.483,28.196,0
1.484,64.634,0
1.485,69.761,0
1.486,26.731,0
1.487,-13.552,0
1.488,-29.116,0
1.489,-43.398,0
1.49,-39.187,0
1.491,-35.342,0
1.492,-38.821,0
1.493,-35.708,0
1.494,-32.778,0
1.495,-24.905,0
1.496,-22.524,0
1.497,-20.327,0
1.498,-18.313,0
1.499,-12.82,0
1.5,-7.876,0
1.501,-6.411,0
1.502,-5.129,0
1.503,-4.031,0
1.504,-0.735,0
1.505,2.195,0
1.506,3.111,0
1.507,3.843,0
1.508,3.111,0
1.509,3.66,0
1.51,6.773,0
1.511,9.519,0
1.512,7.139,0
1.513,8.421,0
1.514,9.519,0
1.515,7.688,0
1.516,8.787,0
1.517,6.04,0
1.518,4.209,0
1.519,1.646,0
1.52,0.913,0
1.521,1.646,0
1.522,2.927,0
1.523,3.477,0
1.524,0.181,0
1.525,3.294,0
1.526,3.66,0
1.527,1.829,0
1.528,0.73,0
1.529,0.913,0
1.53,5.857,0
1.531,1.646,0
1.532,9.885,0
1.533,22.337,0
1.534,40.647,0
1.535,47.788,0
1.536,49.986,0
1.537,47.971,0
1.538,46.14,0
1.539,41.197,0
1.54,21.604,0
1.541,-13.369,0
1.542,-37.173,0
1.543,-58.779,0
1.544,-62.624,0
1.545,-59.145,0
1.546,-56.032,0
1.547,-53.103,0
1.548,-45.229,0
1.549,-42.849,0
1.55,-31.863,0
1.551,-29.848,0
1.552,-20.693,0
1.553,-19.045,0
1.554,-14.651,0
1.555,-10.622,0
1.556,-7.143,0
1.557,-3.847,0
1.558,3.111,0
1.559,5.857,0
1.56,6.59,0
1.561,10.435,0
1.562,12.266,0
1.563,9.153,0
1.564,8.604,0
1.565,10.984,0
1.566,9.702,0
1.567,10.069,0
1.568,11.9,0
1.569,9.336,0
1.57,6.59,0
1.571,9.153,0
1.572,12.449,0
1.573,18.675,0
1.574,32.591,0
1.575,18.491,0
1.576,9.336,0
1.577,1.096,0
1.578,-3.298,0
1.579,-4.58,0
1.58,-8.059,0
1.581,-10.256,0
1.582,-6.96,0
1.583,-2.016,0
1.584,11.9,0
1.585,42.112,0
1.586,54.929,0
1.587,58.775,0
1.588,48.155,0
1.589,12.449,0
1.59,-20.876,0
1.591,-33.694,0
1.592,-45.412,0
1.593,-48.891,0
1.594,-45.779,0
1.595,-36.99,0
1.596,-34.426,0
1.597,-32.046,0
1.598,-25.454,0
1.599,-23.44,0
1.6,-17.947,0
1.601,-13.003,0
1.602,-8.608,0
1.603,-7.326,0
1.604,-3.847,0
1.605,-2.749,0
1.606,0.181,0
1.607,1.096,0
1.608,1.829,0
1.609,5.674,0
1.61,6.223,0
1.611,9.336,0
1.612,9.885,0
1.613,13.181,0
1.614,11.9,0
1.615,7.322,0
1.616,6.773,0
1.617,7.322,0
1.618,4.026,0
1.619,6.223,0
1.62,5.125,0
1.621,4.026,0
1.622,3.66,0
1.623,8.238,0
1.624,7.688,0
1.625,5.857,0
1.626,5.308,0
1.627,5.674,0
1.628,6.04,0
1.629,5.674,0
1.63,5.308,0
1.631,3.477,0
1.632,2.195,0
1.633,-0.552,0
1.634,5.125,0
1.635,17.576,0
1.636,37.718,0
1.637,51.084,0
1.638,53.465,0
1.639,46.873,0
1.64,44.859,0
1.641,35.703,0
1.642,24.168,0
1.643,16.66,0
1.644,26.182,0
1.645,17.759,0
1.646,12.083,0
1.647,-3.115,0
1.648,-36.257,0
1.649,-79.287,0
1.65,-84.963,0
1.651,-79.836,0
1.652,-75.075,0
1.653,-70.864,0
1.654,-59.145,0
1.655,-55.666,0
1.656,-39.553,0
1.657,-30.764,0
1.658,-22.89,0
1.659,-15.749,0
1.66,-9.157,0
1.661,-3.115,0
1.662,6.04,0
1.663,4.392,0
1.664,2.927,0
1.665,6.956,0
1.666,5.857,0
1.667,6.956,0
1.668,7.871,0
1.669,8.787,0
1.67,12.815,0
1.671,16.66,0
1.672,13.365,0
1.673,20.323,0
1.674,17.576,0
1.675,19.956,0
1.676,20.689,0
1.677,18.858,0
1.678,17.027,0
1.679,17.576,0
1.68,12.998,0
1.681,11.167,0
1.682,16.294,0
1.683,13.181,0
1.684,9.885,0
1.685,19.407,0
1.686,31.675,0
1.687,49.986,0
1.688,62.071,0
1.689,64.268,0
1.69,66.282,0
1.691,57.127,0
1.692,32.224,0
1.693,-21.426,0
1.694,-44.497,0
1.695,-51.455,0
1.696,-45.229,0
1.697,-50.906,0
1.698,-56.032,0
1.699,-51.272,0
1.7,-47.06,0
1.701,-35.342,0
1.702,-31.863,0
1.703,-22.341,0
1.704,-19.411,0
1.705,-16.848,0
1.706,-9.707,0
1.707,-7.51,0
1.708,-1.467,0
1.709,0.364,0
1.71,5.308,0
1.711,9.702,0
1.712,8.421,0
1.713,4.942,0
1.714,3.843,0
1.715,6.773,0
1.716,4.026,0
1.717,4.759,0
1.718,6.956,0
1.719,6.406,0
1.72,3.294,0
1.721,4.942,0
1.722,1.646,0
1.723,3.843,0
1.724,2.744,0
1.725,7.688,0
1.726,1.463,0
1.727,3.843,0
1.728,4.575,0
1.729,6.406,0
1.73,8.238,0
1.731,6.59,0
1.732,4.209,0
1.733,4.575,0
1.734,3.66,0
1.735,1.646,0
1.736,7.322,0
1.737,19.773,0
1.738,47.239,0
1.739,58.958,0
1.74,69.578,0
1.741,47.056,0
1.742,8.421,0
1.743,-17.763,0
1.744,-32.046,0
1.745,-44.863,0
1.746,-41.018,0
1.747,-44.497,0
1.748,-41.384,0
1.749,-38.454,0
1.75,-35.891,0
1.751,-28.75,0
1.752,-26.552,0
1.753,-24.538,0
1.754,-15.383,0
1.755,-13.735,0
1.756,-12.27,0
1.757,-8.242,0
1.758,-2.199,0
1.759,-1.101,0
1.76,-2.016,0
1.761,2.561,0
1.762,4.942,0
1.763,5.674,0
1.764,6.223,0
1.765,5.674,0
1.766,6.223,0
1.767,5.857,0
1.768,2.744,0
1.769,2.378,0
1.77,3.477,0
1.771,3.843,0
1.772,5.857,0
1.773,2.195,0
1.774,2.561,0
1.775,3.843,0
1.776,3.477,0
1.777,7.688,0
1.778,3.843,0
1.779,3.477,0
1.78,3.111,0
1.781,5.857,0
1.782,9.336,0
1.783,10.618,0
1.784,13.365,0
1.785,14.646,0
1.786,20.323,0
1.787,32.774,0
1.788,60.24,0
1.789,79.832,0
1.79,90.452,0
1.791,67.93,0
1.792,23.435,0
1.793,4.575,0
1.794,-12.636,0
1.795,-28.2,0
1.796,-42.483,0
1.797,-55.3,0
1.798,-59.145,0
1.799,-69.765,0
1.8,-66.653,0
1.801,-69.582,0
1.802,-61.709,0
1.803,-49.624,0
1.804,-34.243,0
1.805,-36.257,0
1.806,-45.412,0
1.807,-60.427,0
1.808,-70.498,0
1.809,-90.639,0
1.81,-104.01,0
1.811,-116.09,0
1.812,-122.68,0
1.813,-132.75,0
1.814,-130.92,0
1.815,-135.87,0
1.816,-119.39,0
1.817,-112.8,0
1.818,-82.583,0
1.819,-17.58,0
1.82,85.142,0
1.821,125.97,0
1.822,163.33,0
1.823,152.16,0
1.824,141.91,0
1.825,113.89,0
1.826,105.47,0
1.827,82.395,0
1.828,89.353,0
1.829,83.128,0
1.83,100.34,0
1.831,115.9,0
1.832,139.71,0
1.833,143.92,0
1.834,140.07,0
1.835,129.45,0
1.836,122.31,0
1.837,119.2,0
1.838,110.41,0
1.839,112.97,0
1.84,115.35,0
1.841,104.37,0
1.842,78.184,0
1.843,60.423,0
1.844,31.126,0
1.845,3.66,0
1.846,-21.242,0
1.847,-37.356,0
1.848,-46.145,0
1.849,-54.018,0
1.85,-61.159,0
1.851,-58.962,0
1.852,-52.92,0
1.853,-62.075,0
1.854,-70.315,0
1.855,-74.709,0
1.856,-70.681,0
1.857,-67.202,0
1.858,-63.906,0
1.859,-60.976,0
1.86,-61.892,0
1.861,-57.864,0
1.862,-55.666,0
1.863,-61.892,0
1.864,-62.624,0
1.865,-61.892,0
1.866,-60.061,0
1.867,-56.948,0
1.868,-55.3,0
1.869,-50.722,0
1.87,-48.891,0
1.871,-41.567,0
1.872,-38.637,0
1.873,-35.891,0
1.874,-31.863,0
1.875,-24.905,0
1.876,-20.327,0
1.877,-12.82,0
1.878,-11.904,0
1.879,-7.326,0
1.88,-8.059,0
1.881,-5.862,0
1.882,-7.693,0
1.883,-4.58,0
1.884,-4.031,0
1.885,0.547,0
1.886,-2.566,0
1.887,0.73,0
1.888,-0.918,0
1.889,6.59,0
1.89,23.618,0
1.891,60.056,0
1.892,75.62,0
1.893,42.295,0
1.894,12.083,0
1.895,-7.51,0
1.896,-18.13,0
1.897,-21.242,0
1.898,-24.172,0
1.899,-26.736,0
1.9,-19.594,0
1.901,-21.792,0
1.902,-15.749,0
1.903,-13.918,0
1.904,-8.974,0
1.905,-7.51,0
1.906,-3.481,0
1.907,2.561,0
1.908,1.463,0
1.909,2.378,0
1.91,5.125,0
1.911,5.857,0
1.912,8.054,0
1.913,9.885,0
1.914,10.435,0
1.915,8.787,0
1.916,11.167,0
1.917,10.801,0
1.918,13.548,0
1.919,9.336,0
1.92,9.885,0
1.921,8.604,0
1.922,8.238,0
1.923,8.604,0
1.924,8.97,0
1.925,7.871,0
1.926,7.139,0
1.927,9.702,0
1.928,8.604,0
1.929,6.59,0
1.93,7.322,0
1.931,7.505,0
1.932,6.04,0
1.933,2.744,0
1.934,-0.368,0
1.935,3.477,0
1.936,3.843,0
1.937,2.561,0
1.938,2.195,0
1.939,2.561,0
1.94,8.238,0
1.941,20.689,0
1.942,48.155,0
1.943,75.62,0
1.944,43.394,0
1.945,4.392,0
1.946,-11.172,0
1.947,-25.454,0
1.948,-38.271,0
1.949,-34.426,0
1.95,-30.947,0
1.951,-34.06,0
1.952,-31.13,0
1.953,-23.257,0
1.954,-25.637,0
1.955,-19.045,0
1.956,-17.031,0
1.957,-15.2,0
1.958,-6.96,0
1.959,-5.495,0
1.96,-4.214,0
1.961,1.829,0
1.962,2.927,0
1.963,3.843,0
1.964,2.927,0
1.965,3.66,0
1.966,5.857,0
1.967,6.406,0
1.968,3.294,0
1.969,3.843,0
1.97,-0.735,0
1.971,4.942,0
1.972,2.744,0
1.973,3.294,0
1.974,3.843,0
1.975,3.294,0
1.976,4.575,0
1.977,6.773,0
1.978,8.787,0
1.979,5.308,0
1.98,4.942,0
1.981,3.843,0
1.982,4.209,0
1.983,2.378,0
1.984,0.913,0
1.985,0.181,0
1.986,-3.847,0
1.987,-1.101,0
1.988,0.181,0
1.989,0.73,0
1.99,1.096,0
1.991,7.322,0
1.992,21.238,0
1.993,47.422,0
1.994,72.324,0
1.995,62.803,0
1.996,30.21,0
1.997,-8.791,0
1.998,-24.355,0
1.999,-29.116,0
2,-33.327,0
2.001,-37.173,0
2.002,-40.652,0
2.003,-37.539,0
2.004,-34.609,0
2.005,-32.046,0
2.006,-24.905,0
2.007,-22.707,0
2.008,-16.665,0
2.009,-14.834,0
2.01,-6.594,0
2.011,-5.129,0
2.012,-3.847,0
2.013,-4.946,0
2.014,-3.847,0
2.015,-2.932,0
2.016,3.477,0
2.017,4.209,0
2.018,3.477,0
2.019,5.308,0
2.02,3.477,0
2.021,2.927,0
2.022,2.561,0
2.023,2.927,0
2.024,4.942,0
2.025,5.308,0
2.026,6.406,0
2.027,4.942,0
2.028,8.604,0
2.029,6.223,0
2.03,3.111,0
2.031,0.364,0
2.032,3.843,0
2.033,-0.368,0
2.034,1.28,0
2.035,-0.002,0
2.036,1.28,0
2.037,0.913,0
2.038,1.28,0
2.039,1.646,0
2.04,2.927,0
2.041,4.942,0
2.042,9.153,0
2.043,18.675,0
2.044,39.182,0
2.045,65.916,0
2.046,33.689,0
2.047,3.477,0
2.048,-16.115,0
2.049,-26.736,0
2.05,-29.848,0
2.051,-32.778,0
2.052,-30.215,0
2.053,-27.834,0
2.054,-25.637,0
2.055,-23.623,0
2.056,-18.13,0
2.057,-16.482,0
2.058,-12.087,0
2.059,-8.059,0
2.06,-2.016,0
2.061,-0.918,0
2.062,2.012,0
2.063,2.927,0
2.064,8.604,0
2.065,20.139,0
2.066,28.379,0
2.067,8.787,0
2.068,0.913,0
2.069,-6.228,0
2.07,-4.031,0
2.071,-10.073,0
2.072,-8.242,0
2.073,-9.89,0
2.074,-8.425,0
2.075,-4.397,0
2.076,-5.495,0
2.077,-2.199,0
2.078,-5.129,0
2.079,-2.383,0
2.08,-0.002,0
2.081,2.195,0
2.082,-1.101,0
2.083,-0.552,0
2.084,-0.002,0
2.085,1.28,0
2.086,-1.833,0
2.087,0.181,0
2.088,2.744,0
2.089,0.181,0
2.09,-0.552,0
2.091,0.73,0
2.092,-0.002,0
2.093,4.026,0
2.094,12.449,0
2.095,30.943,0
2.096,71.226,0
2.097,42.478,0
2.098,5.857,0
2.099,-8.425,0
2.1,-21.242,0
2.101,-32.961,0
2.102,-29.482,0
2.103,-26.369,0
2.104,-23.44,0
2.105,-26.003,0
2.106,-18.862,0
2.107,-16.665,0
2.108,-14.651,0
2.109,-9.157,0
2.11,-10.805,0
2.111,-3.298,0
2.112,-4.58,0
2.113,-1.101,0
2.114,-0.002,0
2.115,0.913,0
2.116,-0.002,0
2.117,-0.735,0
2.118,1.463,0
2.119,0.913,0
2.12,2.744,0
2.121,1.096,0
2.122,3.477,0
2.123,0.364,0
2.124,4.209,0
2.125,6.59,0
2.126,6.956,0
2.127,3.111,0
2.128,3.477,0
2.129,7.688,0
2.13,2.561,0
2.131,0.73,0
2.132,2.561,0
2.133,4.209,0
2.134,3.843,0
2.135,3.477,0
2.136,-1.101,0
2.137,-0.552,0
2.138,1.096,0
2.139,0.73,0
2.14,-2.383,0
2.141,-1.284,0
2.142,2.195,0
2.143,-0.368,0
2.144,-1.467,0
2.145,3.111,0
2.146,13.365,0
2.147,35.886,0
2.148,52,0
2.149,54.929,0
2.15,57.493,0
2.151,50.352,0
2.152,17.21,0
2.153,-25.82,0
2.154,-43.032,0
2.155,-58.596,0
2.156,-63.357,0
2.157,-59.145,0
2.158,-55.3,0
2.159,-44.68,0
2.16,-35.158,0
2.161,-32.229,0
2.162,-29.665,0
2.163,-22.524,0
2.164,-20.327,0
2.165,-14.284,0
2.166,-8.791,0
2.167,-3.847,0
2.168,-2.383,0
2.169,-1.101,0
2.17,2.378,0
2.171,3.477,0
2.172,6.406,0
2.173,9.153,0
2.174,11.533,0
2.175,12.266,0
2.176,14.097,0
2.177,10.984,0
2.178,10.435,0
2.179,10.069,0
2.18,11.35,0
2.181,9.336,0
2.182,8.238,0
2.183,4.942,0
2.184,0.364,0
2.185,6.04,0
2.186,6.773,0
2.187,4.942,0
2.188,3.111,0
2.189,3.66,0
2.19,4.026,0
2.191,4.392,0
2.192,7.139,0
2.193,1.463,0
2.194,5.674,0
2.195,14.097,0
2.196,27.647,0
2.197,47.788,0
2.198,71.958,0
2.199,68.845,0
2.2,24.351,0
2.201,-7.326,0
2.202,-24.538,0
2.203,-29.665,0
2.204,-34.426,0
2.205,-38.637,0
2.206,-34.792,0
2.207,-31.313,0
2.208,-28.2,0
2.209,-25.271,0
2.21,-27.834,0
2.211,-20.693,0
2.212,-18.496,0
2.213,-12.453,0
2.214,-6.96,0
2.215,-5.312,0
2.216,-3.847,0
2.217,0.181,0
2.218,-3.298,0
2.219,-0.002,0
2.22,2.927,0
2.221,2.012,0
2.222,4.392,0
2.223,2.195,0
2.224,1.646,0
2.225,1.096,0
2.226,4.942,0
2.227,2.561,0
2.228,6.773,0
2.229,6.223,0
2.23,6.59,0
2.231,5.308,0
2.232,4.209,0
2.233,5.308,0
2.234,3.477,0
2.235,0.73,0
2.236,-1.101,0
2.237,-0.002,0
2.238,2.744,0
2.239,3.111,0
2.24,2.744,0
2.241,2.012,0
2.242,2.744,0
2.243,1.463,0
2.244,-0.002,0
2.245,3.477,0
2.246,10.984,0
2.247,28.013,0
2.248,49.986,0
2.249,64.817,0
2.25,62.254,0
2.251,30.576,0
2.252,-8.425,0
2.253,-23.989,0
2.254,-38.271,0
2.255,-42.483,0
2.256,-38.637,0
2.257,-42.116,0
2.258,-39.004,0
2.259,-30.215,0
2.26,-22.341,0
2.261,-19.961,0
2.262,-17.763,0
2.263,-11.721,0
2.264,-9.89,0
2.265,-8.242,0
2.266,-6.777,0
2.267,-5.495,0
2.268,-2.016,0
2.269,-0.918,0
2.27,-0.002,0
2.271,0.913,0
2.272,3.294,0
2.273,1.096,0
2.274,4.392,0
2.275,6.223,0
2.276,4.575,0
2.277,4.942,0
2.278,6.223,0
2.279,5.857,0
2.28,4.759,0
2.281,5.857,0
2.282,2.561,0
2.283,3.843,0
2.284,4.942,0
2.285,4.575,0
2.286,7.139,0
2.287,6.406,0
2.288,8.238,0
2.289,5.308,0
2.29,4.209,0
2.291,4.575,0
2.292,3.111,0
2.293,4.392,0
2.294,5.125,0
2.295,0.73,0
2.296,4.209,0
2.297,11.717,0
2.298,19.59,0
2.299,34.788,0
2.3,67.93,0
2.301,44.126,0
2.302,5.125,0
2.303,-21.059,0
2.304,-25.82,0
2.305,-38.637,0
2.306,-34.792,0
2.307,-31.313,0
2.308,-34.426,0
2.309,-25.637,0
2.31,-12.27,0
2.311,4.575,0
2.312,6.773,0
2.313,-11.355,0
2.314,-13.735,0
2.315,-15.932,0
2.316,-13.918,0
2.317,-19.411,0
2.318,-14.468,0
2.319,-13.003,0
2.32,-11.721,0
2.321,-10.622,0
2.322,-7.326,0
2.323,-10.256,0
2.324,-3.847,0
2.325,-3.115,0
2.326,-0.918,0
2.327,0.913,0
2.328,5.308,0
2.329,1.463,0
2.33,6.04,0
2.331,1.646,0
2.332,5.491,0
2.333,3.111,0
2.334,4.392,0
2.335,2.378,0
2.336,8.054,0
2.337,8.787,0
2.338,4.942,0
2.339,4.392,0
2.34,6.223,0
2.341,2.378,0
2.342,4.759,0
2.343,4.392,0
2.344,5.491,0
2.345,7.322,0
2.346,2.927,0
2.347,4.759,0
2.348,8.054,0
2.349,15.012,0
2.35,30.21,0
2.351,50.169,0
2.352,52.732,0
2.353,55.113,0
2.354,44.126,0
2.355,34.055,0
2.356,24.9,0
2.357,19.956,0
2.358,21.421,0
2.359,17.393,0
2.36,13.914,0
2.361,-3.115,0
2.362,-39.553,0
2.363,-76.174,0
2.364,-80.935,0
2.365,-76.723,0
2.366,-72.878,0
2.367,-69.399,0
2.368,-59.878,0
2.369,-51.089,0
2.37,-37.722,0
2.371,-30.581,0
2.372,-23.989,0
2.373,-17.947,0
2.374,-8.791,0
2.375,-3.847,0
2.376,0.547,0
2.377,4.575,0
2.378,8.054,0
2.379,9.153,0
2.38,12.083,0
2.381,11.167,0
2.382,15.196,0
2.383,17.393,0
2.384,12.815,0
2.385,15.928,0
2.386,17.576,0
2.387,14.28,0
2.388,16.477,0
2.389,16.111,0
2.39,17.942,0
2.391,17.576,0
2.392,16.111,0
2.393,14.829,0
2.394,14.097,0
2.395,12.998,0
2.396,10.069,0
2.397,7.322,0
2.398,4.759,0
2.399,0.73,0
2.4,8.238,0
2.401,25.266,0
2.402,61.704,0
2.403,56.577,0
2.404,13.548,0
2.405,-3.664,0
2.406,-19.228,0
2.407,-23.989,0
2.408,-28.2,0
2.409,-24.355,0
2.41,-27.834,0
2.411,-24.721,0
2.412,-21.792,0
2.413,-13.918,0
2.414,-16.299,0
2.415,-9.707,0
2.416,-7.693,0
2.417,-2.199,0
2.418,-3.847,0
2.419,-2.383,0
2.42,1.646,0
2.421,2.744,0
2.422,3.843,0
2.423,4.759,0
2.424,0.181,0
2.425,0.913,0
2.426,6.223,0
2.427,6.773,0
2.428,6.223,0
2.429,11.35,0
2.43,5.125,0
2.431,4.392,0
2.432,2.195,0
2.433,-4.031,0
2.434,-0.002,0
2.435,0.73,0
2.436,-1.101,0
2.437,-4.214,0
2.438,-0.368,0
2.439,-0.735,0
2.44,-0.368,0
2.441,1.646,0
2.442,5.857,0
2.443,3.111,0
2.444,5.491,0
2.445,3.294,0
2.446,2.927,0
2.447,-2.016,0
2.448,-2.199,0
2.449,-1.65,0
2.45,7.871,0
2.451,22.886,0
2.452,45.042,0
2.453,71.775,0
2.454,61.155,0
2.455,18.858,0
2.456,-9.89,0
2.457,-25.454,0
2.458,-49.258,0
2.459,-45.046,0
2.46,-41.201,0
2.461,-37.722,0
2.462,-34.609,0
2.463,-31.679,0
2.464,-29.116,0
2.465,-26.736,0
2.466,-24.538,0
2.467,-18.496,0
2.468,-13.003,0
2.469,-14.651,0
2.47,-7.143,0
2.471,-5.862,0
2.472,-4.763,0
2.473,3.111,0
2.474,6.04,0
2.475,1.463,0
2.476,8.97,0
2.477,15.928,0
2.478,9.519,0
2.479,10.252,0
2.48,8.054,0
2.481,4.759,0
2.482,5.308,0
2.483,5.857,0
2.484,2.561,0
2.485,1.28,0
2.486,3.294,0
2.487,1.463,0
2.488,4.026,0
2.489,1.28,0
2.49,3.843,0
2.491,4.209,0
2.492,7.505,0
2.493,3.294,0
2.494,1.646,0
2.495,4.026,0
2.496,6.223,0
2.497,4.209,0
2.498,3.111,0
2.499,0.73,0
2.5,-4.763,0
2.501,6.773,0
2.502,21.787,0
2.503,43.943,0
2.504,64.634,0
2.505,67.198,0
2.506,35.52,0
2.507,-3.481,0
2.508,-29.665,0
2.509,-34.426,0
2.51,-38.637,0
2.511,-34.792,0
2.512,-38.271,0
2.513,-28.75,0
2.514,-31.679,0
2.515,-23.806,0
2.516,-16.665,0
2.517,-10.073,0
2.518,-4.031,0
2.519,5.125,0
2.52,10.069,0
2.521,20.506,0
2.522,24.534,0
2.523,25.633,0
2.524,22.337,0
2.525,19.407,0
2.526,22.154,0
2.527,18.125,0
2.528,17.393,0
2.529,8.421,0
2.53,-7.693,0
2.531,-18.679,0
2.532,-24.721,0
2.533,-41.201,0
2.534,-43.398,0
2.535,-45.412,0
2.536,-43.581,0
2.537,-32.046,0
2.538,-24.538,0
2.539,-23.257,0
2.54,-24.355,0
2.541,-39.187,0
2.542,-57.314,0
2.543,-69.399,0
2.544,-80.385,0
2.545,-106.57,0
2.546,-124.33,0
2.547,-121.22,0
2.548,-124.15,0
2.549,-116.27,0
2.55,-106.2,0
2.551,-99.062,0
2.552,-74.709,0
2.553,-39.004,0
2.554,32.591,0
2.555,125.06,0
2.556,187.31,0
2.557,198.48,0
2.558,167.72,0
2.559,139.71,0
2.56,131.28,0
2.561,123.59,0
2.562,130.55,0
2.563,124.33,0
2.564,95.579,0
2.565,69.395,0
2.566,64.634,0
2.567,60.423,0
2.568,56.577,0
2.569,53.098,0
2.57,56.211,0
2.571,59.141,0
2.572,61.704,0
2.573,64.085,0
2.574,57.493,0
2.575,43.394,0
2.576,26.914,0
2.577,24.717,0
2.578,18.675,0
2.579,24.168,0
2.58,22.52,0
2.581,12.083,0
2.582,2.561,0
2.583,-5.862,0
2.584,-11.538,0
2.585,-22.707,0
2.586,-27.102,0
2.587,-25.82,0
2.588,-31.863,0
2.589,-39.736,0
2.59,-44.68,0
2.591,-40.102,0
2.592,-39.37,0
2.593,-35.525,0
2.594,-37.356,0
2.595,-40.469,0
2.596,-43.215,0
2.597,-48.708,0
2.598,-50.906,0
2.599,-52.737,0
2.6,-52.187,0
2.601,-53.469,0
2.602,-50.722,0
2.603,-43.215,0
2.604,-26.186,0
2.605,10.252,0
2.606,25.816,0
2.607,-7.51,0
2.608,-37.722,0
2.609,-41.567,0
2.61,-52.187,0
2.611,-55.3,0
2.612,-52.37,0
2.613,-49.807,0
2.614,-42.666,0
2.615,-40.469,0
2.616,-34.426,0
2.617,-28.933,0
2.618,-27.285,0
2.619,-19.778,0
2.62,-15.749,0
2.621,-9.707,0
2.622,-8.608,0
2.623,-3.664,0
2.624,-4.58,0
2.625,1.096,0
2.626,6.406,0
2.627,8.238,0
2.628,7.688,0
2.629,11.533,0
2.63,10.252,0
2.631,10.618,0
2.632,9.519,0
2.633,9.885,0
2.634,9.519,0
2.635,8.787,0
2.636,7.505,0
2.637,10.435,0
2.638,11.533,0
2.639,11.9,0
2.64,10.435,0
2.641,8.604,0
2.642,12.632,0
2.643,12.083,0
2.644,10.801,0
2.645,12.083,0
2.646,10.069,0
2.647,8.97,0
2.648,6.406,0
2.649,7.871,0
2.65,8.054,0
2.651,5.674,0
2.652,5.857,0
2.653,4.392,0
2.654,8.604,0
2.655,18.125,0
2.656,38.633,0
2.657,71.226,0
2.658,41.013,0
2.659,5.491,0
2.66,-8.791,0
2.661,-21.609,0
2.662,-25.454,0
2.663,-28.933,0
2.664,-32.046,0
2.665,-29.116,0
2.666,-26.552,0
2.667,-24.172,0
2.668,-21.975,0
2.669,-11.904,0
2.67,-13.735,0
2.671,-8.791,0
2.672,-7.326,0
2.673,-0.552,0
2.674,-1.65,0
2.675,1.646,0
2.676,4.575,0
2.677,5.491,0
2.678,4.759,0
2.679,5.491,0
2.68,3.66,0
2.681,1.829,0
2.682,3.477,0
2.683,8.97,0
2.684,6.773,0
2.685,4.942,0
2.686,6.773,0
2.687,9.519,0
2.688,7.139,0
2.689,4.026,0
2.69,5.125,0
2.691,5.491,0
2.692,3.66,0
2.693,4.392,0
2.694,3.111,0
2.695,3.843,0
2.696,1.28,0
2.697,1.646,0
2.698,0.913,0
2.699,-0.918,0
2.7,-1.65,0
2.701,-3.115,0
2.702,0.181,0
2.703,-2.199,0
2.704,0.913,0
2.705,2.012,0
2.706,7.688,0
2.707,20.139,0
2.708,47.605,0
2.709,59.324,0
2.71,69.944,0
2.711,40.647,0
2.712,-2.749,0
2.713,-31.496,0
2.714,-47.06,0
2.715,-51.821,0
2.716,-47.61,0
2.717,-51.455,0
2.718,-47.976,0
2.719,-38.454,0
2.72,-35.525,0
2.721,-32.961,0
2.722,-25.82,0
2.723,-23.623,0
2.724,-13.552,0
2.725,-11.721,0
2.726,-3.481,0
2.727,-4.946,0
2.728,-3.664,0
2.729,-0.185,0
2.73,0.913,0
2.731,1.829,0
2.732,4.575,0
2.733,5.308,0
2.734,7.505,0
2.735,2.927,0
2.736,6.04,0
2.737,7.688,0
2.738,5.308,0
2.739,4.026,0
2.74,6.773,0
2.741,7.871,0
2.742,5.308,0
2.743,8.604,0
2.744,9.885,0
2.745,6.04,0
2.746,4.759,0
2.747,6.956,0
2.748,4.209,0
2.749,-0.002,0
2.75,0.547,0
2.751,1.829,0
2.752,2.195,0
2.753,3.294,0
2.754,-2.199,0
2.755,2.744,0
2.756,10.252,0
2.757,25.449,0
2.758,40.83,0
2.759,54.929,0
2.76,71.409,0
2.761,47.056,0
2.762,4.759,0
2.763,-23.989,0
2.764,-39.553,0
2.765,-44.314,0
2.766,-40.102,0
2.767,-43.948,0
2.768,-40.469,0
2.769,-30.947,0
2.77,-28.017,0
2.771,-25.454,0
2.772,-18.313,0
2.773,-16.115,0
2.774,-10.073,0
2.775,-8.242,0
2.776,-6.594,0
2.777,-5.129,0
2.778,1.646,0
2.779,0.547,0
2.78,1.646,0
2.781,0.73,0
2.782,3.477,0
2.783,2.744,0
2.784,-1.101,0
2.785,0.73,0
2.786,1.28,0
2.787,2.927,0
2.788,3.294,0
2.789,3.66,0
2.79,4.026,0
2.791,6.59,0
2.792,5.491,0
2.793,7.505,0
2.794,8.238,0
2.795,8.97,0
2.796,5.491,0
2.797,5.857,0
2.798,6.223,0
2.799,3.477,0
2.8,3.843,0
2.801,9.336,0
2.802,20.872,0
2.803,35.886,0
2.804,13.731,0
2.805,-0.735,0
2.806,-3.664,0
2.807,-11.538,0
2.808,-18.679,0
2.809,10.069,0
2.81,29.661,0
2.811,40.281,0
2.812,37.168,0
2.813,40.098,0
2.814,32.224,0
2.815,29.844,0
2.816,18.858,0
2.817,12.815,0
2.818,7.322,0
2.819,-0.918,0
2.82,-11.355,0
2.821,-31.863,0
2.822,-70.498,0
2.823,-75.625,0
2.824,-80.385,0
2.825,-67.568,0
2.826,-63.723,0
2.827,-53.103,0
2.828,-49.99,0
2.829,-41.201,0
2.83,-33.327,0
2.831,-26.186,0
2.832,-19.594,0
2.833,-13.552,0
2.834,-8.059,0
2.835,0.181,0
2.836,1.646,0
2.837,8.421,0
2.838,7.322,0
2.839,12.998,0
2.84,13.914,0
2.841,16.66,0
2.842,15.928,0
2.843,21.238,0
2.844,19.407,0
2.845,21.238,0
2.846,17.393,0
2.847,15.012,0
2.848,17.21,0
2.849,16.111,0
2.85,17.942,0
2.851,14.646,0
2.852,10.801,0
2.853,8.421,0
2.854,9.702,0
2.855,7.688,0
2.856,7.322,0
2.857,6.223,0
2.858,11.717,0
2.859,23.252,0
2.86,48.155,0
2.861,73.057,0
2.862,43.76,0
2.863,8.238,0
2.864,-15.566,0
2.865,-19.778,0
2.866,-31.496,0
2.867,-28.017,0
2.868,-31.13,0
2.869,-28.2,0
2.87,-25.637,0
2.871,-23.257,0
2.872,-16.665,0
2.873,-14.651,0
2.874,-9.157,0
2.875,-7.51,0
2.876,-6.045,0
2.877,-2.016,0
2.878,-3.115,0
2.879,2.561,0
2.88,-4.397,0
2.881,-1.65,0
2.882,0.73,0
2.883,-6.228,0
2.884,-3.481,0
2.885,-1.101,0
2.886,-0.368,0
2.887,-0.918,0
2.888,-1.467,0
2.889,2.378,0
2.89,-2.199,0
2.891,3.477,0
2.892,4.209,0
2.893,4.759,0
2.894,1.646,0
2.895,5.491,0
2.896,4.209,0
2.897,1.096,0
2.898,0.73,0
2.899,-1.101,0
2.9,-4.397,0
2.901,-5.495,0
2.902,-2.016,0
2.903,-3.298,0
2.904,-1.284,0
2.905,-3.115,0
2.906,-4.214,0
2.907,-1.467,0
2.908,0.547,0
2.909,4.759,0
2.91,14.28,0
2.911,34.788,0
2.912,55.479,0
2.913,68.845,0
2.914,37.168,0
2.915,15.562,0
2.916,-19.961,0
2.917,-43.764,0
2.918,-47.976,0
2.919,-51.821,0
2.92,-41.201,0
2.921,-38.088,0
2.922,-41.018,0
2.923,-33.144,0
2.924,-26.003,0
2.925,-23.806,0
2.926,-17.763,0
2.927,-12.27,0
2.928,-10.622,0
2.929,-3.115,0
2.93,-7.143,0
2.931,-1.101,0
2.932,-0.002,0
2.933,0.913,0
2.934,3.66,0
2.935,1.28,0
2.936,5.125,0
2.937,5.674,0
2.938,3.843,0
2.939,6.59,0
2.94,3.294,0
2.941,3.66,0
2.942,6.406,0
2.943,8.238,0
2.944,7.139,0
2.945,7.871,0
2.946,8.054,0
2.947,6.773,0
2.948,3.294,0
2.949,2.927,0
2.95,1.646,0
2.951,1.28,0
2.952,3.111,0
2.953,0.547,0
2.954,4.575,0
2.955,4.026,0
2.956,-0.552,0
2.957,1.28,0
2.958,-2.932,0
2.959,0.913,0
2.96,8.421,0
2.961,25.449,0
2.962,61.887,0
2.963,67.014,0
2.964,33.689,0
2.965,3.477,0
2.966,-16.115,0
2.967,-26.736,0
2.968,-29.848,0
2.969,-32.778,0
2.97,-35.342,0
2.971,-32.961,0
2.972,-30.764,0
2.973,-20.693,0
2.974,-18.862,0
2.975,-13.918,0
2.976,-15.383,0
2.977,-11.355,0
2.978,-7.876,0
2.979,-2.199,0
2.98,-3.115,0
2.981,-0.368,0
2.982,2.012,0
2.983,-0.185,0
2.984,1.646,0
2.985,1.096,0
2.986,-0.552,0
2.987,-2.932,0
2.988,-2.566,0
2.989,2.012,0
2.99,1.463,0
2.991,3.111,0
2.992,4.392,0
2.993,4.759,0
2.994,3.66,0
2.995,4.759,0
2.996,2.195,0
2.997,4.209,0
2.998,3.477,0
2.999,3.66,0
3,4.209,0
3.001,4.392,0
3.002,1.463,0
3.003,3.477,0
3.004,-0.735,0
3.005,0.913,0
3.006,3.294,0
3.007,4.575,0
3.008,4.209,0
3.009,6.59,0
3.01,1.646,0
3.011,11.9,0
3.012,22.337,0
3.013,42.844,0
3.014,75.437,0
3.015,45.225,0
3.016,9.702,0
3.017,-14.101,0
3.018,-26.919,0
3.019,-38.637,0
3.02,-35.158,0
3.021,-38.271,0
3.022,-35.342,0
3.023,-32.778,0
3.024,-25.637,0
3.025,-23.44,0
3.026,-17.397,0
3.027,-15.566,0
3.028,-13.918,0
3.029,-9.524,0
3.03,-8.242,0
3.031,-4.763,0
3.032,-5.862,0
3.033,1.096,0
3.034,2.012,0
3.035,1.28,0
3.036,2.012,0
3.037,1.463,0
3.038,0.913,0
3.039,2.561,0
3.04,1.28,0
3.041,4.392,0
3.042,8.238,0
3.043,6.956,0
3.044,7.322,0
3.045,6.223,0
3.046,6.59,0
3.047,12.083,0
3.048,23.618,0
3.049,28.562,0
3.05,12.083,0
3.051,-3.298,0
3.052,-5.312,0
3.053,-10.805,0
3.054,-9.157,0
3.055,-13.552,0
3.056,-12.27,0
3.057,-6.228,0
3.058,-7.326,0
3.059,-2.383,0
3.06,-0.735,0
3.061,0.181,0
3.062,5.857,0
3.063,9.702,0
3.064,19.956,0
3.065,42.478,0
3.066,45.591,0
3.067,6.956,0
3.068,-8.608,0
3.069,-32.412,0
3.07,-28.2,0
3.071,-32.046,0
3.072,-28.567,0
3.073,-31.679,0
3.074,-28.75,0
3.075,-26.186,0
3.076,-19.045,0
3.077,-12.453,0
3.078,-10.439,0
3.079,-4.946,0
3.08,-6.594,0
3.081,-5.129,0
3.082,-3.847,0
3.083,-0.368,0
3.084,0.73,0
3.085,1.646,0
3.086,-1.101,0
3.087,2.927,0
3.088,0.73,0
3.089,2.561,0
3.09,5.674,0
3.091,5.125,0
3.092,4.759,0
3.093,6.956,0
3.094,4.942,0
3.095,5.308,0
3.096,4.942,0
3.097,6.956,0
3.098,3.843,0
3.099,6.59,0
3.1,0.913,0
3.101,0.181,0
3.102,2.378,0
3.103,1.829,0
3.104,1.28,0
3.105,-0.368,0
3.106,0.913,0
3.107,1.28,0
3.108,2.378,0
3.109,2.744,0
3.11,3.111,0
3.111,-0.002,0
3.112,0.73,0
3.113,4.942,0
3.114,14.463,0
3.115,34.971,0
3.116,67.564,0
3.117,45.957,0
3.118,2.561,0
3.119,-26.186,0
3.12,-31.313,0
3.121,-36.074,0
3.122,-31.863,0
3.123,-35.708,0
3.124,-32.229,0
3.125,-29.116,0
3.126,-26.186,0
3.127,-18.313,0
3.128,-15.932,0
3.129,-13.735,0
3.13,-7.693,0
3.131,-9.524,0
3.132,-7.876,0
3.133,-9.341,0
3.134,-5.312,0
3.135,-4.214,0
3.136,-3.115,0
3.137,-0.185,0
3.138,-1.101,0
3.139,2.927,0
3.14,5.125,0
3.141,8.421,0
3.142,10.252,0
3.143,9.702,0
3.144,10.984,0
3.145,8.787,0
3.146,6.773,0
3.147,4.209,0
3.148,6.773,0
3.149,8.787,0
3.15,5.125,0
3.151,4.759,0
3.152,3.477,0
3.153,6.223,0
3.154,1.28,0
3.155,-2.016,0
3.156,1.096,0
3.157,6.223,0
3.158,2.927,0
3.159,4.759,0
3.16,2.012,0
3.161,2.378,0
3.162,2.927,0
3.163,4.209,0
3.164,10.435,0
3.165,24.351,0
3.166,42.478,0
3.167,49.619,0
3.168,65,0
3.169,46.873,0
3.17,10.435,0
3.171,-26.186,0
3.172,-40.469,0
3.173,-44.68,0
3.174,-48.525,0
3.175,-45.046,0
3.176,-41.933,0
3.177,-39.004,0
3.178,-31.13,0
3.179,-23.989,0
3.18,-21.792,0
3.181,-19.778,0
3.182,-17.947,0
3.183,-13.003,0
3.184,-14.468,0
3.185,-10.439,0
3.186,-4.397,0
3.187,-3.298,0
3.188,-4.214,0
3.189,-1.467,0
3.19,2.561,0
3.191,4.759,0
3.192,4.209,0
3.193,6.04,0
3.194,7.688,0
3.195,8.97,0
3.196,5.857,0
3.197,6.956,0
3.198,6.59,0
3.199,4.026,0
3.2,4.209,0
3.201,6.04,0
3.202,4.209,0
3.203,4.392,0
3.204,4.942,0
3.205,2.012,0
3.206,-0.002,0
3.207,2.561,0
3.208,2.927,0
3.209,3.111,0
3.21,4.942,0
3.211,8.97,0
3.212,2.744,0
3.213,2.927,0
3.214,0.547,0
3.215,12.083,0
3.216,33.689,0
3.217,60.423,0
3.218,63.902,0
3.219,41.38,0
3.22,2.744,0
3.221,-12.82,0
3.222,-27.102,0
3.223,-31.313,0
3.224,-35.158,0
3.225,-31.679,0
3.226,-28.567,0
3.227,-25.637,0
3.228,-23.073,0
3.229,-20.693,0
3.23,-18.496,0
3.231,-12.453,0
3.232,-6.96,0
3.233,-8.608,0
3.234,-7.143,0
3.235,-8.425,0
3.236,-7.326,0
3.237,-4.031,0
3.238,-3.115,0
3.239,-2.199,0
3.24,-1.467,0
3.241,0.73,0
3.242,4.026,0
3.243,7.139,0
3.244,6.59,0
3.245,5.308,0
3.246,7.505,0
3.247,4.759,0
3.248,3.66,0
3.249,7.688,0
3.25,10.984,0
3.251,13.181,0
3.252,14.28,0
3.253,19.956,0
3.254,22.337,0
3.255,27.647,0
3.256,28.196,0
3.257,28.745,0
3.258,23.618,0
3.259,21.787,0
3.26,17.393,0
3.261,13.548,0
3.262,11.167,0
3.263,5.125,0
3.264,-7.326,0
3.265,-19.778,0
3.266,-17.947,0
3.267,-9.707,0
3.268,-2.199,0
3.269,1.829,0
3.27,20.323,0
3.271,6.956,0
3.272,-24.721,0
3.273,-54.934,0
3.274,-82.4,0
3.275,-100.16,0
3.276,-116.27,0
3.277,-143.01,0
3.278,-153.63,0
3.279,-169.74,0
3.28,-178.53,0
3.281,-175.97,0
3.282,-168.82,0
3.283,-148.87,0
3.284,-124.7,0
3.285,-108.58,0
3.286,-81.85,0
3.287,-42.483,0
3.288,36.253,0
3.289,115.17,0
3.29,166.44,0
3.291,175.78,0
3.292,167.36,0
3.293,159.67,0
3.294,152.71,0
3.295,146.48,0
3.296,129.27,0
3.297,113.71,0
3.298,118.47,0
3.299,122.68,0
3.3,150.14,0
3.301,153.62,0
3.302,150.51,0
3.303,147.58,0
3.304,123.41,0
3.305,107.3,0
3.306,104.37,0
3.307,91.001,0
3.308,74.156,0
3.309,45.408,0
3.31,25.816,0
3.311,22.337,0
3.312,19.224,0
3.313,22.154,0
3.314,8.787,0
3.315,-5.862,0
3.316,-17.947,0
3.317,-15.749,0
3.318,-17.763,0
3.319,2.378,0
3.32,10.252,0
3.321,3.111,0
3.322,-16.848,0
3.323,-8.974,0
3.324,-1.833,0
3.325,-34.975,0
3.326,-78.005,0
3.327,-106.75,0
3.328,-111.88,0
3.329,-116.64,0
3.33,-120.85,0
3.331,-124.7,0
3.332,-114.08,0
3.333,-110.96,0
3.334,-102.17,0
3.335,-99.612,0
3.336,-82.766,0
3.337,-80.569,0
3.338,-70.498,0
3.339,-61.343,0
3.34,-49.807,0
3.341,-42.3,0
3.342,-32.778,0
3.343,-24.355,0
3.344,-16.482,0
3.345,-11.538,0
3.346,-6.96,0
3.347,-6.228,0
3.348,-5.495,0
3.349,-0.918,0
3.35,4.759,0
3.351,4.026,0
3.352,5.857,0
3.353,7.688,0
3.354,7.139,0
3.355,5.857,0
3.356,8.97,0
3.357,11.717,0
3.358,15.928,0
3.359,13.181,0
3.36,13.548,0
3.361,17.759,0
3.362,15.012,0
3.363,14.646,0
3.364,14.28,0
3.365,12.266,0
3.366,13.181,0
3.367,11.35,0
3.368,16.844,0
3.369,28.379,0
3.37,53.281,0
3.371,63.902,0
3.372,60.789,0
3.373,28.196,0
3.374,-2.016,0
3.375,-13.735,0
3.376,-24.355,0
3.377,-27.468,0
3.378,-30.398,0
3.379,-27.834,0
3.38,-25.454,0
3.381,-23.257,0
3.382,-17.214,0
3.383,-15.383,0
3.384,-13.735,0
3.385,-9.341,0
3.386,-5.312,0
3.387,0.73,0
3.388,1.829,0
3.389,0.913,0
3.39,3.66,0
3.391,4.392,0
3.392,8.238,0
3.393,10.069,0
3.394,13.181,0
3.395,11.533,0
3.396,6.956,0
3.397,11.35,0
3.398,9.702,0
3.399,8.421,0
3.4,9.702,0
3.401,5.857,0
3.402,9.153,0
3.403,10.435,0
3.404,10.069,0
3.405,7.505,0
3.406,7.139,0
3.407,7.871,0
3.408,7.139,0
3.409,5.308,0
3.41,2.744,0
3.411,5.308,0
3.412,8.604,0
3.413,5.491,0
3.414,1.646,0
3.415,4.026,0
3.416,-1.101,0
3.417,3.66,0
3.418,3.111,0
3.419,12.632,0
3.42,27.647,0
3.421,57.859,0
3.422,70.677,0
3.423,66.831,0
3.424,34.605,0
3.425,-4.397,0
3.426,-30.581,0
3.427,-35.342,0
3.428,-39.553,0
3.429,-43.398,0
3.43,-39.919,0
3.431,-36.806,0
3.432,-33.877,0
3.433,-31.313,0
3.434,-28.933,0
3.435,-26.736,0
3.436,-20.693,0
3.437,-15.2,0
3.438,-16.848,0
3.439,-9.341,0
3.44,-5.312,0
3.441,-6.411,0
3.442,-0.735,0
3.443,0.181,0
3.444,2.927,0
3.445,3.66,0
3.446,7.505,0
3.447,2.927,0
3.448,8.604,0
3.449,9.336,0
3.45,7.505,0
3.451,5.674,0
3.452,6.223,0
3.453,7.505,0
3.454,6.223,0
3.455,8.238,0
3.456,4.026,0
3.457,2.378,0
3.458,4.759,0
3.459,5.125,0
3.46,1.28,0
3.461,0.913,0
3.462,2.195,0
3.463,3.294,0
3.464,0.73,0
3.465,4.026,0
3.466,-1.467,0
3.467,-0.735,0
3.468,-0.735,0
3.469,-2.566,0
3.47,6.956,0
3.471,21.97,0
3.472,52.183,0
3.473,73.789,0
3.474,46.323,0
3.475,14.097,0
3.476,-16.115,0
3.477,-27.834,0
3.478,-38.454,0
3.479,-35.342,0
3.48,-38.271,0
3.481,-30.398,0
3.482,-32.778,0
3.483,-26.186,0
3.484,-24.172,0
3.485,-18.679,0
3.486,-17.031,0
3.487,-12.636,0
3.488,-11.355,0
3.489,-7.876,0
3.49,-6.777,0
3.491,-3.847,0
3.492,2.561,0
3.493,1.829,0
3.494,4.026,0
3.495,3.477,0
3.496,2.927,0
3.497,1.28,0
3.498,2.561,0
3.499,-2.566,0
3.5,2.012,0
3.501,2.561,0
3.502,4.209,0
3.503,3.843,0
3.504,3.477,0
3.505,3.843,0
3.506,3.477,0
3.507,1.646,0
3.508,2.378,0
3.509,2.195,0
3.51,4.575,0
3.511,3.111,0
3.512,2.378,0
3.513,3.111,0
3.514,1.646,0
3.515,2.195,0
3.516,1.28,0
3.517,-1.467,0
3.518,-1.101,0
3.519,-4.397,0
3.52,-0.368,0
3.521,0.913,0
3.522,7.871,0
3.523,23.069,0
3.524,56.211,0
3.525,51.45,0
3.526,12.449,0
3.527,-3.115,0
3.528,-17.397,0
3.529,-21.609,0
3.53,-33.327,0
3.531,-29.848,0
3.532,-32.961,0
3.533,-30.031,0
3.534,-27.468,0
3.535,-20.327,0
3.536,-18.13,0
3.537,-16.115,0
3.538,-10.622,0
3.539,4.392,0
3.54,26.548,0
3.541,11.717,0
3.542,3.843,0
3.543,-8.242,0
3.544,-6.045,0
3.545,-12.087,0
3.546,-6.594,0
3.547,-11.538,0
3.548,-10.073,0
3.549,-6.045,0
3.55,-2.566,0
3.551,-5.862,0
3.552,-2.932,0
3.553,-0.185,0
3.554,0.547,0
3.555,-0.185,0
3.556,6.04,0
3.557,3.66,0
3.558,5.857,0
3.559,7.688,0
3.56,8.238,0
3.561,5.491,0
3.562,5.125,0
3.563,2.927,0
3.564,4.942,0
3.565,2.378,0
3.566,1.28,0
3.567,4.575,0
3.568,2.378,0
3.569,2.012,0
3.57,2.195,0
3.571,2.561,0
3.572,8.054,0
3.573,19.59,0
3.574,44.492,0
3.575,55.113,0
3.576,77.635,0
3.577,62.803,0
3.578,22.52,0
3.579,-17.763,0
3.58,-33.327,0
3.581,-47.61,0
3.582,-43.398,0
3.583,-47.243,0
3.584,-43.764,0
3.585,-34.243,0
3.586,-37.173,0
3.587,-29.299,0
3.588,-22.158,0
3.589,-19.961,0
3.59,-13.918,0
3.591,-12.087,0
3.592,-7.143,0
3.593,-2.749,0
3.594,-1.467,0
3.595,2.012,0
3.596,0.913,0
3.597,-0.002,0
3.598,2.744,0
3.599,3.477,0
3.6,4.209,0
3.601,-0.368,0
3.602,-0.918,0
3.603,4.209,0
3.604,6.04,0
3.605,5.491,0
3.606,7.139,0
3.607,4.759,0
3.608,6.956,0
3.609,4.209,0
3.61,9.885,0
3.611,9.153,0
3.612,6.956,0
3.613,5.125,0
3.614,5.674,0
3.615,4.026,0
3.616,5.308,0
3.617,4.026,0
3.618,3.66,0
3.619,1.096,0
3.62,2.195,0
3.621,1.463,0
3.622,-0.552,0
3.623,3.66,0
3.624,13.181,0
3.625,33.689,0
3.626,72.324,0
3.627,35.703,0
3.628,2.378,0
3.629,-19.228,0
3.63,-30.947,0
3.631,-34.426,0
3.632,-31.313,0
3.633,-34.243,0
3.634,-31.679,0
3.635,-29.299,0
3.636,-22.707,0
3.637,-20.693,0
3.638,-18.862,0
3.639,-13.918,0
3.64,-9.524,0
3.641,-8.242,0
3.642,-7.143,0
3.643,-3.847,0
3.644,-4.763,0
3.645,1.646,0
3.646,0.913,0
3.647,3.111,0
3.648,4.942,0
3.649,0.547,0
3.65,3.294,0
3.651,2.012,0
3.652,-0.185,0
3.653,1.829,0
3.654,2.927,0
3.655,4.026,0
3.656,4.209,0
3.657,4.392,0
3.658,5.125,0
3.659,8.238,0
3.66,7.871,0
3.661,5.308,0
3.662,4.209,0
3.663,1.463,0
3.664,0.364,0
3.665,-0.735,0
3.666,1.28,0
3.667,-0.552,0
3.668,-1.284,0
3.669,1.28,0
3.67,-0.552,0
3.671,-1.284,0
3.672,-0.735,0
3.673,-0.552,0
3.674,3.477,0
3.675,11.9,0
3.676,30.393,0
3.677,59.873,0
3.678,79.466,0
3.679,47.239,0
3.68,8.238,0
3.681,-17.947,0
3.682,-32.229,0
3.683,-45.046,0
3.684,-48.891,0
3.685,-45.412,0
3.686,-42.3,0
3.687,-39.37,0
3.688,-36.806,0
3.689,-29.665,0
3.69,-23.073,0
3.691,-17.031,0
3.692,-15.2,0
3.693,-10.256,0
3.694,-5.862,0
3.695,-4.58,0
3.696,-1.101,0
3.697,-0.002,0
3.698,2.927,0
3.699,0.181,0
3.7,0.913,0
3.701,4.759,0
3.702,4.209,0
3.703,3.66,0
3.704,5.308,0
3.705,6.59,0
3.706,3.477,0
3.707,7.322,0
3.708,10.618,0
3.709,7.505,0
3.71,8.604,0
3.711,7.505,0
3.712,9.336,0
3.713,6.04,0
3.714,4.759,0
3.715,4.392,0
3.716,0.913,0
3.717,3.111,0
3.718,2.744,0
3.719,0.913,0
3.72,1.28,0
3.721,-3.298,0
3.722,-1.467,0
3.723,-2.199,0
3.724,2.195,0
3.725,10.618,0
3.726,29.112,0
3.727,69.395,0
3.728,63.719,0
3.729,27.097,0
3.73,-6.228,0
3.731,-19.045,0
3.732,-30.764,0
3.733,-34.243,0
3.734,-37.356,0
3.735,-34.426,0
3.736,-31.863,0
3.737,-29.482,0
3.738,-22.89,0
3.739,-16.848,0
3.74,-15.017,0
3.741,-10.073,0
3.742,-8.608,0
3.743,-4.58,0
3.744,-1.101,0
3.745,-2.199,0
3.746,2.744,0
3.747,1.829,0
3.748,2.561,0
3.749,1.829,0
3.75,2.378,0
3.751,1.829,0
3.752,0.181,0
3.753,2.561,0
3.754,-0.552,0
3.755,4.026,0
3.756,4.575,0
3.757,6.223,0
3.758,5.857,0
3.759,5.491,0
3.76,9.336,0
3.761,3.843,0
3.762,7.688,0
3.763,7.139,0
3.764,4.026,0
3.765,2.378,0
3.766,-0.002,0
3.767,1.28,0
3.768,0.913,0
3.769,-0.918,0
3.77,0.181,0
3.771,-1.833,0
3.772,-1.65,0
3.773,-2.932,0
3.774,2.195,0
3.775,0.73,0
3.776,4.026,0
3.777,10.984,0
3.778,26.182,0
3.779,59.324,0
3.78,45.042,0
3.781,14.829,0
3.782,-12.636,0
3.783,-30.398,0
3.784,-20.876,0
3.785,-12.087,0
3.786,-4.214,0
3.787,-16.299,0
3.788,-31.679,0
3.789,-33.694,0
3.79,-35.525,0
3.791,-33.877,0
3.792,-32.412,0
3.793,-25.637,0
3.794,-22.158,0
3.795,-16.482,0
3.796,-15.566,0
3.797,-12.82,0
3.798,-8.791,0
3.799,-3.481,0
3.8,-5.312,0
3.801,-3.481,0
3.802,1.646,0
3.803,-0.185,0
3.804,1.646,0
3.805,3.294,0
3.806,4.575,0
3.807,7.688,0
3.808,10.435,0
3.809,4.759,0
3.81,5.491,0
3.811,7.688,0
3.812,9.519,0
3.813,3.843,0
3.814,1.646,0
3.815,4.942,0
3.816,5.491,0
3.817,2.744,0
3.818,5.125,0
3.819,2.927,0
3.82,4.026,0
3.821,3.66,0
3.822,0.364,0
3.823,3.111,0
3.824,2.012,0
3.825,2.195,0
3.826,3.294,0
3.827,7.871,0
3.828,18.125,0
3.829,40.647,0
3.83,50.169,0
3.831,53.098,0
3.832,34.422,0
3.833,46.507,0
3.834,48.704,0
3.835,22.52,0
3.836,-23.989,0
3.837,-42.849,0
3.838,-60.061,0
3.839,-65.188,0
3.84,-60.427,0
3.841,-56.216,0
3.842,-44.497,0
3.843,-41.018,0
3.844,-37.905,0
3.845,-29.116,0
3.846,-26.552,0
3.847,-19.411,0
3.848,-17.214,0
3.849,-11.172,0
3.85,-9.341,0
3.851,-4.397,0
3.852,-2.932,0
3.853,1.096,0
3.854,2.195,0
3.855,5.491,0
3.856,6.406,0
3.857,7.322,0
3.858,9.702,0
3.859,10.435,0
3.86,10.984,0
3.861,9.153,0
3.862,11.9,0
3.863,10.618,0
3.864,10.252,0
3.865,9.153,0
3.866,10.252,0
3.867,8.421,0
3.868,9.153,0
3.869,7.871,0
3.87,4.942,0
3.871,6.773,0
3.872,5.674,0
3.873,2.927,0
3.874,4.026,0
3.875,6.59,0
3.876,8.787,0
3.877,6.773,0
3.878,10.984,0
3.879,20.506,0
3.88,41.013,0
3.881,67.747,0
3.882,49.986,0
3.883,20.689,0
3.884,-6.777,0
3.885,-24.538,0
3.886,-34.06,0
3.887,-36.99,0
3.888,-39.553,0
3.889,-37.173,0
3.89,-30.581,0
3.891,-28.567,0
3.892,-30.398,0
3.893,-22.158,0
3.894,-17.763,0
3.895,-19.045,0
3.896,-13.003,0
3.897,-9.707,0
3.898,-6.777,0
3.899,-4.031,0
3.9,-1.65,0
3.901,-0.918,0
3.902,3.66,0
3.903,5.491,0
3.904,3.843,0
3.905,5.125,0
3.906,5.491,0
3.907,5.125,0
3.908,2.561,0
3.909,8.054,0
3.91,10.252,0
3.911,6.956,0
3.912,1.28,0
3.913,5.125,0
3.914,0.547,0
3.915,2.378,0
3.916,0.73,0
3.917,1.096,0
3.918,3.294,0
3.919,2.927,0
3.92,3.294,0
3.921,0.73,0
3.922,-0.002,0
3.923,3.66,0
3.924,1.28,0
3.925,-1.833,0
3.926,-0.735,0
3.927,2.195,0
3.928,4.026,0
3.929,9.519,0
3.93,21.055,0
3.931,45.957,0
3.932,70.86,0
3.933,48.338,0
3.934,3.843,0
3.935,-15.017,0
3.936,-32.229,0
3.937,-37.356,0
3.938,-32.595,0
3.939,-28.384,0
3.94,-32.229,0
3.941,-28.75,0
3.942,-25.637,0
3.943,-16.848,0
3.944,-19.411,0
3.945,-12.27,0
3.946,-10.073,0
3.947,-8.059,0
3.948,-6.228,0
3.949,-7.876,0
3.95,-6.411,0
3.951,-5.129,0
3.952,-1.65,0
3.953,1.646,0
3.954,0.73,0
3.955,3.477,0
3.956,4.209,0
3.957,2.012,0
3.958,0.181,0
3.959,5.857,0
3.96,3.66,0
3.961,6.956,0
3.962,3.843,0
3.963,1.096,0
3.964,4.392,0
3.965,3.111,0
3.966,-0.735,0
3.967,0.547,0
3.968,0.913,0
3.969,0.547,0
3.97,-0.552,0
3.971,-4.58,0
3.972,-3.298,0
3.973,-2.016,0
3.974,-0.002,0
3.975,1.096,0
3.976,4.392,0
3.977,2.378,0
3.978,3.66,0
3.979,1.096,0
3.98,6.59,0
3.981,18.125,0
3.982,43.028,0
3.983,53.648,0
3.984,69.761,0
3.985,54.929,0
3.986,14.646,0
3.987,-25.637,0
3.988,-30.764,0
3.989,-45.046,0
3.99,-49.258,0
3.991,-45.412,0
3.992,-41.933,0
3.993,-38.821,0
3.994,-35.891,0
3.995,-28.017,0
3.996,-25.637,0
3.997,-23.44,0
3.998,-17.397,0
3.999,-11.904,0
4,-10.256,0
4.001,-5.862,0
4.002,-4.58,0
4.003,-1.101,0
4.004,-0.002,0
4.005,0.913,0
4.006,5.491,0
4.007,4.759,0
4.008,6.956,0
4.009,7.505,0
4.01,6.956,0
4.011,7.505,0
4.012,7.871,0
4.013,9.153,0
4.014,9.519,0
4.015,8.421,0
4.016,5.857,0
4.017,3.843,0
4.018,0.73,0
4.019,1.096,0
4.02,4.575,0
4.021,0.364,0
4.022,3.111,0
4.023,2.744,0
4.024,5.857,0
4.025,4.759,0
4.026,8.97,0
4.027,10.618,0
4.028,11.9,0
4.029,14.646,0
4.03,21.604,0
4.031,36.802,0
4.032,52.183,0
4.033,34.055,0
4.034,26.914,0
4.035,29.112,0
4.036,59.324,0
4.037,80.93,0
4.038,45.408,0
4.039,12.083,0
4.04,-18.13,0
4.041,-29.848,0
4.042,-47.61,0
4.043,-63.723,0
4.044,-72.512,0
4.045,-69.948,0
4.046,-77.09,0
4.047,-74.892,0
4.048,-64.822,0
4.049,-48.342,0
4.05,-32.961,0
4.051,-47.06,0
4.052,-59.878,0
4.053,-71.413,0
4.054,-93.935,0
4.055,-116.46,0
4.056,-125.25,0
4.057,-133.12,0
4.058,-145.21,0
4.059,-156.19,0
4.06,-150.15,0
4.061,-126.34,0
4.062,-103.82,0
4.063,-88.991,0
4.064,-70.315,0
4.065,-33.877,0
4.066,44.859,0
4.067,123.78,0
4.068,154.54,0
4.069,163.88,0
4.07,155.45,0
4.071,132.38,0
4.072,125.42,0
4.073,131.65,0
4.074,137.33,0
4.075,142.45,0
4.076,156.74,0
4.077,169.55,0
4.078,189.15,0
4.079,192.63,0
4.08,186.76,0
4.081,170.65,0
4.082,155.82,0
4.083,158.38,0
4.084,156,0
4.085,140.62,0
4.086,126.52,0
4.087,99.058,0
4.088,39.915,0
4.089,-2.383,0
4.09,-25.454,0
4.091,-46.328,0
4.092,-52.553,0
4.093,-58.23,0
4.094,-63.357,0
4.095,-77.639,0
4.096,-73.427,0
4.097,-69.582,0
4.098,-80.202,0
4.099,-83.315,0
4.1,-86.245,0
4.101,-83.681,0
4.102,-76.54,0
4.103,-74.343,0
4.104,-76.357,0
4.105,-67.202,0
4.106,-72.146,0
4.107,-67.751,0
4.108,-66.469,0
4.109,-67.568,0
4.11,-66.469,0
4.111,-63.54,0
4.112,-58.962,0
4.113,-56.582,0
4.114,-52.737,0
4.115,-46.511,0
4.116,-44.131,0
4.117,-38.821,0
4.118,-34.243,0
4.119,-32.412,0
4.12,-27.285,0
4.121,-23.989,0
4.122,-20.876,0
4.123,-17.031,0
4.124,-13.735,0
4.125,-6.777,0
4.126,-5.862,0
4.127,-3.115,0
4.128,0.913,0
4.129,0.181,0
4.13,-0.368,0
4.131,1.463,0
4.132,0.913,0
4.133,9.336,0
4.134,20.506,0
4.135,43.028,0
4.136,72.324,0
4.137,60.606,0
4.138,14.097,0
4.139,-4.763,0
4.14,-21.975,0
4.141,-16.848,0
4.142,-21.609,0
4.143,-25.82,0
4.144,-21.975,0
4.145,-18.496,0
4.146,-21.609,0
4.147,-12.82,0
4.148,-10.256,0
4.149,-12.636,0
4.15,-6.045,0
4.151,-4.031,0
4.152,-2.199,0
4.153,-0.552,0
4.154,0.913,0
4.155,4.942,0
4.156,8.421,0
4.157,11.717,0
4.158,12.632,0
4.159,15.379,0
4.16,14.646,0
4.161,16.844,0
4.162,16.294,0
4.163,11.9,0
4.164,11.35,0
4.165,10.069,0
4.166,7.871,0
4.167,6.773,0
4.168,9.336,0
4.169,8.97,0
4.17,8.238,0
4.171,7.505,0
4.172,7.322,0
4.173,6.773,0
4.174,7.322,0
4.175,6.04,0
4.176,7.322,0
4.177,6.59,0
4.178,6.59,0
4.179,5.857,0
4.18,6.59,0
4.181,5.125,0
4.182,5.125,0
4.183,5.674,0
4.184,8.97,0
4.185,15.928,0
4.186,31.126,0
4.187,64.268,0
4.188,59.507,0
4.189,29.295,0
4.19,-6.228,0
4.191,-20.51,0
4.192,-33.327,0
4.193,-29.482,0
4.194,-40.102,0
4.195,-36.99,0
4.196,-34.06,0
4.197,-31.496,0
4.198,-29.116,0
4.199,-22.524,0
4.2,-20.51,0
4.201,-18.679,0
4.202,-17.031,0
4.203,-9.524,0
4.204,-5.495,0
4.205,-2.016,0
4.206,-3.115,0
4.207,-0.185,0
4.208,2.561,0
4.209,6.59,0
4.21,7.322,0
4.211,7.871,0
4.212,9.702,0
4.213,6.956,0
4.214,6.59,0
4.215,6.223,0
4.216,5.125,0
4.217,6.956,0
4.218,1.463,0
4.219,3.66,0
4.22,4.209,0
4.221,2.378,0
4.222,5.125,0
4.223,1.829,0
4.224,4.942,0
4.225,2.927,0
4.226,4.026,0
4.227,5.125,0
4.228,5.308,0
4.229,2.744,0
4.23,4.575,0
4.231,0.547,0
4.232,-1.101,0
4.233,-0.002,0
4.234,2.378,0
4.235,9.336,0
4.236,24.534,0
4.237,57.676,0
4.238,62.437,0
4.239,32.224,0
4.24,-3.298,0
4.241,-17.58,0
4.242,-21.792,0
4.243,-25.637,0
4.244,-29.116,0
4.245,-26.003,0
4.246,-23.073,0
4.247,-25.637,0
4.248,-18.496,0
4.249,-20.693,0
4.25,-18.679,0
4.251,-13.186,0
4.252,-11.538,0
4.253,-13.003,0
4.254,-14.284,0
4.255,-10.805,0
4.256,-9.707,0
4.257,-2.749,0
4.258,1.829,0
4.259,2.561,0
4.26,3.294,0
4.261,1.463,0
4.262,3.294,0
4.263,0.547,0
4.264,0.913,0
4.265,2.195,0
4.266,1.096,0
4.267,5.308,0
4.268,1.463,0
4.269,3.843,0
4.27,3.477,0
4.271,-0.368,0
4.272,0.913,0
4.273,3.111,0
4.274,3.477,0
4.275,2.378,0
4.276,7.871,0
4.277,19.407,0
4.278,27.647,0
4.279,11.167,0
4.28,0.181,0
4.281,-5.862,0
4.282,-11.355,0
4.283,-9.707,0
4.284,-12.453,0
4.285,-13.918,0
4.286,-1.65,0
4.287,13.365,0
4.288,27.464,0
4.289,54.929,0
4.29,66.648,0
4.291,41.746,0
4.292,-0.552,0
4.293,-29.299,0
4.294,-34.426,0
4.295,-39.187,0
4.296,-43.398,0
4.297,-39.553,0
4.298,-36.074,0
4.299,-32.961,0
4.3,-24.172,0
4.301,-21.609,0
4.302,-14.468,0
4.303,-16.665,0
4.304,-10.622,0
4.305,-8.791,0
4.306,-3.847,0
4.307,0.547,0
4.308,-0.735,0
4.309,5.308,0
4.31,8.604,0
4.311,9.519,0
4.312,12.266,0
4.313,8.238,0
4.314,4.392,0
4.315,1.096,0
4.316,5.491,0
4.317,7.139,0
4.318,4.759,0
4.319,5.125,0
4.32,0.547,0
4.321,6.223,0
4.322,2.378,0
4.323,5.674,0
4.324,3.843,0
4.325,5.491,0
4.326,5.857,0
4.327,6.223,0
4.328,4.209,0
4.329,5.308,0
4.33,2.744,0
4.331,0.73,0
4.332,0.913,0
4.333,2.195,0
4.334,0.73,0
4.335,2.195,0
4.336,2.378,0
4.337,2.927,0
4.338,5.674,0
4.339,11.35,0
4.34,23.802,0
4.341,51.267,0
4.342,47.422,0
4.343,8.054,0
4.344,-18.13,0
4.345,-32.412,0
4.346,-36.623,0
4.347,-40.469,0
4.348,-43.948,0
4.349,-40.835,0
4.35,-37.905,0
4.351,-30.031,0
4.352,-32.412,0
4.353,-21.426,0
4.354,-19.411,0
4.355,-17.58,0
4.356,-12.636,0
4.357,-5.129,0
4.358,-3.847,0
4.359,-2.749,0
4.36,0.547,0
4.361,1.463,0
4.362,4.209,0
4.363,3.477,0
4.364,8.787,0
4.365,5.491,0
4.366,3.66,0
4.367,4.209,0
4.368,4.575,0
4.369,3.294,0
4.37,4.392,0
4.371,5.491,0
4.372,4.392,0
4.373,8.97,0
4.374,4.392,0
4.375,6.223,0
4.376,8.97,0
4.377,7.688,0
4.378,4.575,0
4.379,4.209,0
4.38,7.688,0
4.381,6.406,0
4.382,3.66,0
4.383,1.096,0
4.384,1.463,0
4.385,1.646,0
4.386,-0.002,0
4.387,0.73,0
4.388,4.759,0
4.389,13.181,0
4.39,31.675,0
4.391,71.958,0
4.392,66.282,0
4.393,29.661,0
4.394,-13.369,0
4.395,-30.581,0
4.396,-35.708,0
4.397,-40.469,0
4.398,-44.68,0
4.399,-40.835,0
4.4,-37.356,0
4.401,-34.243,0
4.402,-31.313,0
4.403,-23.44,0
4.404,-21.059,0
4.405,-18.862,0
4.406,-12.82,0
4.407,-7.326,0
4.408,-2.383,0
4.409,-0.918,0
4.41,-2.199,0
4.411,1.28,0
4.412,2.378,0
4.413,3.294,0
4.414,0.547,0
4.415,2.927,0
4.416,3.66,0
4.417,5.491,0
4.418,3.66,0
4.419,4.209,0
4.42,1.829,0
4.421,1.463,0
4.422,2.561,0
4.423,5.125,0
4.424,1.829,0
4.425,3.843,0
4.426,6.406,0
4.427,10.435,0
4.428,4.942,0
4.429,4.209,0
4.43,-0.368,0
4.431,4.026,0
4.432,0.181,0
4.433,3.477,0
4.434,0.364,0
4.435,1.463,0
4.436,2.561,0
4.437,2.927,0
4.438,-2.566,0
4.439,8.97,0
4.44,20.506,0
4.441,43.028,0
4.442,52.549,0
4.443,55.479,0
4.444,52.915,0
4.445,50.535,0
4.446,52.732,0
4.447,22.52,0
4.448,-25.088,0
4.449,-56.765,0
4.45,-62.441,0
4.451,-67.568,0
4.452,-62.807,0
4.453,-58.596,0
4.454,-46.877,0
4.455,-43.398,0
4.456,-33.877,0
4.457,-30.947,0
4.458,-23.073,0
4.459,-15.932,0
4.46,-13.735,0
4.461,-7.693,0
4.462,-2.199,0
4.463,-0.552,0
4.464,0.913,0
4.465,4.942,0
4.466,6.04,0
4.467,7.139,0
4.468,6.223,0
4.469,5.308,0
4.47,9.336,0
4.471,10.069,0
4.472,9.519,0
4.473,10.069,0
4.474,11.717,0
4.475,7.139,0
4.476,10.252,0
4.477,9.702,0
4.478,8.421,0
4.479,8.787,0
4.48,9.885,0
4.481,6.406,0
4.482,6.04,0
4.483,4.942,0
4.484,3.843,0
4.485,3.477,0
4.486,4.942,0
4.487,1.28,0
4.488,1.463,0
4.489,2.744,0
4.49,9.702,0
4.491,24.9,0
4.492,53.648,0
4.493,73.24,0
4.494,69.761,0
4.495,34.055,0
4.496,-8.974,0
4.497,-26.186,0
4.498,-41.75,0
4.499,-46.511,0
4.5,-42.3,0
4.501,-46.145,0
4.502,-35.525,0
4.503,-32.412,0
4.504,-29.482,0
4.505,-26.919,0
4.506,-24.538,0
4.507,-17.947,0
4.508,-11.904,0
4.509,-10.073,0
4.51,-5.129,0
4.511,-3.664,0
4.512,-2.383,0
4.513,-3.481,0
4.514,-0.185,0
4.515,0.73,0
4.516,7.139,0
4.517,4.759,0
4.518,0.913,0
4.519,4.209,0
4.52,6.04,0
4.521,5.491,0
4.522,12.998,0
4.523,30.027,0
4.524,27.647,0
4.525,12.266,0
4.526,2.195,0
4.527,-3.298,0
4.528,-8.242,0
4.529,-6.777,0
4.53,-8.059,0
4.531,-6.96,0
4.532,-10.256,0
4.533,-7.326,0
4.534,-6.411,0
4.535,-7.143,0
4.536,-4.946,0
4.537,-3.115,0
4.538,-4.946,0
4.539,-0.735,0
4.54,-2.383,0
4.541,5.125,0
4.542,22.154,0
4.543,48.887,0
4.544,59.507,0
4.545,75.62,0
4.546,54.929,0
4.547,14.646,0
4.548,-14.101,0
4.549,-40.285,0
4.55,-45.046,0
4.551,-40.835,0
4.552,-44.68,0
4.553,-41.201,0
4.554,-38.088,0
4.555,-35.158,0
4.556,-27.285,0
4.557,-20.144,0
4.558,-13.552,0
4.559,-15.566,0
4.56,-6.411,0
4.561,-8.059,0
4.562,-3.664,0
4.563,-2.383,0
4.564,1.096,0
4.565,-0.002,0
4.566,0.913,0
4.567,-0.002,0
4.568,5.674,0
4.569,3.477,0
4.57,6.773,0
4.571,7.322,0
4.572,3.477,0
4.573,5.857,0
4.574,8.97,0
4.575,9.336,0
4.576,8.97,0
4.577,7.871,0
4.578,5.857,0
4.579,4.026,0
4.58,3.843,0
4.581,1.28,0
4.582,3.843,0
4.583,3.111,0
4.584,2.378,0
4.585,5.308,0
4.586,1.829,0
4.587,0.547,0
4.588,-0.552,0
4.589,2.927,0
4.59,1.463,0
4.591,1.096,0
4.592,7.322,0
4.593,21.238,0
4.594,39.365,0
4.595,66.099,0
4.596,76.719,0
4.597,47.422,0
4.598,-3.847,0
4.599,-24.721,0
4.6,-43.581,0
4.601,-49.258,0
4.602,-44.131,0
4.603,-39.37,0
4.604,-43.581,0
4.605,-39.736,0
4.606,-36.257,0
4.607,-26.736,0
4.608,-23.806,0
4.609,-15.932,0
4.61,-13.552,0
4.611,-11.355,0
4.612,-5.312,0
4.613,-3.481,0
4.614,-1.833,0
4.615,-0.368,0
4.616,-1.65,0
4.617,1.829,0
4.618,0.73,0
4.619,3.66,0
4.62,4.575,0
4.621,3.843,0
4.622,1.646,0
4.623,6.223,0
4.624,10.618,0
4.625,6.773,0
4.626,6.406,0
4.627,7.688,0
4.628,9.702,0
4.629,7.139,0
4.63,6.773,0
4.631,6.04,0
4.632,5.308,0
4.633,6.59,0
4.634,3.111,0
4.635,0.73,0
4.636,2.012,0
4.637,3.111,0
4.638,-0.368,0
4.639,0.913,0
4.64,2.012,0
4.641,2.927,0
4.642,4.759,0
4.643,10.252,0
4.644,21.787,0
4.645,46.69,0
4.646,64.451,0
4.647,73.972,0
4.648,41.38,0
4.649,-6.228,0
4.65,-25.088,0
4.651,-42.3,0
4.652,-47.427,0
4.653,-42.666,0
4.654,-46.877,0
4.655,-43.032,0
4.656,-32.412,0
4.657,-29.299,0
4.658,-20.51,0
4.659,-17.947,0
4.66,-20.327,0
4.661,-9.341,0
4.662,-7.326,0
4.663,-9.157,0
4.664,-7.51,0
4.665,-6.045,0
4.666,0.73,0
4.667,1.829,0
4.668,2.927,0
4.669,2.012,0
4.67,6.59,0
4.671,7.322,0
4.672,8.054,0
4.673,6.223,0
4.674,5.674,0
4.675,5.125,0
4.676,6.406,0
4.677,6.773,0
4.678,8.787,0
4.679,6.956,0
4.68,4.392,0
4.681,5.857,0
4.682,4.575,0
4.683,2.195,0
4.684,2.378,0
4.685,3.66,0
4.686,1.28,0
4.687,2.012,0
4.688,0.73,0
4.689,3.111,0
4.69,3.843,0
4.691,3.111,0
4.692,5.857,0
4.693,3.477,0
4.694,8.054,0
4.695,18.308,0
4.696,40.83,0
4.697,70.127,0
4.698,58.408,0
4.699,26.182,0
4.7,-12.82,0
4.701,-28.384,0
4.702,-33.144,0
4.703,-37.356,0
4.704,-41.201,0
4.705,-37.722,0
4.706,-40.835,0
4.707,-32.046,0
4.708,-29.482,0
4.709,-27.102,0
4.71,-16.115,0
4.711,-18.13,0
4.712,-8.974,0
4.713,-10.622,0
4.714,-9.157,0
4.715,-7.876,0
4.716,-4.397,0
4.717,-5.495,0
4.718,1.463,0
4.719,2.378,0
4.72,4.759,0
4.721,8.604,0
4.722,5.308,0
4.723,7.139,0
4.724,7.688,0
4.725,8.054,0
4.726,10.252,0
4.727,11.35,0
4.728,10.252,0
4.729,6.956,0
4.73,8.054,0
4.731,3.111,0
4.732,1.28,0
4.733,-0.552,0
4.734,-2.199,0
4.735,-2.566,0
4.736,-1.284,0
4.737,-3.298,0
4.738,2.378,0
4.739,4.759,0
4.74,5.491,0
4.741,3.66,0
4.742,4.209,0
4.743,5.857,0
4.744,3.111,0
4.745,10.618,0
4.746,18.491,0
4.747,33.689,0
4.748,66.831,0
4.749,52.549,0
4.75,13.548,0
4.751,-12.636,0
4.752,-26.919,0
4.753,-31.13,0
4.754,-42.849,0
4.755,-39.37,0
4.756,-29.848,0
4.757,-26.919,0
4.758,-29.482,0
4.759,-17.397,0
4.76,-15.2,0
4.761,-9.157,0
4.762,-7.326,0
4.763,-8.974,0
4.764,-7.51,0
4.765,-8.791,0
4.766,-5.312,0
4.767,4.942,0
4.768,25.449,0
4.769,34.239,0
4.77,15.562,0
4.771,3.477,0
4.772,-7.51,0
4.773,-5.495,0
4.774,-7.326,0
4.775,-8.974,0
4.776,-4.58,0
4.777,-3.298,0
4.778,-4.397,0
4.779,-3.298,0
4.78,-2.383,0
4.781,-3.298,0
4.782,-2.566,0
4.783,-4.763,0
4.784,-5.312,0
4.785,-3.481,0
4.786,-1.833,0
4.787,1.463,0
4.788,1.829,0
4.789,2.927,0
4.79,0.364,0
4.791,3.66,0
4.792,1.646,0
4.793,3.477,0
4.794,5.857,0
4.795,4.759,0
4.796,9.336,0
4.797,19.59,0
4.798,42.112,0
4.799,77.818,0
4.8,54.014,0
4.801,15.012,0
4.802,-11.172,0
4.803,-25.454,0
4.804,-38.271,0
4.805,-34.426,0
4.806,-37.905,0
4.807,-34.792,0
4.808,-26.003,0
4.809,-23.44,0
4.81,-21.059,0
4.811,-18.862,0
4.812,-12.82,0
4.813,-14.651,0
4.814,-9.707,0
4.815,-8.242,0
4.816,-4.214,0
4.817,-5.312,0
4.818,-2.016,0
4.819,0.913,0
4.82,-0.002,0
4.821,-0.735,0
4.822,1.463,0
4.823,7.688,0
4.824,6.956,0
4.825,6.223,0
4.826,9.519,0
4.827,10.069,0
4.828,9.519,0
4.829,7.139,0
4.83,4.026,0
4.831,5.125,0
4.832,1.646,0
4.833,2.927,0
4.834,3.294,0
4.835,1.463,0
4.836,1.829,0
4.837,1.096,0
4.838,1.28,0
4.839,-0.002,0
4.84,0.181,0
4.841,3.477,0
4.842,3.111,0
4.843,1.096,0
4.844,4.575,0
4.845,4.392,0
4.846,4.759,0
4.847,10.984,0
4.848,24.9,0
4.849,55.113,0
4.85,67.93,0
4.851,71.775,0
4.852,61.155,0
4.853,38.633,0
4.854,6.04,0
4.855,-6.777,0
4.856,-18.496,0
4.857,-21.975,0
4.858,-25.088,0
4.859,-28.017,0
4.86,-25.454,0
4.861,-32.595,0
4.862,-43.581,0
4.863,-49.624,0
4.864,-55.117,0
4.865,-60.061,0
4.866,-58.596,0
4.867,-57.314,0
4.868,-46.145,0
4.869,-32.595,0
4.87,-23.44,0
4.871,-41.75,0
4.872,-48.891,0
4.873,-68.85,0
4.874,-87.527,0
4.875,-104.37,0
4.876,-110.96,0
4.877,-117.01,0
4.878,-137.15,0
4.879,-150.51,0
4.88,-143.37,0
4.881,-127.99,0
4.882,-105.84,0
4.883,-97.048,0
4.884,-67.568,0
4.885,-8.425,0
4.886,67.93,0
4.887,139.71,0
4.888,167.72,0
4.889,159.3,0
4.89,151.61,0
4.891,130.74,0
4.892,124.51,0
4.893,130.19,0
4.894,125.06,0
4.895,148.86,0
4.896,154.54,0
4.897,176.15,0
4.898,203.61,0
4.899,214.23,0
4.9,223.75,0
4.901,214.96,0
4.902,207.09,0
4.903,170.65,0
4.904,102.35,0
4.905,36.985,0
4.906,11.717,0
4.907,-11.355,0
4.908,-18.313,0
4.909,-24.538,0
4.91,-30.215,0
4.911,-35.342,0
4.912,-40.102,0
4.913,-52.92,0
4.914,-49.074,0
4.915,-52.553,0
4.916,-55.666,0
4.917,-58.596,0
4.918,-66.469,0
4.919,-68.85,0
4.92,-66.653,0
4.921,-68.667,0
4.922,-63.174,0
4.923,-61.526,0
4.924,-60.061,0
4.925,-61.343,0
4.926,-60.244,0
4.927,-63.54,0
4.928,-66.469,0
4.929,-65.554,0
4.93,-61.526,0
4.931,-63.723,0
4.932,-59.145,0
4.933,-54.751,0
4.934,-52.004,0
4.935,-49.624,0
4.936,-45.412,0
4.937,-41.567,0
4.938,-36.99,0
4.939,-31.313,0
4.94,-24.355,0
4.941,-21.609,0
4.942,-17.58,0
4.943,-15.383,0
4.944,-10.805,0
4.945,-7.693,0
4.946,-8.242,0
4.947,-6.594,0
4.948,-5.312,0
4.949,1.646,0
4.95,16.844,0
4.951,45.591,0
4.952,57.31,0
4.953,75.071,0
4.954,45.774,0
4.955,10.252,0
4.956,-13.552,0
4.957,-26.369,0
4.958,-30.215,0
4.959,-33.694,0
4.96,-36.806,0
4.961,-28.017,0
4.962,-25.454,0
4.963,-23.073,0
4.964,-20.876,0
4.965,-14.834,0
4.966,-9.341,0
4.967,-7.693,0
4.968,-3.298,0
4.969,0.73,0
4.97,1.829,0
4.971,2.927,0
4.972,5.857,0
4.973,6.773,0
4.974,12.449,0
4.975,14.646,0
4.976,16.477,0
4.977,15.928,0
4.978,14.28,0
4.979,12.998,0
4.98,14.28,0
4.981,10.435,0
4.982,11.717,0
4.983,12.998,0
4.984,8.421,0
4.985,11.533,0
4.986,13.181,0
4.987,13.548,0
4.988,11.35,0
4.989,8.604,0
4.99,6.773,0
4.991,7.139,0
4.992,6.406,0
4.993,8.238,0
4.994,7.505,0
4.995,7.322,0
4.996,7.871,0
4.997,4.942,0
4.998,3.66,0
4.999,6.406,0
5,12.083,0
5.001,24.534,0
5.002,48.338,0
5.003,64.451,0
5.004,43.76,0
5.005,25.083,0
5.006,-11.355,0
5.007,-26.919,0
5.008,-31.679,0
5.009,-35.891,0
5.01,-32.046,0
5.011,-35.525,0
5.012,-32.412,0
5.013,-17.58,0
5.014,6.59,0
5.015,16.111,0
5.016,-4.58,0
5.017,-12.453,0
5.018,-14.834,0
5.019,-17.031,0
5.02,-15.017,0
5.021,-13.186,0
5.022,-11.538,0
5.023,-10.073,0
5.024,-8.791,0
5.025,-2.749,0
5.026,-1.65,0
5.027,1.28,0
5.028,5.857,0
5.029,1.829,0
5.03,1.096,0
5.031,1.646,0
5.032,6.04,0
5.033,3.294,0
5.034,0.913,0
5.035,3.111,0
5.036,5.857,0
5.037,0.913,0
5.038,2.744,0
5.039,7.139,0
5.04,5.491,0
5.041,4.209,0
5.042,6.406,0
5.043,6.773,0
5.044,7.871,0
5.045,8.238,0
5.046,6.223,0
5.047,2.012,0
5.048,3.843,0
5.049,-0.002,0
5.05,-2.749,0
5.051,4.759,0
5.052,21.787,0
5.053,58.225,0
5.054,63.352,0
5.055,68.113,0
5.056,37.901,0
5.057,2.378,0
5.058,-21.426,0
5.059,-25.637,0
5.06,-37.356,0
5.061,-40.835,0
5.062,-37.722,0
5.063,-34.792,0
5.064,-37.356,0
5.065,-30.215,0
5.066,-23.623,0
5.067,-17.58,0
5.068,-15.749,0
5.069,-14.101,0
5.07,-9.707,0
5.071,-8.425,0
5.072,-9.524,0
5.073,-6.228,0
5.074,-1.284,0
5.075,1.463,0
5.076,2.195,0
5.077,4.392,0
5.078,6.223,0
5.079,6.773,0
5.08,1.646,0
5.081,4.942,0
5.082,0.547,0
5.083,5.674,0
5.084,3.843,0
5.085,3.294,0
5.086,4.942,0
5.087,0.364,0
5.088,0.913,0
5.089,4.759,0
5.09,6.04,0
5.091,4.759,0
5.092,7.505,0
5.093,4.026,0
5.094,4.392,0
5.095,1.646,0
5.096,-0.185,0
5.097,0.181,0
5.098,-1.284,0
5.099,-0.552,0
5.1,-0.735,0
5.101,-1.467,0
5.102,2.012,0
5.103,9.519,0
5.104,26.548,0
5.105,62.986,0
5.106,68.113,0
5.107,34.788,0
5.108,-4.214,0
5.109,-19.778,0
5.11,-34.06,0
5.111,-38.271,0
5.112,-42.116,0
5.113,-38.637,0
5.114,-35.525,0
5.115,-32.595,0
5.116,-30.031,0
5.117,-22.89,0
5.118,-20.693,0
5.119,-18.679,0
5.12,-13.186,0
5.121,-8.242,0
5.122,-6.777,0
5.123,-2.749,0
5.124,-1.65,0
5.125,4.026,0
5.126,4.942,0
5.127,7.688,0
5.128,8.421,0
5.129,4.575,0
5.13,6.406,0
5.131,3.294,0
5.132,4.942,0
5.133,6.223,0
5.134,4.942,0
5.135,3.843,0
5.136,4.942,0
5.137,0.913,0
5.138,1.28,0
5.139,2.561,0
5.14,3.66,0
5.141,4.759,0
5.142,6.59,0
5.143,5.125,0
5.144,3.843,0
5.145,2.012,0
5.146,3.477,0
5.147,0.547,0
5.148,2.378,0
5.149,1.28,0
5.15,1.463,0
5.151,-0.735,0
5.152,-0.002,0
5.153,4.026,0
5.154,12.449,0
5.155,30.943,0
5.156,71.226,0
5.157,54.014,0
5.158,6.773,0
5.159,-12.087,0
5.16,-29.299,0
5.161,-34.426,0
5.162,-39.187,0
5.163,-34.975,0
5.164,-38.821,0
5.165,-35.342,0
5.166,-25.82,0
5.167,-22.89,0
5.168,-20.327,0
5.169,-17.947,0
5.17,-11.355,0
5.171,-13.369,0
5.172,-7.876,0
5.173,-2.932,0
5.174,1.463,0
5.175,2.744,0
5.176,1.646,0
5.177,4.942,0
5.178,5.857,0
5.179,4.942,0
5.18,5.674,0
5.181,0.364,0
5.182,3.66,0
5.183,3.111,0
5.184,0.364,0
5.185,0.73,0
5.186,2.012,0
5.187,4.026,0
5.188,2.927,0
5.189,3.294,0
5.19,6.59,0
5.191,5.308,0
5.192,5.674,0
5.193,6.773,0
5.194,10.069,0
5.195,3.843,0
5.196,1.096,0
5.197,3.477,0
5.198,4.209,0
5.199,0.913,0
5.2,2.744,0
5.201,-2.383,0
5.202,2.195,0
5.203,-1.101,0
5.204,8.421,0
5.205,28.928,0
5.206,55.662,0
5.207,73.423,0
5.208,44.126,0
5.209,8.604,0
5.21,-15.2,0
5.211,-28.017,0
5.212,-31.863,0
5.213,-35.342,0
5.214,-38.454,0
5.215,-35.525,0
5.216,-32.961,0
5.217,-30.581,0
5.218,-28.384,0
5.219,-22.341,0
5.22,-16.848,0
5.221,-15.2,0
5.222,-7.693,0
5.223,-8.974,0
5.224,-2.932,0
5.225,0.364,0
5.226,-0.552,0
5.227,-1.467,0
5.228,0.913,0
5.229,1.646,0
5.23,-0.185,0
5.231,0.364,0
5.232,4.209,0
5.233,1.829,0
5.234,-0.368,0
5.235,5.125,0
5.236,1.28,0
5.237,4.575,0
5.238,5.125,0
5.239,2.378,0
5.24,6.956,0
5.241,6.406,0
5.242,6.956,0
5.243,6.59,0
5.244,4.392,0
5.245,6.406,0
5.246,2.927,0
5.247,-0.185,0
5.248,-0.552,0
5.249,-0.185,0
5.25,-2.016,0
5.251,-1.284,0
5.252,1.28,0
5.253,-3.664,0
5.254,-1.101,0
5.255,-0.918,0
5.256,-0.185,0
5.257,-0.002,0
5.258,3.477,0
5.259,10.984,0
5.26,28.013,0
5.261,30.393,0
5.262,6.04,0
5.263,9.153,0
5.264,35.886,0
5.265,60.789,0
5.266,38.267,0
5.267,-0.368,0
5.268,-26.552,0
5.269,-40.835,0
5.27,-45.046,0
5.271,-41.201,0
5.272,-44.68,0
5.273,-41.567,0
5.274,-32.778,0
5.275,-30.215,0
5.276,-23.073,0
5.277,-16.482,0
5.278,-14.468,0
5.279,-16.299,0
5.28,-11.355,0
5.281,-6.96,0
5.282,-5.678,0
5.283,-2.199,0
5.284,-1.101,0
5.285,-0.185,0
5.286,2.561,0
5.287,3.294,0
5.288,4.026,0
5.289,5.857,0
5.29,8.97,0
5.291,9.519,0
5.292,9.885,0
5.293,8.604,0
5.294,8.238,0
5.295,3.294,0
5.296,3.843,0
5.297,5.674,0
5.298,5.125,0
5.299,0.547,0
5.3,-0.002,0
5.301,2.744,0
5.302,0.364,0
5.303,2.561,0
5.304,1.463,0
5.305,5.308,0
5.306,10.801,0
5.307,22.337,0
5.308,47.239,0
5.309,65,0
5.31,74.522,0
5.311,65.733,0
5.312,25.449,0
5.313,-14.834,0
5.314,-41.018,0
5.315,-45.779,0
5.316,-49.99,0
5.317,-46.145,0
5.318,-49.624,0
5.319,-46.511,0
5.32,-37.722,0
5.321,-29.848,0
5.322,-22.707,0
5.323,-20.51,0
5.324,-14.468,0
5.325,-12.636,0
5.326,-7.693,0
5.327,-3.298,0
5.328,-2.016,0
5.329,-0.918,0
5.33,2.378,0
5.331,5.308,0
5.332,4.392,0
5.333,5.125,0
5.334,5.857,0
5.335,9.153,0
5.336,3.477,0
5.337,4.209,0
5.338,6.04,0
5.339,7.871,0
5.34,8.421,0
5.341,7.139,0
5.342,7.505,0
5.343,7.871,0
5.344,4.392,0
5.345,4.026,0
5.346,4.392,0
5.347,1.829,0
5.348,2.195,0
5.349,2.378,0
5.35,3.111,0
5.351,2.927,0
5.352,3.111,0
5.353,2.012,0
5.354,2.195,0
5.355,2.927,0
5.356,5.674,0
5.357,11.35,0
5.358,23.802,0
5.359,51.267,0
5.36,70.86,0
5.361,38.633,0
5.362,-0.368,0
5.363,-15.932,0
5.364,-30.215,0
5.365,-34.426,0
5.366,-30.581,0
5.367,-34.06,0
5.368,-30.947,0
5.369,-28.017,0
5.37,-25.454,0
5.371,-18.313,0
5.372,-16.115,0
5.373,-14.101,0
5.374,-8.608,0
5.375,-6.96,0
5.376,-5.495,0
5.377,-4.214,0
5.378,1.829,0
5.379,0.73,0
5.38,1.646,0
5.381,0.73,0
5.382,3.111,0
5.383,2.378,0
5.384,0.547,0
5.385,3.66,0
5.386,4.209,0
5.387,1.829,0
5.388,4.026,0
5.389,5.125,0
5.39,6.223,0
5.391,8.054,0
5.392,8.787,0
5.393,5.674,0
5.394,4.575,0
5.395,2.012,0
5.396,1.646,0
5.397,1.463,0
5.398,1.646,0
5.399,1.463,0
5.4,0.913,0
5.401,-0.185,0
5.402,-1.467,0
5.403,-3.847,0
5.404,-0.552,0
5.405,-0.185,0
5.406,-0.002,0
5.407,2.012,0
5.408,7.688,0
5.409,20.139,0
5.41,47.605,0
5.411,75.071,0
5.412,42.844,0
5.413,3.843,0
5.414,-22.341,0
5.415,-27.102,0
5.416,-31.313,0
5.417,-35.158,0
5.418,-31.679,0
5.419,-28.567,0
5.42,-25.637,0
5.421,-23.073,0
5.422,-25.454,0
5.423,-18.862,0
5.424,-16.848,0
5.425,-11.355,0
5.426,-9.707,0
5.427,-5.312,0
5.428,-1.284,0
5.429,-2.383,0
5.43,-1.284,0
5.431,-0.368,0
5.432,2.378,0
5.433,3.111,0
5.434,5.308,0
5.435,7.139,0
5.436,5.308,0
5.437,3.66,0
5.438,3.294,0
5.439,5.491,0
5.44,5.125,0
5.441,2.561,0
5.442,2.927,0
5.443,5.674,0
5.444,3.843,0
5.445,1.28,0
5.446,2.012,0
5.447,5.674,0
5.448,3.294,0
5.449,4.575,0
5.45,1.829,0
5.451,-1.65,0
5.452,-1.284,0
5.453,-1.65,0
5.454,0.181,0
5.455,-1.65,0
5.456,0.364,0
5.457,4.392,0
5.458,3.66,0
5.459,2.378,0
5.46,5.857,0
5.461,13.365,0
5.462,30.393,0
5.463,52.366,0
5.464,67.198,0
5.465,53.831,0
5.466,17.393,0
5.467,-29.848,0
5.468,-48.708,0
5.469,-54.385,0
5.47,-49.258,0
5.471,-54.018,0
5.472,-49.807,0
5.473,-45.962,0
5.474,-35.342,0
5.475,-32.229,0
5.476,-29.299,0
5.477,-21.426,0
5.478,-19.045,0
5.479,-12.453,0
5.48,-10.439,0
5.481,-4.946,0
5.482,-6.594,0
5.483,-2.199,0
5.484,-0.918,0
5.485,2.561,0
5.486,8.238,0
5.487,5.308,0
5.488,6.223,0
5.489,8.604,0
5.49,12.449,0
5.491,11.9,0
5.492,7.505,0
5.493,9.153,0
5.494,5.857,0
5.495,7.139,0
5.496,7.505,0
5.497,4.942,0
5.498,7.505,0
5.499,7.322,0
5.5,6.04,0
5.501,6.773,0
5.502,5.308,0
5.503,2.927,0
5.504,3.111,0
5.505,7.322,0
5.506,16.844,0
5.507,23.618,0
5.508,11.717,0
5.509,0.547,0
5.51,-0.918,0
5.511,-4.946,0
5.512,6.223,0
5.513,28.745,0
5.514,64.451,0
5.515,40.647,0
5.516,1.646,0
5.517,-24.538,0
5.518,-38.821,0
5.519,-43.032,0
5.52,-46.877,0
5.521,-43.398,0
5.522,-33.877,0
5.523,-30.947,0
5.524,-28.384,0
5.525,-21.242,0
5.526,-14.651,0
5.527,-12.636,0
5.528,-10.805,0
5.529,-9.157,0
5.53,-4.763,0
5.531,-0.735,0
5.532,2.744,0
5.533,3.843,0
5.534,2.927,0
5.535,5.674,0
5.536,-0.002,0
5.537,2.195,0
5.538,4.026,0
5.539,4.575,0
5.54,4.026,0
5.541,3.66,0
5.542,4.026,0
5.543,6.773,0
5.544,6.406,0
5.545,6.773,0
5.546,6.04,0
5.547,5.308,0
5.548,3.477,0
5.549,3.66,0
5.55,4.209,0
5.551,4.392,0
5.552,3.477,0
5.553,5.491,0
5.554,7.322,0
5.555,8.054,0
5.556,7.322,0
5.557,8.054,0
5.558,6.59,0
5.559,5.857,0
5.56,7.322,0
5.561,10.252,0
5.562,16.477,0
5.563,30.393,0
5.564,60.606,0
5.565,73.423,0
5.566,45.957,0
5.567,-0.552,0
5.568,-19.411,0
5.569,-36.623,0
5.57,-41.75,0
5.571,-46.511,0
5.572,-42.3,0
5.573,-38.454,0
5.574,-34.975,0
5.575,-31.863,0
5.576,-28.933,0
5.577,-26.369,0
5.578,-19.228,0
5.579,-21.426,0
5.58,-11.355,0
5.581,-9.524,0
5.582,-7.876,0
5.583,-9.341,0
5.584,-2.566,0
5.585,-1.467,0
5.586,-0.368,0
5.587,2.561,0
5.588,-2.016,0
5.589,3.66,0
5.59,1.463,0
5.591,6.04,0
5.592,5.491,0
5.593,12.815,0
5.594,7.871,0
5.595,8.787,0
5.596,8.054,0
5.597,5.857,0
5.598,6.406,0
5.599,4.575,0
5.6,4.026,0
5.601,5.308,0
5.602,4.026,0
5.603,3.66,0
5.604,1.829,0
5.605,2.927,0
5.606,1.463,0
5.607,1.646,0
5.608,1.463,0
5.609,4.942,0
5.61,0.73,0
5.611,2.012,0
5.612,8.97,0
5.613,24.168,0
5.614,44.126,0
5.615,57.493,0
5.616,74.339,0
5.617,49.986,0
5.618,1.28,0
5.619,-19.594,0
5.62,-38.454,0
5.621,-44.131,0
5.622,-39.004,0
5.623,-43.764,0
5.624,-39.553,0
5.625,-35.708,0
5.626,-25.088,0
5.627,-21.975,0
5.628,-19.045,0
5.629,-16.482,0
5.63,-18.862,0
5.631,-16.665,0
5.632,-14.651,0
5.633,-5.495,0
5.634,-7.143,0
5.635,-2.749,0
5.636,-1.467,0
5.637,-0.368,0
5.638,2.927,0
5.639,5.857,0
5.64,8.604,0
5.641,7.871,0
5.642,8.604,0
5.643,11.9,0
5.644,11.35,0
5.645,8.604,0
5.646,6.223,0
5.647,7.505,0
5.648,4.759,0
5.649,9.702,0
5.65,7.871,0
5.651,8.421,0
5.652,12.266,0
5.653,13.548,0
5.654,13.914,0
5.655,19.407,0
5.656,24.717,0
5.657,28.013,0
5.658,29.844,0
5.659,32.591,0
5.66,27.097,0
5.661,22.703,0
5.662,17.393,0
5.663,26.365,0
5.664,44.859,0
5.665,63.535,0
5.666,61.155,0
5.667,28.013,0
5.668,-24.538,0
5.669,-59.511,0
5.67,-78.371,0
5.671,-84.048,0
5.672,-78.921,0
5.673,-64.638,0
5.674,-60.427,0
5.675,-48.708,0
5.676,-59.328,0
5.677,-68.85,0
5.678,-83.681,0
5.679,-97.048,0
5.68,-113.89,0
5.681,-129.28,0
5.682,-139.34,0
5.683,-137.51,0
5.684,-139.16,0
5.685,-125.61,0
5.686,-109.13,0
5.687,-98.147,0
5.688,-75.991,0
5.689,-43.398,0
5.69,21.604,0
5.691,124.33,0
5.692,165.16,0
5.693,177.61,0
5.694,143.92,0
5.695,133.66,0
5.696,105.65,0
5.697,97.227,0
5.698,89.536,0
5.699,82.578,0
5.7,88.804,0
5.701,106.02,0
5.702,121.58,0
5.703,135.86,0
5.704,131.65,0
5.705,127.81,0
5.706,124.33,0
5.707,114.81,0
5.708,106.02,0
5.709,98.142,0
5.71,81.297,0
5.711,56.944,0
5.712,35.886,0
5.713,32.774,0
5.714,47.605,0
5.715,55.479,0
5.716,62.62,0
5.717,60.423,0
5.718,62.437,0
5.719,34.971,0
5.72,-16.299,0
5.721,-65.188,0
5.722,-71.413,0
5.723,-77.09,0
5.724,-103.27,0
5.725,-98.513,0
5.726,-102.72,0
5.727,-91.006,0
5.728,-87.527,0
5.729,-84.414,0
5.73,-81.484,0
5.731,-73.611,0
5.732,-75.991,0
5.733,-73.794,0
5.734,-67.751,0
5.735,-69.582,0
5.736,-67.934,0
5.737,-60.427,0
5.738,-56.399,0
5.739,-52.92,0
5.74,-47.243,0
5.741,-42.3,0
5.742,-37.722,0
5.743,-30.215,0
5.744,-27.285,0
5.745,-20.876,0
5.746,-16.848,0
5.747,-13.003,0
5.748,-13.552,0
5.749,-10.439,0
5.75,-2.016,0
5.751,16.477,0
5.752,29.844,0
5.753,17.759,0
5.754,2.378,0
5.755,-3.664,0
5.756,-1.833,0
5.757,-6.777,0
5.758,-5.312,0
5.759,-4.031,0
5.76,-2.932,0
5.761,-4.031,0
5.762,-3.115,0
5.763,-0.002,0
5.764,-0.918,0
5.765,11.533,0
5.766,31.675,0
5.767,71.958,0
5.768,77.635,0
5.769,41.013,0
5.77,-2.016,0
5.771,-19.228,0
5.772,-24.355,0
5.773,-29.116,0
5.774,-24.905,0
5.775,-21.059,0
5.776,-17.58,0
5.777,-14.468,0
5.778,-17.397,0
5.779,-9.524,0
5.78,-2.383,0
5.781,-0.185,0
5.782,1.829,0
5.783,-0.002,0
5.784,4.942,0
5.785,6.406,0
5.786,7.688,0
5.787,6.59,0
5.788,7.688,0
5.789,6.773,0
5.79,9.519,0
5.791,10.252,0
5.792,10.984,0
5.793,9.153,0
5.794,13.548,0
5.795,9.702,0
5.796,10.069,0
5.797,11.35,0
5.798,8.604,0
5.799,8.238,0
5.8,10.069,0
5.801,9.336,0
5.802,8.604,0
5.803,9.336,0
5.804,7.139,0
5.805,7.322,0
5.806,7.505,0
5.807,7.322,0
5.808,6.773,0
5.809,7.322,0
5.81,4.575,0
5.811,2.012,0
5.812,4.575,0
5.813,-0.002,0
5.814,1.463,0
5.815,-3.115,0
5.816,6.406,0
5.817,26.914,0
5.818,35.703,0
5.819,59.873,0
5.82,69.395,0
5.821,42.661,0
5.822,-3.847,0
5.823,-22.707,0
5.824,-39.919,0
5.825,-45.046,0
5.826,-49.807,0
5.827,-45.595,0
5.828,-33.877,0
5.829,-30.398,0
5.83,-27.285,0
5.831,-24.355,0
5.832,-16.482,0
5.833,-18.862,0
5.834,-16.665,0
5.835,-10.622,0
5.836,-8.791,0
5.837,-7.143,0
5.838,-5.678,0
5.839,-1.65,0
5.84,1.829,0
5.841,0.73,0
5.842,5.674,0
5.843,6.59,0
5.844,7.322,0
5.845,5.125,0
5.846,5.674,0
5.847,7.505,0
5.848,4.759,0
5.849,6.04,0
5.85,2.927,0
5.851,4.942,0
5.852,2.378,0
5.853,5.674,0
5.854,1.829,0
5.855,2.195,0
5.856,3.477,0
5.857,1.463,0
5.858,-0.368,0
5.859,5.125,0
5.86,2.927,0
5.861,4.759,0
5.862,1.646,0
5.863,3.294,0
5.864,-1.284,0
5.865,-1.467,0
5.866,0.364,0
5.867,8.787,0
5.868,27.281,0
5.869,62.254,0
5.87,67.014,0
5.871,28.013,0
5.872,1.829,0
5.873,-21.975,0
5.874,-26.186,0
5.875,-30.031,0
5.876,-33.51,0
5.877,-30.398,0
5.878,-27.468,0
5.879,-30.031,0
5.88,-22.89,0
5.881,-20.693,0
5.882,-14.651,0
5.883,-12.82,0
5.884,-11.172,0
5.885,-6.777,0
5.886,-5.495,0
5.887,-2.016,0
5.888,-0.918,0
5.889,-1.833,0
5.89,4.575,0
5.891,-2.932,0
5.892,2.012,0
5.893,2.927,0
5.894,3.66,0
5.895,-0.185,0
5.896,3.111,0
5.897,4.942,0
5.898,3.294,0
5.899,0.913,0
5.9,4.026,0
5.901,2.927,0
5.902,-0.552,0
5.903,2.561,0
5.904,0.547,0
5.905,2.378,0
5.906,-0.185,0
5.907,0.547,0
5.908,1.28,0
5.909,3.111,0
5.91,2.012,0
5.911,3.477,0
5.912,3.66,0
5.913,2.012,0
5.914,0.547,0
5.915,-0.735,0
5.916,0.73,0
5.917,-0.918,0
5.918,2.378,0
5.919,9.336,0
5.92,24.534,0
5.921,57.676,0
5.922,52.915,0
5.923,13.914,0
5.924,-12.27,0
5.925,-26.552,0
5.926,-30.764,0
5.927,-34.609,0
5.928,-38.088,0
5.929,-34.975,0
5.93,-32.046,0
5.931,-29.482,0
5.932,-22.341,0
5.933,-20.144,0
5.934,-14.101,0
5.935,-12.27,0
5.936,-10.622,0
5.937,-9.157,0
5.938,-7.876,0
5.939,-4.397,0
5.94,-1.101,0
5.941,1.829,0
5.942,6.406,0
5.943,2.378,0
5.944,6.223,0
5.945,6.773,0
5.946,6.223,0
5.947,4.575,0
5.948,5.857,0
5.949,3.66,0
5.95,4.026,0
5.951,1.463,0
5.952,4.759,0
5.953,4.392,0
5.954,2.561,0
5.955,4.392,0
5.956,5.125,0
5.957,3.294,0
5.958,3.111,0
5.959,0.547,0
5.96,2.378,0
5.961,5.125,0
5.962,3.294,0
5.963,5.857,0
5.964,6.59,0
5.965,2.378,0
5.966,2.927,0
5.967,-1.467,0
5.968,1.28,0
5.969,6.773,0
5.97,18.308,0
5.971,43.211,0
5.972,46.69,0
5.973,49.802,0
5.974,58.592,0
5.975,45.225,0
5.976,47.605,0
5.977,18.858,0
5.978,-24.538,0
5.979,-41.75,0
5.98,-57.314,0
5.981,-62.075,0
5.982,-57.864,0
5.983,-54.018,0
5.984,-50.539,0
5.985,-41.018,0
5.986,-38.088,0
5.987,-30.215,0
5.988,-23.073,0
5.989,-20.876,0
5.99,-14.834,0
5.991,-9.341,0
5.992,-4.397,0
5.993,-2.932,0
5.994,1.096,0
5.995,4.575,0
5.996,17.027,0
5.997,35.337,0
5.998,42.478,0
5.999,22.52,0
6,9.153,0
6.001,2.012,0
6.002,-0.185,0
6.003,-6.228,0
6.004,-4.397,0
6.005,-6.045,0
6.006,-1.65,0
6.007,-0.368,0
6.008,0.73,0
6.009,4.026,0
6.01,1.096,0
6.011,3.843,0
6.012,4.575,0
6.013,3.843,0
6.014,3.294,0
6.015,0.181,0
6.016,2.927,0
6.017,0.547,0
6.018,-0.735,0
6.019,2.378,0
6.02,8.604,0
6.021,22.52,0
6.022,52.732,0
6.023,74.339,0
6.024,62.62,0
6.025,30.393,0
6.026,0.181,0
6.027,-19.411,0
6.028,-30.031,0
6.029,-33.144,0
6.03,-36.074,0
6.031,-33.51,0
6.032,-26.369,0
6.033,-32.961,0
6.034,-22.89,0
6.035,-21.059,0
6.036,-16.115,0
6.037,-11.721,0
6.038,-7.693,0
6.039,-6.594,0
6.04,-3.298,0
6.041,-4.214,0
6.042,-1.467,0
6.043,-0.735,0
6.044,1.463,0
6.045,-0.368,0
6.046,0.181,0
6.047,1.829,0
6.048,2.195,0
6.049,1.829,0
6.05,3.843,0
6.051,1.28,0
6.052,4.575,0
6.053,1.829,0
6.054,5.308,0
6.055,3.111,0
6.056,2.744,0
6.057,3.111,0
6.058,4.942,0
6.059,6.956,0
6.06,2.744,0
6.061,4.575,0
6.062,5.125,0
6.063,-1.467,0
6.064,-0.552,0
6.065,0.181,0
6.066,0.913,0
6.067,1.463,0
6.068,-0.368,0
6.069,-0.735,0
6.07,-0.185,0
6.071,7.322,0
6.072,24.351,0
6.073,41.197,0
6.074,52.183,0
6.075,66.282,0
6.076,38.816,0
6.077,11.35,0
6.078,-20.876,0
6.079,-33.694,0
6.08,-45.412,0
6.081,-48.891,0
6.082,-45.779,0
6.083,-48.708,0
6.084,-40.835,0
6.085,-33.694,0
6.086,-31.496,0
6.087,-25.454,0
6.088,-23.623,0
6.089,-15.383,0
6.09,-10.989,0
6.091,-9.707,0
6.092,-1.284,0
6.093,-0.185,0
6.094,2.744,0
6.095,1.829,0
6.096,5.857,0
6.097,8.054,0
6.098,4.759,0
6.099,4.209,0
6.1,4.759,0
6.101,6.04,0
6.102,5.674,0
6.103,7.688,0
6.104,6.59,0
6.105,3.294,0
6.106,7.139,0
6.107,4.759,0
6.108,6.956,0
6.109,7.322,0
6.11,5.491,0
6.111,2.195,0
6.112,0.181,0
6.113,2.012,0
6.114,3.843,0
6.115,-0.735,0
6.116,-0.185,0
6.117,1.646,0
6.118,1.096,0
6.119,3.477,0
6.12,-0.002,0
6.121,3.111,0
6.122,9.336,0
6.123,23.252,0
6.124,53.465,0
6.125,75.071,0
6.126,39.549,0
6.127,6.223,0
6.128,-15.383,0
6.129,-27.102,0
6.13,-30.581,0
6.131,-33.694,0
6.132,-30.764,0
6.133,-33.327,0
6.134,-26.186,0
6.135,-23.989,0
6.136,-26.003,0
6.137,-20.51,0
6.138,-15.566,0
6.139,-14.101,0
6.14,-12.82,0
6.141,-6.777,0
6.142,-3.481,0
6.143,-0.552,0
6.144,2.195,0
6.145,-1.833,0
6.146,-1.101,0
6.147,2.195,0
6.148,1.646,0
6.149,3.294,0
6.15,3.66,0
6.151,4.942,0
6.152,4.575,0
6.153,2.012,0
6.154,3.111,0
6.155,5.857,0
6.156,4.026,0
6.157,5.857,0
6.158,6.04,0
6.159,5.857,0
6.16,5.125,0
6.161,3.66,0
6.162,0.364,0
6.163,0.73,0
6.164,1.829,0
6.165,-0.002,0
6.166,-1.101,0
6.167,2.927,0
6.168,0.181,0
6.169,2.561,0
6.17,-0.552,0
6.171,-2.199,0
6.172,1.646,0
6.173,9.153,0
6.174,26.182,0
6.175,57.859,0
6.176,70.677,0
6.177,74.522,0
6.178,42.295,0
6.179,-5.312,0
6.18,-24.172,0
6.181,-29.848,0
6.182,-45.412,0
6.183,-40.652,0
6.184,-44.863,0
6.185,-33.144,0
6.186,-36.623,0
6.187,-27.102,0
6.188,-24.172,0
6.189,-21.609,0
6.19,-14.468,0
6.191,-12.27,0
6.192,-10.256,0
6.193,-4.763,0
6.194,-3.115,0
6.195,-1.65,0
6.196,-2.932,0
6.197,0.547,0
6.198,1.646,0
6.199,4.575,0
6.2,5.491,0
6.201,3.111,0
6.202,3.843,0
6.203,5.674,0
6.204,5.125,0
6.205,5.674,0
6.206,6.956,0
6.207,4.759,0
6.208,2.744,0
6.209,7.688,0
6.21,7.139,0
6.211,5.308,0
6.212,3.66,0
6.213,1.28,0
6.214,2.561,0
6.215,0.547,0
6.216,-0.552,0
6.217,0.547,0
6.218,2.561,0
6.219,3.843,0
6.22,0.913,0
6.221,-0.185,0
6.222,1.463,0
6.223,-1.833,0
6.224,4.392,0
6.225,18.308,0
6.226,48.521,0
6.227,52.732,0
6.228,56.577,0
6.229,38.816,0
6.23,9.519,0
6.231,-17.947,0
6.232,-35.708,0
6.233,-45.229,0
6.234,-48.159,0
6.235,-40.285,0
6.236,-37.905,0
6.237,-35.708,0
6.238,-33.694,0
6.239,-28.2,0
6.24,-23.257,0
6.241,-15.749,0
6.242,-3.481,0
6.243,21.421,0
6.244,17.942,0
6.245,1.829,0
6.246,-6.96,0
6.247,-9.524,0
6.248,-11.904,0
6.249,-9.707,0
6.25,-11.721,0
6.251,-9.89,0
6.252,-8.242,0
6.253,-6.777,0
6.254,-5.495,0
6.255,0.547,0
6.256,1.646,0
6.257,4.575,0
6.258,1.829,0
6.259,5.857,0
6.26,3.66,0
6.261,5.491,0
6.262,3.66,0
6.263,3.111,0
6.264,3.477,0
6.265,4.759,0
6.266,6.773,0
6.267,6.406,0
6.268,3.843,0
6.269,3.111,0
6.27,4.942,0
6.271,6.773,0
6.272,9.336,0
6.273,10.252,0
6.274,8.421,0
6.275,12.998,0
6.276,23.252,0
6.277,45.774,0
6.278,55.296,0
6.279,70.127,0
6.28,45.957,0
6.281,10.252,0
6.282,-23.073,0
6.283,-35.891,0
6.284,-39.736,0
6.285,-43.215,0
6.286,-40.102,0
6.287,-37.173,0
6.288,-34.609,0
6.289,-32.229,0
6.29,-25.637,0
6.291,-19.594,0
6.292,-17.763,0
6.293,-12.82,0
6.294,-11.355,0
6.295,-10.073,0
6.296,-6.594,0
6.297,-9.89,0
6.298,-6.96,0
6.299,-4.214,0
6.3,-4.946,0
6.301,-4.214,0
6.302,0.364,0
6.303,0.913,0
6.304,4.759,0
6.305,1.463,0
6.306,6.59,0
6.307,6.04,0
6.308,7.871,0
6.309,7.322,0
6.31,7.688,0
6.311,5.491,0
6.312,6.59,0
6.313,7.688,0
6.314,8.787,0
6.315,11.533,0
6.316,9.702,0
6.317,7.871,0
6.318,4.575,0
6.319,3.294,0
6.32,2.195,0
6.321,4.759,0
6.322,3.66,0
6.323,5.125,0
6.324,4.392,0
6.325,5.125,0
6.326,9.153,0
6.327,17.576,0
6.328,36.07,0
6.329,54.746,0
6.33,52.366,0
6.331,54.563,0
6.332,48.521,0
6.333,32.041,0
6.334,-1.101,0
6.335,-34.426,0
6.336,-47.243,0
6.337,-58.962,0
6.338,-55.483,0
6.339,-58.596,0
6.34,-49.807,0
6.341,-47.243,0
6.342,-40.102,0
6.343,-37.905,0
6.344,-31.863,0
6.345,-30.031,0
6.346,-25.088,0
6.347,-20.693,0
6.348,-13.918,0
6.349,-10.439,0
6.35,-7.143,0
6.351,-2.199,0
6.352,4.209,0
6.353,6.59,0
6.354,7.322,0
6.355,4.026,0
6.356,10.984,0
6.357,11.9,0
6.358,14.28,0
6.359,15.012,0
6.36,15.562,0
6.361,11.167,0
6.362,8.421,0
6.363,8.787,0
6.364,7.505,0
6.365,8.604,0
6.366,8.97,0
6.367,8.604,0
6.368,4.575,0
6.369,1.829,0
6.37,3.111,0
6.371,4.392,0
6.372,6.406,0
6.373,7.505,0
6.374,5.674,0
6.375,4.392,0
6.376,5.125,0
6.377,9.336,0
6.378,18.858,0
6.379,39.365,0
6.38,71.958,0
6.381,76.17,0
6.382,32.774,0
6.383,-7.51,0
6.384,-23.073,0
6.385,-37.356,0
6.386,-41.567,0
6.387,-45.412,0
6.388,-41.933,0
6.389,-38.821,0
6.39,-30.031,0
6.391,-27.468,0
6.392,-20.327,0
6.393,-18.13,0
6.394,-12.087,0
6.395,-6.594,0
6.396,-4.946,0
6.397,-0.552,0
6.398,-1.833,0
6.399,1.646,0
6.4,0.547,0
6.401,-0.368,0
6.402,-1.284,0
6.403,4.392,0
6.404,2.195,0
6.405,0.364,0
6.406,2.195,0
6.407,-0.552,0
6.408,2.744,0
6.409,4.026,0
6.41,7.871,0
6.411,6.59,0
6.412,9.702,0
6.413,11.717,0
6.414,16.66,0
6.415,19.956,0
6.416,23.069,0
6.417,28.196,0
6.418,28.745,0
6.419,34.422,0
6.42,32.224,0
6.421,24.717,0
6.422,17.759,0
6.423,11.35,0
6.424,12.083,0
6.425,8.238,0
6.426,-4.397,0
6.427,-14.651,0
6.428,-10.256,0
6.429,-6.228,0
6.43,12.266,0
6.431,25.633,0
6.432,-1.101,0
6.433,-33.327,0
6.434,-54.934,0
6.435,-58.779,0
6.436,-69.399,0
6.437,-85.512,0
6.438,-106.2,0
6.439,-130.37,0
6.44,-146.49,0
6.441,-155.28,0
6.442,-157.84,0
6.443,-160.22,0
6.444,-158.02,0
6.445,-147.95,0
6.446,-120.49,0
6.447,-108.77,0
6.448,-91.006,0
6.449,-61.709,0
6.45,-2.566,0
6.451,90.635,0
6.452,152.89,0
6.453,164.06,0
6.454,174.31,0
6.455,146.3,0
6.456,137.88,0
6.457,130.19,0
6.458,109.31,0
6.459,103.09,0
6.46,108.76,0
6.461,113.89,0
6.462,137.69,0
6.463,159.3,0
6.464,163.15,0
6.465,152.53,0
6.466,143,0
6.467,128.17,0
6.468,120.3,0
6.469,103.45,0
6.47,83.494,0
6.471,64.817,0
6.472,42.844,0
6.473,34.055,0
6.474,26.182,0
6.475,23.802,0
6.476,17.21,0
6.477,2.195,0
6.478,-7.876,0
6.479,-9.707,0
6.48,-11.355,0
6.481,5.125,0
6.482,33.872,0
6.483,14.28,0
6.484,-39.37,0
6.485,-62.441,0
6.486,-83.315,0
6.487,-89.541,0
6.488,-83.865,0
6.489,-68.301,0
6.49,-73.061,0
6.491,-85.879,0
6.492,-97.597,0
6.493,-94.118,0
6.494,-103.64,0
6.495,-100.71,0
6.496,-98.147,0
6.497,-91.006,0
6.498,-84.414,0
6.499,-78.371,0
6.5,-69.216,0
6.501,-64.272,0
6.502,-56.765,0
6.503,-44.497,0
6.504,-39.553,0
6.505,-35.158,0
6.506,-25.637,0
6.507,-22.158,0
6.508,-18.862,0
6.509,-15.932,0
6.51,-9.524,0
6.511,-8.791,0
6.512,-4.946,0
6.513,-1.65,0
6.514,2.744,0
6.515,2.195,0
6.516,2.561,0
6.517,5.674,0
6.518,6.04,0
6.519,6.406,0
6.52,6.773,0
6.521,4.759,0
6.522,7.871,0
6.523,8.97,0
6.524,10.069,0
6.525,14.097,0
6.526,12.815,0
6.527,12.449,0
6.528,13.181,0
6.529,10.435,0
6.53,16.111,0
6.531,28.562,0
6.532,52.366,0
6.533,74.888,0
6.534,83.677,0
6.535,59.507,0
6.536,10.801,0
6.537,-10.073,0
6.538,-28.933,0
6.539,-34.609,0
6.54,-39.736,0
6.541,-34.975,0
6.542,-30.764,0
6.543,-26.919,0
6.544,-23.44,0
6.545,-13.918,0
6.546,-16.848,0
6.547,-8.974,0
6.548,-11.355,0
6.549,-9.157,0
6.55,-3.115,0
6.551,-1.284,0
6.552,0.364,0
6.553,1.829,0
6.554,5.857,0
6.555,9.336,0
6.556,6.04,0
6.557,8.97,0
6.558,8.054,0
6.559,8.787,0
6.56,12.632,0
6.561,10.801,0
6.562,11.35,0
6.563,8.604,0
6.564,9.885,0
6.565,8.604,0
6.566,12.449,0
6.567,6.956,0
6.568,7.688,0
6.569,5.857,0
6.57,5.308,0
6.571,2.561,0
6.572,9.153,0
6.573,6.406,0
6.574,8.787,0
6.575,6.59,0
6.576,9.885,0
6.577,6.773,0
6.578,4.026,0
6.579,3.66,0
6.58,4.026,0
6.581,10.984,0
6.582,26.182,0
6.583,59.324,0
6.584,73.606,0
6.585,34.605,0
6.586,-2.016,0
6.587,-16.299,0
6.588,-29.116,0
6.589,-32.961,0
6.59,-29.482,0
6.591,-32.595,0
6.592,-29.665,0
6.593,-27.102,0
6.594,-24.721,0
6.595,-18.13,0
6.596,-20.144,0
6.597,-18.313,0
6.598,-13.369,0
6.599,-8.974,0
6.6,-4.946,0
6.601,-3.847,0
6.602,-0.552,0
6.603,-3.481,0
6.604,-0.735,0
6.605,1.646,0
6.606,-0.552,0
6.607,2.744,0
6.608,4.575,0
6.609,6.223,0
6.61,5.857,0
6.611,6.223,0
6.612,8.97,0
6.613,4.759,0
6.614,5.308,0
6.615,5.674,0
6.616,2.561,0
6.617,-2.016,0
6.618,2.378,0
6.619,4.026,0
6.62,2.744,0
6.621,-4.214,0
6.622,-1.284,0
6.623,1.463,0
6.624,3.843,0
6.625,1.646,0
6.626,2.195,0
6.627,0.364,0
6.628,-1.284,0
6.629,1.096,0
6.63,4.392,0
6.631,-0.735,0
6.632,9.519,0
6.633,23.069,0
6.634,43.211,0
6.635,56.577,0
6.636,54.197,0
6.637,65.183,0
6.638,55.113,0
6.639,27.647,0
6.64,-23.623,0
6.641,-44.497,0
6.642,-50.722,0
6.643,-56.399,0
6.644,-61.526,0
6.645,-47.243,0
6.646,-43.032,0
6.647,-39.187,0
6.648,-28.567,0
6.649,-31.679,0
6.65,-22.89,0
6.651,-15.017,0
6.652,-17.397,0
6.653,-10.805,0
6.654,-8.791,0
6.655,0.364,0
6.656,2.012,0
6.657,3.477,0
6.658,4.759,0
6.659,10.801,0
6.66,11.9,0
6.661,10.984,0
6.662,6.406,0
6.663,7.139,0
6.664,7.871,0
6.665,6.04,0
6.666,4.209,0
6.667,4.759,0
6.668,6.04,0
6.669,2.927,0
6.67,4.942,0
6.671,4.575,0
6.672,9.336,0
6.673,8.787,0
6.674,8.238,0
6.675,4.942,0
6.676,5.308,0
6.677,2.561,0
6.678,2.195,0
6.679,3.294,0
6.68,3.477,0
6.681,4.392,0
6.682,3.111,0
6.683,7.139,0
6.684,15.562,0
6.685,34.055,0
6.686,74.339,0
6.687,45.591,0
6.688,8.97,0
6.689,-14.834,0
6.69,-27.651,0
6.691,-31.496,0
6.692,-34.975,0
6.693,-31.863,0
6.694,-34.792,0
6.695,-32.229,0
6.696,-25.088,0
6.697,-27.285,0
6.698,-21.242,0
6.699,-12.087,0
6.7,-10.439,0
6.701,-6.045,0
6.702,-10.073,0
6.703,-6.594,0
6.704,-3.298,0
6.705,1.646,0
6.706,-1.101,0
6.707,4.575,0
6.708,6.773,0
6.709,8.604,0
6.71,5.491,0
6.711,6.04,0
6.712,8.421,0
6.713,3.294,0
6.714,1.463,0
6.715,3.294,0
6.716,-0.552,0
6.717,1.829,0
6.718,2.195,0
6.719,1.096,0
6.72,1.463,0
6.721,4.026,0
6.722,4.209,0
6.723,1.646,0
6.724,7.139,0
6.725,3.294,0
6.726,7.871,0
6.727,6.04,0
6.728,-1.284,0
6.729,3.66,0
6.73,0.913,0
6.731,0.181,0
6.732,-0.735,0
6.733,1.463,0
6.734,11.717,0
6.735,34.239,0
6.736,18.125,0
6.737,15.196,0
6.738,44.676,0
6.739,64.268,0
6.74,60.789,0
6.741,25.083,0
6.742,-17.947,0
6.743,-35.158,0
6.744,-40.285,0
6.745,-45.046,0
6.746,-49.258,0
6.747,-45.412,0
6.748,-41.933,0
6.749,-38.821,0
6.75,-30.031,0
6.751,-27.468,0
6.752,-20.327,0
6.753,-13.735,0
6.754,-15.749,0
6.755,-6.594,0
6.756,-4.946,0
6.757,-0.552,0
6.758,3.477,0
6.759,2.378,0
6.76,5.674,0
6.761,8.604,0
6.762,5.857,0
6.763,6.59,0
6.764,11.9,0
6.765,10.069,0
6.766,6.956,0
6.767,6.406,0
6.768,7.688,0
6.769,4.575,0
6.77,4.209,0
6.771,6.04,0
6.772,5.674,0
6.773,7.139,0
6.774,7.871,0
6.775,6.04,0
6.776,4.575,0
6.777,6.59,0
6.778,2.561,0
6.779,-3.664,0
6.78,-2.932,0
6.781,-5.129,0
6.782,-0.552,0
6.783,-0.002,0
6.784,1.829,0
6.785,3.477,0
6.786,10.984,0
6.787,28.013,0
6.788,54.746,0
6.789,51.267,0
6.79,41.746,0
6.791,15.012,0
6.792,-17.214,0
6.793,-38.821,0
6.794,-42.666,0
6.795,-46.145,0
6.796,-43.032,0
6.797,-40.102,0
6.798,-37.539,0
6.799,-30.398,0
6.8,-28.2,0
6.801,-22.158,0
6.802,-20.327,0
6.803,-15.383,0
6.804,-10.989,0
6.805,-6.96,0
6.806,-3.481,0
6.807,-0.185,0
6.808,2.744,0
6.809,5.491,0
6.81,6.223,0
6.811,2.378,0
6.812,4.209,0
6.813,7.322,0
6.814,7.871,0
6.815,6.59,0
6.816,5.308,0
6.817,5.674,0
6.818,6.04,0
6.819,3.477,0
6.82,2.012,0
6.821,5.674,0
6.822,3.294,0
6.823,6.406,0
6.824,6.773,0
6.825,3.294,0
6.826,5.491,0
6.827,2.744,0
6.828,0.913,0
6.829,-1.65,0
6.83,2.927,0
6.831,1.096,0
6.832,-0.735,0
6.833,-2.383,0
6.834,1.463,0
6.835,-1.833,0
6.836,5.125,0
6.837,20.323,0
6.838,53.465,0
6.839,67.747,0
6.84,28.745,0
6.841,2.561,0
6.842,-21.242,0
6.843,-25.454,0
6.844,-29.299,0
6.845,-32.778,0
6.846,-29.665,0
6.847,-32.595,0
6.848,-24.721,0
6.849,-22.341,0
6.85,-20.144,0
6.851,-18.13,0
6.852,-19.961,0
6.853,-11.721,0
6.854,-10.256,0
6.855,-6.228,0
6.856,-5.129,0
6.857,-1.833,0
6.858,1.096,0
6.859,2.012,0
6.86,1.28,0
6.861,6.59,0
6.862,0.364,0
6.863,2.744,0
6.864,3.477,0
6.865,1.646,0
6.866,2.195,0
6.867,3.843,0
6.868,3.477,0
6.869,3.843,0
6.87,4.942,0
6.871,6.04,0
6.872,3.477,0
6.873,6.773,0
6.874,7.139,0
6.875,6.773,0
6.876,1.096,0
6.877,3.477,0
6.878,2.744,0
6.879,3.294,0
6.88,0.181,0
6.881,1.829,0
6.882,0.547,0
6.883,-1.65,0
6.884,-2.749,0
6.885,1.463,0
6.886,-1.101,0
6.887,4.392,0
6.888,15.928,0
6.889,40.83,0
6.89,58.592,0
6.891,68.113,0
6.892,47.422,0
6.893,7.139,0
6.894,-21.609,0
6.895,-37.173,0
6.896,-41.933,0
6.897,-46.145,0
6.898,-42.3,0
6.899,-38.821,0
6.9,-35.708,0
6.901,-32.778,0
6.902,-30.215,0
6.903,-23.073,0
6.904,-20.876,0
6.905,-10.805,0
6.906,-12.636,0
6.907,-4.397,0
6.908,-2.932,0
6.909,3.843,0
6.91,2.744,0
6.911,6.04,0
6.912,5.125,0
6.913,0.547,0
6.914,-0.185,0
6.915,-2.383,0
6.916,2.195,0
6.917,5.308,0
6.918,4.759,0
6.919,1.463,0
6.92,4.575,0
6.921,6.59,0
6.922,8.421,0
6.923,10.984,0
6.924,6.406,0
6.925,8.238,0
6.926,8.787,0
6.927,8.238,0
6.928,5.857,0
6.929,5.491,0
6.93,5.125,0
6.931,3.294,0
6.932,1.463,0
6.933,-3.115,0
6.934,-1.284,0
6.935,-1.833,0
6.936,1.463,0
6.937,2.012,0
6.938,9.519,0
6.939,26.548,0
6.94,43.394,0
6.941,63.352,0
6.942,71.226,0
6.943,44.492,0
6.944,5.125,0
6.945,-21.059,0
6.946,-35.342,0
6.947,-39.553,0
6.948,-43.398,0
6.949,-39.919,0
6.95,-36.806,0
6.951,-33.877,0
6.952,-31.313,0
6.953,-24.172,0
6.954,-21.975,0
6.955,-15.932,0
6.956,-10.439,0
6.957,-8.791,0
6.958,-7.326,0
6.959,-3.298,0
6.96,0.181,0
6.961,-0.918,0
6.962,-1.833,0
6.963,0.913,0
6.964,1.646,0
6.965,0.913,0
6.966,-0.918,0
6.967,4.759,0
6.968,0.913,0
6.969,2.744,0
6.97,3.294,0
6.971,8.421,0
6.972,10.252,0
6.973,8.421,0
6.974,7.871,0
6.975,4.575,0
6.976,5.857,0
6.977,6.956,0
6.978,4.392,0
6.979,9.885,0
6.98,21.421,0
6.981,32.957,0
6.982,10.435,0
6.983,-5.678,0
6.984,-8.608,0
6.985,-11.172,0
6.986,-13.552,0
6.987,-10.989,0
6.988,-8.791,0
6.989,-2.749,0
6.99,17.393,0
6.991,36.07,0
6.992,48.155,0
6.993,68.113,0
6.994,43.943,0
6.995,8.238,0
6.996,-25.088,0
6.997,-37.905,0
6.998,-41.75,0
6.999,-45.229,0
7,-42.116,0
7.001,-39.187,0
7.002,-31.313,0
7.003,-33.694,0
7.004,-27.102,0
7.005,-21.059,0
7.006,-15.566,0
7.007,-10.622,0
7.008,-9.157,0
7.009,-2.383,0
7.01,-1.284,0
7.011,-0.185,0
7.012,2.744,0
7.013,3.66,0
7.014,2.927,0
7.015,5.125,0
7.016,3.294,0
7.017,6.406,0
7.018,4.759,0
7.019,4.392,0
7.02,4.759,0
7.021,6.773,0
7.022,9.336,0
7.023,8.238,0
7.024,8.054,0
7.025,6.773,0
7.026,6.04,0
7.027,7.505,0
7.028,8.054,0
7.029,5.125,0
7.03,4.026,0
7.031,7.505,0
7.032,3.294,0
7.033,4.942,0
7.034,2.561,0
7.035,2.195,0
7.036,-0.552,0
7.037,1.28,0
7.038,2.195,0
7.039,0.364,0
7.04,4.942,0
7.041,15.196,0
7.042,34.788,0
7.043,58.958,0
7.044,68.479,0
7.045,47.788,0
7.046,7.505,0
7.047,-21.242,0
7.048,-36.806,0
7.049,-41.567,0
7.05,-45.779,0
7.051,-41.933,0
7.052,-38.454,0
7.053,-35.342,0
7.054,-26.552,0
7.055,-23.989,0
7.056,-21.609,0
7.057,-15.017,0
7.058,-13.003,0
7.059,-11.172,0
7.06,-6.228,0
7.061,-7.693,0
7.062,-11.721,0
7.063,-10.622,0
7.064,-4.946,0
7.065,-0.002,0
7.066,-0.918,0
7.067,6.59,0
7.068,5.674,0
7.069,2.927,0
7.07,6.956,0
7.071,9.153,0
7.072,8.604,0
7.073,5.491,0
7.074,7.139,0
7.075,7.505,0
7.076,9.702,0
7.077,8.604,0
7.078,8.238,0
7.079,7.139,0
7.08,8.604,0
7.081,7.322,0
7.082,4.392,0
7.083,6.223,0
7.084,6.59,0
7.085,5.125,0
7.086,3.843,0
7.087,5.674,0
7.088,3.477,0
7.089,3.66,0
7.09,4.942,0
7.091,8.97,0
7.092,17.393,0
7.093,35.886,0
7.094,60.056,0
7.095,50.535,0
7.096,23.802,0
7.097,-15.566,0
7.098,-31.13,0
7.099,-45.412,0
7.1,-41.201,0
7.101,-45.046,0
7.102,-41.567,0
7.103,-32.046,0
7.104,-29.116,0
7.105,-26.552,0
7.106,-24.172,0
7.107,-17.58,0
7.108,-15.566,0
7.109,-13.735,0
7.11,-12.087,0
7.111,-10.622,0
7.112,-9.341,0
7.113,-5.862,0
7.114,-0.185,0
7.115,2.744,0
7.116,3.66,0
7.117,2.927,0
7.118,0.73,0
7.119,-2.566,0
7.12,-2.016,0
7.121,1.829,0
7.122,5.125,0
7.123,6.406,0
7.124,9.153,0
7.125,8.054,0
7.126,9.885,0
7.127,5.308,0
7.128,3.477,0
7.129,2.927,0
7.13,3.477,0
7.131,3.111,0
7.132,2.744,0
7.133,3.111,0
7.134,2.012,0
7.135,1.646,0
7.136,-0.368,0
7.137,-0.185,0
7.138,2.744,0
7.139,1.646,0
7.14,2.927,0
7.141,4.026,0
7.142,8.604,0
7.143,18.858,0
7.144,41.38,0
7.145,57.493,0
7.146,72.324,0
7.147,53.648,0
7.148,17.21,0
7.149,-19.411,0
7.15,-43.215,0
7.151,-47.427,0
7.152,-51.272,0
7.153,-47.793,0
7.154,-44.68,0
7.155,-41.75,0
7.156,-28.384,0
7.157,-30.764,0
7.158,-24.172,0
7.159,-18.13,0
7.16,-16.299,0
7.161,-14.651,0
7.162,-7.143,0
7.163,-8.425,0
7.164,-2.383,0
7.165,0.913,0
7.166,-0.002,0
7.167,0.913,0
7.168,1.646,0
7.169,0.913,0
7.17,5.491,0
7.171,6.04,0
7.172,6.59,0
7.173,11.167,0
7.174,12.998,0
7.175,15.745,0
7.176,19.041,0
7.177,19.407,0
7.178,21.421,0
7.179,25.633,0
7.18,28.379,0
7.181,34.971,0
7.182,28.562,0
7.183,26.182,0
7.184,22.337,0
7.185,17.759,0
7.186,14.646,0
7.187,11.9,0
7.188,8.604,0
7.189,1.646,0
7.19,-13.552,0
7.191,-26.369,0
7.192,-32.961,0
7.193,-26.919,0
7.194,-14.101,0
7.195,10.801,0
7.196,43.028,0
7.197,21.421,0
7.198,-29.848,0
7.199,-64.822,0
7.2,-83.681,0
7.201,-112.43,0
7.202,-138.61,0
7.203,-152.9,0
7.204,-157.11,0
7.205,-160.95,0
7.206,-171.57,0
7.207,-174.69,0
7.208,-159.85,0
7.209,-135.68,0
7.21,-113.16,0
7.211,-104.37,0
7.212,-64.089,0
7.213,22.52,0
7.214,184.38,0
7.215,206.36,0
7.216,186.4,0
7.217,131.83,0
7.218,115.35,0
7.219,70.31,0
7.22,83.86,0
7.221,71.409,0
7.222,82.578,0
7.223,92.832,0
7.224,120.85,0
7.225,163.15,0
7.226,186.22,0
7.227,179.26,0
7.228,147.58,0
7.229,118.83,0
7.23,113.71,0
7.231,99.424,0
7.232,69.212,0
7.233,49.619,0
7.234,31.858,0
7.235,22.337,0
7.236,25.266,0
7.237,22.703,0
7.238,15.562,0
7.239,4.575,0
7.24,-5.495,0
7.241,-7.326,0
7.242,-19.045,0
7.243,-20.693,0
7.244,-7.143,0
7.245,-12.636,0
7.246,12.266,0
7.247,22.886,0
7.248,-6.411,0
7.249,-49.807,0
7.25,-67.019,0
7.251,-82.583,0
7.252,-96.865,0
7.253,-101.08,0
7.254,-97.231,0
7.255,-93.752,0
7.256,-96.865,0
7.257,-93.935,0
7.258,-86.062,0
7.259,-83.681,0
7.26,-77.09,0
7.261,-71.047,0
7.262,-61.892,0
7.263,-53.652,0
7.264,-49.258,0
7.265,-45.229,0
7.266,-36.806,0
7.267,-31.13,0
7.268,-26.186,0
7.269,-23.44,0
7.27,-17.763,0
7.271,-15.566,0
7.272,-9.341,0
7.273,-3.664,0
7.274,-4.397,0
7.275,-1.101,0
7.276,2.012,0
7.277,3.66,0
7.278,0.364,0
7.279,6.406,0
7.28,8.787,0
7.281,4.942,0
7.282,5.491,0
7.283,6.04,0
7.284,7.688,0
7.285,6.406,0
7.286,7.688,0
7.287,8.787,0
7.288,12.998,0
7.289,9.153,0
7.29,7.871,0
7.291,9.153,0
7.292,7.139,0
7.293,11.717,0
7.294,10.618,0
7.295,15.379,0
7.296,24.9,0
7.297,45.408,0
7.298,72.141,0
7.299,82.761,0
7.3,47.056,0
7.301,4.026,0
7.302,-13.186,0
7.303,-28.75,0
7.304,-33.51,0
7.305,-37.722,0
7.306,-33.877,0
7.307,-30.398,0
7.308,-27.285,0
7.309,-18.496,0
7.31,-21.059,0
7.311,-13.918,0
7.312,-11.721,0
7.313,-9.707,0
7.314,-7.876,0
7.315,-2.932,0
7.316,-1.467,0
7.317,-0.185,0
7.318,3.294,0
7.319,4.392,0
7.32,5.308,0
7.321,4.392,0
7.322,8.421,0
7.323,10.618,0
7.324,10.069,0
7.325,14.463,0
7.326,13.914,0
7.327,14.28,0
7.328,8.238,0
7.329,7.505,0
7.33,6.773,0
7.331,4.942,0
7.332,3.111,0
7.333,4.759,0
7.334,1.463,0
7.335,1.829,0
7.336,1.463,0
7.337,1.829,0
7.338,5.125,0
7.339,3.111,0
7.34,7.322,0
7.341,7.871,0
7.342,3.294,0
7.343,2.744,0
7.344,2.927,0
7.345,5.674,0
7.346,13.181,0
7.347,30.21,0
7.348,47.056,0
7.349,58.042,0
7.35,56.028,0
7.351,43.211,0
7.352,18.308,0
7.353,-21.059,0
7.354,-36.623,0
7.355,-41.384,0
7.356,-45.595,0
7.357,-41.75,0
7.358,-38.271,0
7.359,-35.158,0
7.36,-32.229,0
7.361,-29.665,0
7.362,-22.524,0
7.363,-20.327,0
7.364,-14.284,0
7.365,-12.453,0
7.366,-10.805,0
7.367,-9.341,0
7.368,-5.312,0
7.369,-4.214,0
7.37,1.463,0
7.371,2.378,0
7.372,8.787,0
7.373,9.519,0
7.374,8.787,0
7.375,6.956,0
7.376,11.35,0
7.377,8.604,0
7.378,8.97,0
7.379,4.759,0
7.38,5.308,0
7.381,2.012,0
7.382,4.209,0
7.383,8.054,0
7.384,4.759,0
7.385,3.477,0
7.386,4.575,0
7.387,4.209,0
7.388,5.308,0
7.389,6.773,0
7.39,3.66,0
7.391,4.026,0
7.392,4.392,0
7.393,8.421,0
7.394,0.913,0
7.395,-0.002,0
7.396,3.294,0
7.397,4.209,0
7.398,18.125,0
7.399,44.309,0
7.4,69.212,0
7.401,66.099,0
7.402,27.464,0
7.403,-9.157,0
7.404,-32.961,0
7.405,-37.173,0
7.406,-41.018,0
7.407,-37.539,0
7.408,-34.426,0
7.409,-31.496,0
7.41,-28.933,0
7.411,-31.313,0
7.412,-29.116,0
7.413,-23.073,0
7.414,-17.58,0
7.415,-12.636,0
7.416,-8.242,0
7.417,-6.96,0
7.418,-5.862,0
7.419,-2.566,0
7.42,-1.65,0
7.421,1.096,0
7.422,3.477,0
7.423,2.744,0
7.424,4.575,0
7.425,6.406,0
7.426,6.956,0
7.427,3.66,0
7.428,2.378,0
7.429,5.125,0
7.43,4.026,0
7.431,3.66,0
7.432,5.125,0
7.433,4.392,0
7.434,3.111,0
7.435,2.927,0
7.436,6.223,0
7.437,7.505,0
7.438,7.871,0
7.439,5.308,0
7.44,2.744,0
7.441,7.322,0
7.442,5.491,0
7.443,6.04,0
7.444,-0.185,0
7.445,0.547,0
7.446,-0.002,0
7.447,2.195,0
7.448,11.167,0
7.449,24.717,0
7.45,52.183,0
7.451,79.649,0
7.452,61.887,0
7.453,39.365,0
7.454,48.155,0
7.455,50.718,0
7.456,14.28,0
7.457,-22.341,0
7.458,-46.145,0
7.459,-58.962,0
7.46,-62.807,0
7.461,-66.286,0
7.462,-56.765,0
7.463,-53.835,0
7.464,-45.962,0
7.465,-43.581,0
7.466,-32.595,0
7.467,-26.552,0
7.468,-17.397,0
7.469,-15.749,0
7.47,-14.284,0
7.471,3.477,0
7.472,25.449,0
7.473,28.379,0
7.474,9.702,0
7.475,2.561,0
7.476,0.364,0
7.477,-1.65,0
7.478,-3.481,0
7.479,-5.129,0
7.48,-6.594,0
7.481,-2.566,0
7.482,0.913,0
7.483,-0.185,0
7.484,0.73,0
7.485,-0.185,0
7.486,7.322,0
7.487,10.252,0
7.488,7.505,0
7.489,9.885,0
7.49,10.618,0
7.491,8.787,0
7.492,6.956,0
7.493,12.083,0
7.494,8.787,0
7.495,8.238,0
7.496,7.688,0
7.497,6.59,0
7.498,6.223,0
7.499,13.181,0
7.5,28.379,0
7.501,52.732,0
7.502,75.254,0
7.503,72.324,0
7.504,32.041,0
7.505,-8.242,0
7.506,-23.806,0
7.507,-28.567,0
7.508,-32.778,0
7.509,-36.623,0
7.51,-33.144,0
7.511,-36.257,0
7.512,-33.327,0
7.513,-30.764,0
7.514,-23.623,0
7.515,-17.031,0
7.516,-15.017,0
7.517,-13.186,0
7.518,-8.242,0
7.519,-6.777,0
7.52,-0.002,0
7.521,-3.481,0
7.522,2.195,0
7.523,-0.735,0
7.524,3.843,0
7.525,6.223,0
7.526,10.069,0
7.527,6.773,0
7.528,4.942,0
7.529,7.688,0
7.53,4.392,0
7.531,4.759,0
7.532,5.125,0
7.533,2.561,0
7.534,2.195,0
7.535,3.66,0
7.536,2.927,0
7.537,3.111,0
7.538,3.66,0
7.539,3.111,0
7.54,5.308,0
7.541,4.575,0
7.542,3.843,0
7.543,3.66,0
7.544,2.195,0
7.545,-0.002,0
7.546,-0.735,0
7.547,-2.016,0
7.548,-2.199,0
7.549,-2.749,0
7.55,0.547,0
7.551,7.505,0
7.552,22.703,0
7.553,55.845,0
7.554,70.127,0
7.555,57.31,0
7.556,13.914,0
7.557,-14.834,0
7.558,-30.398,0
7.559,-44.68,0
7.56,-48.891,0
7.561,-45.046,0
7.562,-41.567,0
7.563,-38.454,0
7.564,-35.525,0
7.565,-32.961,0
7.566,-30.581,0
7.567,-23.989,0
7.568,-17.947,0
7.569,-19.778,0
7.57,-11.538,0
7.571,-7.143,0
7.572,-3.115,0
7.573,0.364,0
7.574,3.66,0
7.575,2.744,0
7.576,7.322,0
7.577,3.294,0
7.578,7.139,0
7.579,5.308,0
7.58,4.759,0
7.581,7.505,0
7.582,9.885,0
7.583,7.688,0
7.584,8.054,0
7.585,6.956,0
7.586,5.125,0
7.587,1.829,0
7.588,4.942,0
7.589,6.04,0
7.59,8.604,0
7.591,6.773,0
7.592,10.069,0
7.593,5.857,0
7.594,3.111,0
7.595,0.73,0
7.596,3.843,0
7.597,5.857,0
7.598,1.646,0
7.599,-0.735,0
7.6,-3.481,0
7.601,4.026,0
7.602,7.322,0
7.603,22.52,0
7.604,55.662,0
7.605,50.901,0
7.606,11.9,0
7.607,-14.284,0
7.608,-19.045,0
7.609,-31.863,0
7.61,-35.708,0
7.611,-32.229,0
7.612,-35.342,0
7.613,-32.412,0
7.614,-29.848,0
7.615,-22.707,0
7.616,-20.51,0
7.617,-18.496,0
7.618,-13.003,0
7.619,-11.355,0
7.62,-6.96,0
7.621,-8.242,0
7.622,-2.199,0
7.623,1.096,0
7.624,2.012,0
7.625,2.927,0
7.626,3.66,0
7.627,1.463,0
7.628,3.294,0
7.629,6.406,0
7.63,1.28,0
7.631,1.829,0
7.632,1.28,0
7.633,5.125,0
7.634,3.843,0
7.635,4.209,0
7.636,3.843,0
7.637,4.209,0
7.638,5.308,0
7.639,3.843,0
7.64,5.674,0
7.641,7.505,0
7.642,7.322,0
7.643,4.942,0
7.644,1.646,0
7.645,1.28,0
7.646,5.125,0
7.647,0.547,0
7.648,-0.002,0
7.649,1.646,0
7.65,3.66,0
7.651,0.364,0
7.652,7.322,0
7.653,22.52,0
7.654,46.873,0
7.655,69.395,0
7.656,66.465,0
7.657,31.492,0
7.658,-1.833,0
7.659,-32.046,0
7.66,-35.891,0
7.661,-46.511,0
7.662,-43.398,0
7.663,-40.469,0
7.664,-37.905,0
7.665,-35.525,0
7.666,-33.327,0
7.667,-27.285,0
7.668,-25.454,0
7.669,-20.51,0
7.67,-16.115,0
7.671,-9.341,0
7.672,-3.298,0
7.673,-0.002,0
7.674,0.913,0
7.675,3.66,0
7.676,1.28,0
7.677,3.477,0
7.678,8.054,0
7.679,4.942,0
7.68,3.294,0
7.681,-0.002,0
7.682,6.956,0
7.683,6.04,0
7.684,5.125,0
7.685,5.857,0
7.686,8.054,0
7.687,8.604,0
7.688,8.054,0
7.689,8.604,0
7.69,7.322,0
7.691,10.435,0
7.692,10.069,0
7.693,5.857,0
7.694,0.73,0
7.695,1.28,0
7.696,3.111,0
7.697,0.364,0
7.698,1.646,0
7.699,1.28,0
7.7,-1.467,0
7.701,-0.002,0
7.702,-2.566,0
7.703,2.927,0
7.704,14.463,0
7.705,39.365,0
7.706,78.733,0
7.707,52.549,0
7.708,19.224,0
7.709,-10.989,0
7.71,-30.581,0
7.711,-34.06,0
7.712,-37.173,0
7.713,-34.243,0
7.714,-31.679,0
7.715,-34.06,0
7.716,-27.468,0
7.717,-5.312,0
7.718,9.519,0
7.719,1.646,0
7.72,-15.2,0
7.721,-13.003,0
7.722,-15.017,0
7.723,-16.848,0
7.724,-11.904,0
7.725,-10.439,0
7.726,-9.157,0
7.727,-8.059,0
7.728,-9.157,0
7.729,-8.242,0
7.73,-3.664,0
7.731,-4.397,0
7.732,0.913,0
7.733,2.744,0
7.734,3.294,0
7.735,2.744,0
7.736,1.463,0
7.737,4.575,0
7.738,3.477,0
7.739,6.04,0
7.74,7.139,0
7.741,9.153,0
7.742,9.336,0
7.743,8.054,0
7.744,9.519,0
7.745,6.59,0
7.746,8.421,0
7.747,5.857,0
7.748,3.843,0
7.749,4.575,0
7.75,6.406,0
7.751,4.209,0
7.752,5.125,0
7.753,5.308,0
7.754,8.787,0
7.755,15.745,0
7.756,30.943,0
7.757,64.085,0
7.758,59.324,0
7.759,46.507,0
7.76,10.984,0
7.761,-22.341,0
7.762,-35.158,0
7.763,-46.877,0
7.764,-43.398,0
7.765,-46.511,0
7.766,-43.581,0
7.767,-41.018,0
7.768,-38.637,0
7.769,-27.651,0
7.77,-25.637,0
7.771,-20.144,0
7.772,-15.2,0
7.773,-10.805,0
7.774,-4.031,0
7.775,-5.129,0
7.776,-4.031,0
7.777,-4.946,0
7.778,-5.862,0
7.779,-5.129,0
7.78,-4.397,0
7.781,-3.847,0
7.782,0.547,0
7.783,1.096,0
7.784,3.477,0
7.785,2.195,0
7.786,3.294,0
7.787,5.125,0
7.788,7.688,0
7.789,8.421,0
7.79,9.702,0
7.791,9.519,0
7.792,6.04,0
7.793,9.336,0
7.794,8.054,0
7.795,9.153,0
7.796,3.477,0
7.797,2.744,0
7.798,0.547,0
7.799,-1.284,0
7.8,-1.833,0
7.801,-0.185,0
7.802,-0.552,0
7.803,0.73,0
7.804,1.096,0
7.805,7.322,0
7.806,21.238,0
7.807,51.45,0
7.808,64.268,0
7.809,75.987,0
7.81,43.76,0
7.811,4.759,0
7.812,-21.426,0
7.813,-35.708,0
7.814,-39.919,0
7.815,-43.764,0
7.816,-40.285,0
7.817,-37.173,0
7.818,-34.243,0
7.819,-31.679,0
7.82,-29.299,0
7.821,-22.707,0
7.822,-12.636,0
7.823,-7.143,0
7.824,-8.791,0
7.825,-1.284,0
7.826,-2.566,0
7.827,0.913,0
7.828,4.209,0
7.829,5.125,0
7.83,6.04,0
7.831,5.308,0
7.832,3.111,0
7.833,-0.185,0
7.834,2.927,0
7.835,2.378,0
7.836,2.744,0
7.837,0.547,0
7.838,3.294,0
7.839,5.857,0
7.84,4.759,0
7.841,8.054,0
7.842,8.421,0
7.843,7.322,0
7.844,4.759,0
7.845,6.59,0
7.846,5.125,0
7.847,6.956,0
7.848,5.125,0
7.849,1.646,0
7.85,0.364,0
7.851,-3.847,0
7.852,-3.298,0
7.853,-0.002,0
7.854,2.195,0
7.855,4.392,0
7.856,10.618,0
7.857,24.534,0
7.858,38.633,0
7.859,62.437,0
7.86,71.958,0
7.861,45.225,0
7.862,-1.284,0
7.863,-20.144,0
7.864,-37.356,0
7.865,-42.483,0
7.866,-47.243,0
7.867,-43.032,0
7.868,-46.877,0
7.869,-43.398,0
7.87,-33.877,0
7.871,-25.088,0
7.872,-22.524,0
7.873,-15.383,0
7.874,-8.791,0
7.875,-6.777,0
7.876,-1.284,0
7.877,0.364,0
7.878,-1.101,0
7.879,5.674,0
7.88,4.575,0
7.881,5.674,0
7.882,4.759,0
7.883,7.505,0
7.884,6.773,0
7.885,2.927,0
7.886,4.759,0
7.887,9.153,0
7.888,7.505,0
7.889,7.139,0
7.89,8.421,0
7.891,4.575,0
7.892,3.294,0
7.893,2.927,0
7.894,0.913,0
7.895,0.547,0
7.896,-0.552,0
7.897,-2.566,0
7.898,-4.397,0
7.899,-0.368,0
7.9,-0.918,0
7.901,-1.284,0
7.902,-1.65,0
7.903,-1.284,0
7.904,-0.918,0
7.905,-0.735,0
7.906,-2.566,0
7.907,2.012,0
7.908,12.266,0
7.909,34.788,0
7.91,57.31,0
7.911,42.478,0
7.912,12.998,0
7.913,-14.468,0
7.914,-32.229,0
7.915,-29.116,0
7.916,-32.046,0
7.917,-24.172,0
7.918,-21.792,0
7.919,-15.2,0
7.92,-5.129,0
7.921,7.688,0
7.922,6.04,0
7.923,7.505,0
7.924,8.787,0
7.925,12.266,0
7.926,11.167,0
7.927,10.252,0
7.928,9.336,0
7.929,-3.115,0
7.93,-19.594,0
7.931,-26.186,0
7.932,-32.229,0
7.933,-34.06,0
7.934,-42.3,0
7.935,-43.764,0
7.936,-34.243,0
7.937,-20.693,0
7.938,-18.862,0
7.939,-27.102,0
7.94,-40.652,0
7.941,-53.469,0
7.942,-71.78,0
7.943,-83.865,0
7.944,-99.245,0
7.945,-113.34,0
7.946,-122.5,0
7.947,-127.44,0
7.948,-134.95,0
7.949,-125.43,0
7.95,-124.33,0
7.951,-107.3,0
7.952,-70.864,0
7.953,7.871,0
7.954,86.79,0
7.955,138.06,0
7.956,158.2,0
7.957,148.86,0
7.958,123.59,0
7.959,100.52,0
7.96,79.649,0
7.961,85.874,0
7.962,80.198,0
7.963,106.38,0
7.964,139.71,0
7.965,143.92,0
7.966,147.76,0
7.967,165.53,0
7.968,181.64,0
7.969,184.57,0
7.97,171.2,0
7.971,144.47,0
7.972,90.818,0
7.973,52.366,0
7.974,17.393,0
7.975,-1.467,0
7.976,-7.143,0
7.977,-12.27,0
7.978,-7.51,0
7.979,-11.721,0
7.98,-15.566,0
7.981,-19.045,0
7.982,-28.567,0
7.983,-31.496,0
7.984,-34.06,0
7.985,-26.919,0
7.986,-37.905,0
7.987,-43.948,0
7.988,-45.779,0
7.989,-47.427,0
7.99,-45.962,0
7.991,-44.68,0
7.992,-45.779,0
7.993,-53.652,0
7.994,-54.568,0
7.995,-55.483,0
7.996,-57.864,0
7.997,-67.934,0
7.998,-69.216,0
7.999,-65.737,0
8,-60.061,0
8.001,-59.145,0
8.002,-54.568,0
8.003,-48.891,0
8.004,-41.933,0
8.005,-37.356,0
8.006,-36.623,0
8.007,-30.031,0
8.008,-26.186,0
8.009,-17.214,0
8.01,1.28,0
8.011,9.153,0
8.012,40.83,0
8.013,53.648,0
8.014,26.182,0
8.015,-6.045,0
8.016,-36.257,0
8.017,-47.976,0
8.018,-51.455,0
8.019,-48.342,0
8.02,-45.412,0
8.021,-37.539,0
8.022,-30.398,0
8.023,-23.806,0
8.024,-17.763,0
8.025,-8.608,0
8.026,-6.96,0
8.027,-5.495,0
8.028,-4.214,0
8.029,-0.735,0
8.03,0.364,0
8.031,5.308,0
8.032,6.223,0
8.033,8.604,0
8.034,10.801,0
8.035,11.35,0
8.036,8.238,0
8.037,12.083,0
8.038,14.463,0
8.039,17.576,0
8.04,18.675,0
8.041,14.463,0
8.042,16.111,0
8.043,19.407,0
8.044,14.28,0
8.045,14.829,0
8.046,16.66,0
8.047,13.914,0
8.048,14.28,0
8.049,8.238,0
8.05,8.97,0
8.051,6.773,0
8.052,7.322,0
8.053,7.871,0
8.054,8.421,0
8.055,8.787,0
8.056,4.575,0
8.057,8.421,0
8.058,9.519,0
8.059,6.223,0
8.06,13.181,0
8.061,28.379,0
8.062,52.732,0
8.063,62.254,0
8.064,47.422,0
8.065,17.942,0
8.066,-9.524,0
8.067,-27.285,0
8.068,-36.806,0
8.069,-39.736,0
8.07,-37.173,0
8.071,-30.031,0
8.072,-27.834,0
8.073,-25.82,0
8.074,-20.327,0
8.075,-15.383,0
8.076,-16.848,0
8.077,-18.13,0
8.078,-12.087,0
8.079,-10.989,0
8.08,-6.045,0
8.081,-1.467,0
8.082,-0.735,0
8.083,3.111,0
8.084,3.66,0
8.085,1.829,0
8.086,2.378,0
8.087,3.66,0
8.088,6.773,0
8.089,4.759,0
8.09,8.238,0
8.091,8.604,0
8.092,4.026,0
8.093,7.139,0
8.094,7.688,0
8.095,4.392,0
8.096,6.59,0
8.097,9.336,0
8.098,8.97,0
8.099,5.674,0
8.1,3.66,0
8.101,2.561,0
8.102,3.66,0
8.103,2.927,0
8.104,3.111,0
8.105,-0.918,0
8.106,-0.368,0
8.107,0.913,0
8.108,0.547,0
8.109,2.927,0
8.11,0.181,0
8.111,5.857,0
8.112,18.308,0
8.113,45.774,0
8.114,57.493,0
8.115,60.972,0
8.116,31.675,0
8.117,-11.721,0
8.118,-28.933,0
8.119,-34.06,0
8.12,-38.821,0
8.121,-43.032,0
8.122,-39.187,0
8.123,-35.708,0
8.124,-32.595,0
8.125,-23.806,0
8.126,-21.242,0
8.127,-18.862,0
8.128,-16.665,0
8.129,-14.651,0
8.13,-12.82,0
8.131,-7.876,0
8.132,-6.411,0
8.133,-5.129,0
8.134,0.913,0
8.135,-0.185,0
8.136,6.773,0
8.137,11.35,0
8.138,10.618,0
8.139,9.885,0
8.14,9.336,0
8.141,7.505,0
8.142,4.759,0
8.143,4.392,0
8.144,4.026,0
8.145,2.012,0
8.146,1.646,0
8.147,0.547,0
8.148,-2.749,0
8.149,-3.115,0
8.15,-3.481,0
8.151,-3.115,0
8.152,-0.552,0
8.153,2.195,0
8.154,3.294,0
8.155,6.59,0
8.156,7.688,0
8.157,2.012,0
8.158,-0.368,0
8.159,-1.101,0
8.16,-1.467,0
8.161,-3.298,0
8.162,4.942,0
8.163,19.773,0
8.164,41.929,0
8.165,38.999,0
8.166,57.676,0
8.167,64.817,0
8.168,36.07,0
8.169,-7.326,0
8.17,-36.074,0
8.171,-41.201,0
8.172,-45.962,0
8.173,-41.75,0
8.174,-37.905,0
