0,3.472,0
0.001,2.739,0
0.002,12.993,0
0.003,29.473,0
0.004,44.854,0
0.005,58.953,0
0.006,31.487,0
0.007,-4.036,0
0.008,-27.839,0
0.009,-32.051,0
0.01,-35.896,0
0.011,-39.375,0
0.012,-29.854,0
0.013,-26.924,0
0.014,-24.36,0
0.015,-17.219,0
0.016,-15.022,0
0.017,-8.979,0
0.018,-7.148,0
0.019,-2.205,0
0.02,-3.669,0
0.021,-2.388,0
0.022,-1.289,0
0.023,2.007,0
0.024,4.937,0
0.025,5.852,0
0.026,5.12,0
0.027,8.965,0
0.028,5.669,0
0.029,6.218,0
0.03,4.57,0
0.031,7.866,0
0.032,9.148,0
0.033,8.049,0
0.034,7.683,0
0.035,7.317,0
0.036,5.852,0
0.037,2.739,0
0.038,3.838,0
0.039,4.204,0
0.04,1.641,0
0.041,1.824,0
0.042,-0.007,0
0.043,3.472,0
0.044,2.19,0
0.045,0.176,0
0.046,0.542,0
0.047,-2.754,0
0.048,-0.74,0
0.049,1.091,0
0.05,0.725,0
0.051,0.542,0
0.052,-0.19,0
0.053,4.021,0
0.054,13.542,0
0.055,34.05,0
0.056,36.98,0
0.057,34.417,0
0.058,36.797,0
0.059,34.6,0
0.06,8.416,0
0.061,-23.811,0
0.062,-45.417,0
0.063,-49.263,0
0.064,-45.784,0
0.065,-42.671,0
0.066,-39.741,0
0.067,-31.868,0
0.068,-29.487,0
0.069,-18.501,0
0.07,-16.487,0
0.071,-10.994,0
0.072,-6.05,0
0.073,-1.655,0
0.074,-0.374,0
0.075,5.669,0
0.076,2.373,0
0.077,7.317,0
0.078,0.908,0
0.079,4.937,0
0.08,5.669,0
0.081,7.5,0
0.082,10.613,0
0.083,8.965,0
0.084,12.261,0
0.085,13.542,0
0.086,16.289,0
0.087,12.81,0
0.088,14.092,0
0.089,11.345,0
0.09,10.979,0
0.091,8.416,0
0.092,6.401,0
0.093,6.584,0
0.094,5.852,0
0.095,4.753,0
0.096,3.289,0
0.097,5.852,0
0.098,4.753,0
0.099,2.007,0
0.1,4.57,0
0.101,5.669,0
0.102,6.401,0
0.103,3.105,0
0.104,10.063,0
0.105,25.261,0
0.106,58.403,0
0.107,53.643,0
0.108,14.641,0
0.109,-11.543,0
0.11,-25.825,0
0.111,-30.037,0
0.112,-33.882,0
0.113,-30.403,0
0.114,-27.29,0
0.115,-24.36,0
0.116,-21.797,0
0.117,-14.656,0
0.118,-12.458,0
0.119,-10.444,0
0.12,-8.613,0
0.121,-6.965,0
0.122,-2.571,0
0.123,-3.853,0
0.124,-2.754,0
0.125,0.542,0
0.126,-0.374,0
0.127,-3.12,0
0.128,-2.388,0
0.129,-0.19,0
0.13,3.105,0
0.131,4.937,0
0.132,4.387,0
0.133,5.669,0
0.134,12.627,0
0.135,27.825,0
0.136,30.022,0
0.137,7.866,0
0.138,-0.923,0
0.139,-8.796,0
0.14,-11.177,0
0.141,-8.979,0
0.142,-6.965,0
0.143,-8.796,0
0.144,-3.853,0
0.145,-8.247,0
0.146,-6.965,0
0.147,-3.486,0
0.148,-2.388,0
0.149,2.556,0
0.15,3.472,0
0.151,2.739,0
0.152,2.007,0
0.153,3.472,0
0.154,1.641,0
0.155,11.162,0
0.156,26.177,0
0.157,32.219,0
0.158,48.699,0
0.159,55.291,0
0.16,25.078,0
0.161,-13.923,0
0.162,-29.487,0
0.163,-43.77,0
0.164,-39.558,0
0.165,-35.713,0
0.166,-32.234,0
0.167,-29.121,0
0.168,-20.332,0
0.169,-17.769,0
0.17,-10.627,0
0.171,-8.43,0
0.172,-6.416,0
0.173,-4.585,0
0.174,-2.937,0
0.175,1.458,0
0.176,5.486,0
0.177,6.584,0
0.178,5.486,0
0.179,4.57,0
0.18,3.655,0
0.181,7.683,0
0.182,8.416,0
0.183,6.584,0
0.184,9.697,0
0.185,9.148,0
0.186,4.57,0
0.187,7.683,0
0.188,3.838,0
0.189,5.12,0
0.19,5.486,0
0.191,5.12,0
0.192,5.486,0
0.193,2.922,0
0.194,4.387,0
0.195,6.951,0
0.196,11.711,0
0.197,14.824,0
0.198,16.472,0
0.199,21.05,0
0.2,19.219,0
0.201,27.642,0
0.202,31.121,0
0.203,27.825,0
0.204,22.515,0
0.205,15.557,0
0.206,18.303,0
0.207,22.332,0
0.208,33.867,0
0.209,58.77,0
0.21,19.402,0
0.211,-27.839,0
0.212,-46.699,0
0.213,-63.911,0
0.214,-79.475,0
0.215,-74.714,0
0.216,-61.897,0
0.217,-50.178,0
0.218,-39.558,0
0.219,-42.671,0
0.22,-57.502,0
0.221,-65.376,0
0.222,-82.222,0
0.223,-97.603,0
0.224,-107.67,0
0.225,-120.49,0
0.226,-132.03,0
0.227,-139.53,0
0.228,-143.56,0
0.229,-137.52,0
0.23,-125.07,0
0.231,-103.46,0
0.232,-76.729,0
0.233,-23.079,0
0.234,77.08,0
0.235,117.91,0
0.236,155.27,0
0.237,144.1,0
0.238,133.84,0
0.239,124.5,0
0.24,116.08,0
0.241,93.01,0
0.242,99.968,0
0.243,106.19,0
0.244,111.87,0
0.245,138.05,0
0.246,152.34,0
0.247,156.55,0
0.248,152.7,0
0.249,149.22,0
0.25,139.7,0
0.251,130.91,0
0.252,112.24,0
0.253,85.503,0
0.254,67.742,0
0.255,47.417,0
0.256,37.896,0
0.257,40.825,0
0.258,54.192,0
0.259,66.277,0
0.26,59.685,0
0.261,45.586,0
0.262,18.12,0
0.263,-41.023,0
0.264,-66.292,0
0.265,-73.982,0
0.266,-80.94,0
0.267,-74.714,0
0.268,-80.391,0
0.269,-75.264,0
0.27,-80.024,0
0.271,-75.813,0
0.272,-79.658,0
0.273,-76.179,0
0.274,-66.658,0
0.275,-69.587,0
0.276,-72.151,0
0.277,-74.531,0
0.278,-72.334,0
0.279,-66.292,0
0.28,-64.46,0
0.281,-59.517,0
0.282,-52.009,0
0.283,-47.981,0
0.284,-44.502,0
0.285,-36.628,0
0.286,-33.699,0
0.287,-30.952,0
0.288,-26.924,0
0.289,-23.079,0
0.29,-18.501,0
0.291,-17.952,0
0.292,-12.825,0
0.293,-9.529,0
0.294,-10.078,0
0.295,-8.43,0
0.296,-5.134,0
0.297,-2.937,0
0.298,1.641,0
0.299,1.091,0
0.3,3.838,0
0.301,7.134,0
0.302,4.021,0
0.303,6.768,0
0.304,3.289,0
0.305,6.401,0
0.306,8.599,0
0.307,10.613,0
0.308,16.289,0
0.309,27.092,0
0.31,49.614,0
0.311,59.136,0
0.312,50.347,0
0.313,20.867,0
0.314,-6.599,0
0.315,-17.219,0
0.316,-26.741,0
0.317,-23.811,0
0.318,-21.248,0
0.319,-18.867,0
0.32,-16.67,0
0.321,-10.627,0
0.322,-5.134,0
0.323,-6.782,0
0.324,-2.388,0
0.325,1.641,0
0.326,5.12,0
0.327,6.218,0
0.328,5.303,0
0.329,4.387,0
0.33,10.063,0
0.331,10.796,0
0.332,11.345,0
0.333,11.895,0
0.334,12.444,0
0.335,11.162,0
0.336,8.049,0
0.337,11.895,0
0.338,10.613,0
0.339,7.5,0
0.34,10.247,0
0.341,8.416,0
0.342,10.979,0
0.343,11.711,0
0.344,8.049,0
0.345,4.753,0
0.346,6.035,0
0.347,8.782,0
0.348,5.303,0
0.349,5.669,0
0.35,6.768,0
0.351,5.669,0
0.352,8.965,0
0.353,3.472,0
0.354,1.274,0
0.355,3.105,0
0.356,1.274,0
0.357,1.274,0
0.358,2.922,0
0.359,6.218,0
0.36,13.176,0
0.361,28.374,0
0.362,48.333,0
0.363,50.896,0
0.364,24.163,0
0.365,-15.205,0
0.366,-30.769,0
0.367,-35.53,0
0.368,-31.318,0
0.369,-35.164,0
0.37,-31.685,0
0.371,-28.572,0
0.372,-25.642,0
0.373,-17.769,0
0.374,-15.388,0
0.375,-8.796,0
0.376,-6.782,0
0.377,-4.951,0
0.378,-3.303,0
0.379,1.091,0
0.38,10.613,0
0.381,29.106,0
0.382,26.543,0
0.383,9.697,0
0.384,-1.289,0
0.385,-7.332,0
0.386,-9.163,0
0.387,-7.515,0
0.388,-6.05,0
0.389,-4.768,0
0.39,-3.669,0
0.391,-0.374,0
0.392,-3.303,0
0.393,1.274,0
0.394,-1.106,0
0.395,1.091,0
0.396,1.641,0
0.397,2.19,0
0.398,2.739,0
0.399,4.021,0
0.4,4.387,0
0.401,6.401,0
0.402,5.303,0
0.403,2.007,0
0.404,0.908,0
0.405,3.472,0
0.406,0.908,0
0.407,3.655,0
0.408,2.739,0
0.409,1.641,0
0.41,7.134,0
0.411,18.669,0
0.412,33.684,0
0.413,39.727,0
0.414,37.896,0
0.415,32.952,0
0.416,28.557,0
0.417,8.049,0
0.418,-18.684,0
0.419,-36.445,0
0.42,-45.967,0
0.421,-48.896,0
0.422,-46.333,0
0.423,-39.192,0
0.424,-32.6,0
0.425,-30.586,0
0.426,-21.431,0
0.427,-16.487,0
0.428,-15.022,0
0.429,-10.994,0
0.43,-2.571,0
0.431,0.725,0
0.432,-0.19,0
0.433,6.218,0
0.434,6.951,0
0.435,7.683,0
0.436,8.232,0
0.437,8.782,0
0.438,8.232,0
0.439,6.951,0
0.44,8.232,0
0.441,8.599,0
0.442,2.922,0
0.443,10.43,0
0.444,1.274,0
0.445,4.753,0
0.446,5.852,0
0.447,6.768,0
0.448,9.514,0
0.449,7.134,0
0.45,7.866,0
0.451,7.317,0
0.452,5.486,0
0.453,6.035,0
0.454,2.739,0
0.455,4.021,0
0.456,5.12,0
0.457,1.641,0
0.458,1.274,0
0.459,-0.19,0
0.46,-1.289,0
0.461,4.387,0
0.462,16.838,0
0.463,44.304,0
0.464,56.023,0
0.465,45.403,0
0.466,16.106,0
0.467,-19.417,0
0.468,-24.177,0
0.469,-36.995,0
0.47,-33.149,0
0.471,-29.67,0
0.472,-26.558,0
0.473,-23.628,0
0.474,-21.064,0
0.475,-18.684,0
0.476,-12.092,0
0.477,-10.078,0
0.478,-8.247,0
0.479,-6.599,0
0.48,0.908,0
0.481,-0.374,0
0.482,-1.472,0
0.483,1.824,0
0.484,4.753,0
0.485,3.838,0
0.486,6.218,0
0.487,0.908,0
0.488,5.486,0
0.489,7.317,0
0.49,4.57,0
0.491,1.274,0
0.492,2.556,0
0.493,2.19,0
0.494,1.091,0
0.495,1.458,0
0.496,-1.838,0
0.497,2.373,0
0.498,4.021,0
0.499,4.387,0
0.5,3.105,0
0.501,2.739,0
0.502,3.838,0
0.503,-0.19,0
0.504,0.176,0
0.505,0.542,0
0.506,-1.472,0
0.507,1.091,0
0.508,0.725,0
0.509,1.458,0
0.51,-0.923,0
0.511,-1.655,0
0.512,2.373,0
0.513,10.796,0
0.514,29.29,0
0.515,58.77,0
0.516,47.051,0
0.517,7.683,0
0.518,-18.501,0
0.519,-32.783,0
0.52,-36.995,0
0.521,-33.149,0
0.522,-29.67,0
0.523,-26.558,0
0.524,-23.628,0
0.525,-21.064,0
0.526,-13.923,0
0.527,-11.726,0
0.528,-13.74,0
0.529,-4.585,0
0.53,-2.937,0
0.531,1.458,0
0.532,2.739,0
0.533,3.838,0
0.534,7.134,0
0.535,6.218,0
0.536,5.303,0
0.537,6.035,0
0.538,3.838,0
0.539,4.387,0
0.54,7.5,0
0.541,12.627,0
0.542,2.373,0
0.543,6.768,0
0.544,5.486,0
0.545,-0.557,0
0.546,2.739,0
0.547,5.669,0
0.548,6.584,0
0.549,4.204,0
0.55,2.007,0
0.551,8.232,0
0.552,5.852,0
0.553,2.007,0
0.554,0.176,0
0.555,2.007,0
0.556,1.458,0
0.557,-1.838,0
0.558,-4.036,0
0.559,-1.289,0
0.56,2.19,0
0.561,-2.388,0
0.562,-2.021,0
0.563,4.204,0
0.564,18.12,0
0.565,36.248,0
0.566,38.628,0
0.567,54.009,0
0.568,23.796,0
0.569,-6.416,0
0.57,-33.882,0
0.571,-37.361,0
0.572,-40.474,0
0.573,-43.403,0
0.574,-40.84,0
0.575,-33.699,0
0.576,-27.107,0
0.577,-25.093,0
0.578,-15.937,0
0.579,-10.994,0
0.58,-9.529,0
0.581,-2.754,0
0.582,-1.655,0
0.583,-2.754,0
0.584,2.19,0
0.585,4.937,0
0.586,4.204,0
0.587,6.401,0
0.588,4.57,0
0.589,4.021,0
0.59,9.148,0
0.591,5.852,0
0.592,7.683,0
0.593,8.232,0
0.594,4.937,0
0.595,2.739,0
0.596,5.486,0
0.597,5.12,0
0.598,6.218,0
0.599,8.232,0
0.6,5.12,0
0.601,6.218,0
0.602,6.584,0
0.603,1.824,0
0.604,1.274,0
0.605,1.824,0
0.606,-1.472,0
0.607,0.725,0
0.608,-1.289,0
0.609,-1.655,0
0.61,1.641,0
0.611,2.739,0
0.612,1.274,0
0.613,3.105,0
0.614,1.274,0
0.615,5.852,0
0.616,16.106,0
0.617,38.628,0
0.618,41.741,0
0.619,44.67,0
0.62,31.304,0
0.621,-5.134,0
0.622,-31.318,0
0.623,-45.601,0
0.624,-41.389,0
0.625,-45.234,0
0.626,-27.473,0
0.627,-11.36,0
0.628,-14.29,0
0.629,-27.656,0
0.63,-30.037,0
0.631,-23.445,0
0.632,-17.402,0
0.633,-15.571,0
0.634,-13.923,0
0.635,-6.416,0
0.636,-5.134,0
0.637,-1.655,0
0.638,-0.557,0
0.639,0.359,0
0.64,6.768,0
0.641,6.035,0
0.642,8.232,0
0.643,7.683,0
0.644,4.57,0
0.645,6.218,0
0.646,5.852,0
0.647,8.049,0
0.648,10.796,0
0.649,11.162,0
0.65,7.134,0
0.651,10.43,0
0.652,10.796,0
0.653,8.782,0
0.654,5.303,0
0.655,3.105,0
0.656,5.852,0
0.657,3.289,0
0.658,1.458,0
0.659,5.486,0
0.66,4.937,0
0.661,1.641,0
0.662,-0.557,0
0.663,1.274,0
0.664,2.373,0
0.665,8.049,0
0.666,20.5,0
0.667,44.304,0
0.668,60.417,0
0.669,33.684,0
0.67,1.458,0
0.671,-20.149,0
0.672,-31.868,0
0.673,-28.389,0
0.674,-31.501,0
0.675,-28.572,0
0.676,-26.008,0
0.677,-23.628,0
0.678,-21.431,0
0.679,-15.388,0
0.68,-9.895,0
0.681,-8.247,0
0.682,-3.853,0
0.683,-2.571,0
0.684,0.908,0
0.685,-0.19,0
0.686,0.725,0
0.687,-0.19,0
0.688,2.19,0
0.689,-0.007,0
0.69,4.57,0
0.691,4.021,0
0.692,3.472,0
0.693,3.838,0
0.694,2.556,0
0.695,1.458,0
0.696,4.021,0
0.697,8.782,0
0.698,5.669,0
0.699,6.218,0
0.7,8.599,0
0.701,8.232,0
0.702,6.218,0
0.703,1.274,0
0.704,4.57,0
0.705,0.176,0
0.706,-0.374,0
0.707,-0.74,0
0.708,1.458,0
0.709,1.091,0
0.71,2.19,0
0.711,-1.838,0
0.712,-2.205,0
0.713,-0.007,0
0.714,2.739,0
0.715,1.641,0
0.716,7.317,0
0.717,19.768,0
0.718,43.572,0
0.719,53.093,0
0.72,44.304,0
0.721,9.331,0
0.722,-14.473,0
0.723,-27.29,0
0.724,-39.009,0
0.725,-35.53,0
0.726,-32.417,0
0.727,-29.487,0
0.728,-26.924,0
0.729,-24.543,0
0.73,-17.952,0
0.731,-11.909,0
0.732,-10.078,0
0.733,-8.43,0
0.734,-0.923,0
0.735,0.359,0
0.736,1.458,0
0.737,0.359,0
0.738,3.289,0
0.739,4.204,0
0.74,3.472,0
0.741,5.669,0
0.742,8.965,0
0.743,5.852,0
0.744,4.204,0
0.745,3.838,0
0.746,4.204,0
0.747,5.303,0
0.748,7.134,0
0.749,8.232,0
0.75,8.049,0
0.751,3.838,0
0.752,3.289,0
0.753,1.641,0
0.754,2.922,0
0.755,1.641,0
0.756,0.542,0
0.757,2.373,0
0.758,-1.655,0
0.759,-1.289,0
0.76,0.908,0
0.761,-1.838,0
0.762,-0.74,0
0.763,-1.106,0
0.764,3.472,0
0.765,4.204,0
0.766,7.5,0
0.767,17.021,0
0.768,23.796,0
0.769,42.29,0
0.77,50.164,0
0.771,28.191,0
0.772,-10.444,0
0.773,-26.008,0
0.774,-30.769,0
0.775,-26.558,0
0.776,-30.403,0
0.777,-26.924,0
0.778,-30.037,0
0.779,-27.107,0
0.78,-19.233,0
0.781,-16.853,0
0.782,-14.656,0
0.783,-8.613,0
0.784,-3.12,0
0.785,1.824,0
0.786,3.289,0
0.787,2.007,0
0.788,8.049,0
0.789,4.753,0
0.79,3.838,0
0.791,4.753,0
0.792,5.486,0
0.793,4.753,0
0.794,2.922,0
0.795,4.753,0
0.796,5.303,0
0.797,2.007,0
0.798,1.641,0
0.799,0.542,0
0.8,3.105,0
0.801,0.542,0
0.802,2.007,0
0.803,0.725,0
0.804,4.753,0
0.805,0.908,0
0.806,2.19,0
0.807,7.317,0
0.808,6.768,0
0.809,6.218,0
0.81,7.866,0
0.811,0.359,0
0.812,-2.937,0
0.813,2.007,0
0.814,2.922,0
0.815,2.19,0
0.816,-0.923,0
0.817,2.922,0
0.818,13.176,0
0.819,26.726,0
0.82,39.543,0
0.821,44.487,0
0.822,58.037,0
0.823,37.896,0
0.824,2.922,0
0.825,-20.881,0
0.826,-33.699,0
0.827,-37.544,0
0.828,-34.065,0
0.829,-37.178,0
0.83,-34.248,0
0.831,-26.375,0
0.832,-23.994,0
0.833,-17.402,0
0.834,-15.388,0
0.835,-9.895,0
0.836,-11.543,0
0.837,-7.148,0
0.838,-5.867,0
0.839,0.176,0
0.84,3.472,0
0.841,2.556,0
0.842,3.472,0
0.843,1.091,0
0.844,0.359,0
0.845,0.908,0
0.846,4.021,0
0.847,3.472,0
0.848,5.852,0
0.849,4.57,0
0.85,8.416,0
0.851,8.049,0
0.852,7.683,0
0.853,4.937,0
0.854,6.035,0
0.855,7.866,0
0.856,3.289,0
0.857,3.838,0
0.858,3.289,0
0.859,4.937,0
0.86,3.655,0
0.861,2.373,0
0.862,0.359,0
0.863,1.458,0
0.864,0.359,0
0.865,1.091,0
0.866,2.922,0
0.867,6.401,0
0.868,5.669,0
0.869,3.472,0
0.87,-0.74,0
0.871,-1.289,0
0.872,7.134,0
0.873,25.627,0
0.874,12.261,0
0.875,-4.585,0
0.876,10.796,0
0.877,20.867,0
0.878,33.684,0
0.879,45.22,0
0.88,22.698,0
0.881,-19.6,0
0.882,-36.812,0
0.883,-41.938,0
0.884,-37.178,0
0.885,-32.966,0
0.886,-36.812,0
0.887,-33.333,0
0.888,-23.811,0
0.889,-20.881,0
0.89,-13.008,0
0.891,-10.627,0
0.892,-4.036,0
0.893,-2.021,0
0.894,-0.19,0
0.895,1.458,0
0.896,5.852,0
0.897,7.134,0
0.898,8.232,0
0.899,9.331,0
0.9,12.261,0
0.901,9.514,0
0.902,10.247,0
0.903,8.049,0
0.904,6.218,0
0.905,8.049,0
0.906,11.895,0
0.907,6.401,0
0.908,7.134,0
0.909,7.683,0
0.91,4.57,0
0.911,2.922,0
0.912,5.303,0
0.913,6.584,0
0.914,3.838,0
0.915,8.782,0
0.916,9.331,0
0.917,13.726,0
0.918,16.655,0
0.919,19.402,0
0.92,20.684,0
0.921,27.642,0
0.922,42.839,0
0.923,75.981,0
0.924,52.178,0
0.925,13.176,0
0.926,-2.388,0
0.927,-16.67,0
0.928,-20.881,0
0.929,-24.727,0
0.93,-28.206,0
0.931,-37.727,0
0.932,-40.657,0
0.933,-38.093,0
0.934,-40.474,0
0.935,-51.46,0
0.936,-45.417,0
0.937,-39.924,0
0.938,-24.91,0
0.939,-18.867,0
0.94,-35.347,0
0.941,-46.333,0
0.942,-60.432,0
0.943,-84.236,0
0.944,-100.35,0
0.945,-109.14,0
0.946,-111.7,0
0.947,-128.55,0
0.948,-135.14,0
0.949,-141.18,0
0.95,-128.36,0
0.951,-116.83,0
0.952,-97.236,0
0.953,-56.953,0
0.954,18.12,0
0.955,89.897,0
0.956,117.91,0
0.957,143.18,0
0.958,150.87,0
0.959,130,0
0.96,111.14,0
0.961,105.46,0
0.962,100.33,0
0.963,95.574,0
0.964,117.18,0
0.965,128.9,0
0.966,153.8,0
0.967,150.69,0
0.968,153.62,0
0.969,146.29,0
0.97,132.93,0
0.971,145.01,0
0.972,138.42,0
0.973,132.38,0
0.974,112.24,0
0.975,109.67,0
0.976,73.235,0
0.977,25.994,0
0.978,-5.684,0
0.979,-22.896,0
0.98,-28.022,0
0.981,-32.783,0
0.982,-36.995,0
0.983,-48.713,0
0.984,-52.192,0
0.985,-49.08,0
0.986,-52.009,0
0.987,-54.573,0
0.988,-56.953,0
0.989,-54.756,0
0.99,-56.77,0
0.991,-54.939,0
0.992,-56.587,0
0.993,-55.122,0
0.994,-59.15,0
0.995,-60.249,0
0.996,-59.15,0
0.997,-62.08,0
0.998,-61.165,0
0.999,-60.432,0
1,-59.7,0
1.001,-56.404,0
1.002,-49.446,0
1.003,-52.192,0
1.004,-39.741,0
1.005,-41.572,0
1.006,-36.628,0
1.007,-35.164,0
1.008,-31.135,0
1.009,-27.656,0
1.01,-24.36,0
1.011,-21.431,0
1.012,-20.515,0
1.013,-14.839,0
1.014,-9.529,0
1.015,-3.303,0
1.016,-4.036,0
1.017,-3.303,0
1.018,-0.007,0
1.019,-0.557,0
1.02,-0.19,0
1.021,1.458,0
1.022,8.965,0
1.023,25.994,0
1.024,47.966,0
1.025,50.896,0
1.026,32.219,0
1.027,5.486,0
1.028,-19.417,0
1.029,-22.529,0
1.03,-25.459,0
1.031,-22.896,0
1.032,-20.515,0
1.033,-22.712,0
1.034,-12.642,0
1.035,-10.811,0
1.036,-5.867,0
1.037,-4.402,0
1.038,-0.374,0
1.039,3.105,0
1.04,4.204,0
1.041,9.148,0
1.042,11.895,0
1.043,11.162,0
1.044,10.43,0
1.045,10.979,0
1.046,12.81,0
1.047,13.359,0
1.048,12.078,0
1.049,13.359,0
1.05,12.993,0
1.051,13.359,0
1.052,13.726,0
1.053,9.148,0
1.054,9.697,0
1.055,6.584,0
1.056,6.035,0
1.057,6.401,0
1.058,6.768,0
1.059,4.753,0
1.06,4.387,0
1.061,2.556,0
1.062,7.134,0
1.063,7.683,0
1.064,5.852,0
1.065,5.303,0
1.066,6.584,0
1.067,9.697,0
1.068,7.683,0
1.069,6.584,0
1.07,6.218,0
1.071,4.937,0
1.072,3.472,0
1.073,7.683,0
1.074,17.205,0
1.075,37.712,0
1.076,52.544,0
1.077,12.261,0
1.078,-16.487,0
1.079,-21.614,0
1.08,-26.375,0
1.081,-30.586,0
1.082,-26.741,0
1.083,-23.262,0
1.084,-20.149,0
1.085,-17.219,0
1.086,-14.656,0
1.087,-12.275,0
1.088,-10.078,0
1.089,-4.036,0
1.09,-2.205,0
1.091,-3.853,0
1.092,-2.388,0
1.093,1.641,0
1.094,2.739,0
1.095,3.838,0
1.096,2.922,0
1.097,3.838,0
1.098,6.218,0
1.099,6.951,0
1.1,5.12,0
1.101,8.232,0
1.102,7.683,0
1.103,5.303,0
1.104,3.105,0
1.105,2.739,0
1.106,4.57,0
1.107,3.472,0
1.108,2.739,0
1.109,2.922,0
1.11,2.19,0
1.111,-1.289,0
1.112,-0.007,0
1.113,0.359,0
1.114,5.852,0
1.115,3.655,0
1.116,3.105,0
1.117,10.063,0
1.118,23.979,0
1.119,30.022,0
1.12,6.218,0
1.121,-3.303,0
1.122,-8.979,0
1.123,-6.05,0
1.124,-3.486,0
1.125,18.486,0
1.126,39.177,0
1.127,41.741,0
1.128,15.007,0
1.129,-17.219,0
1.13,-30.037,0
1.131,-33.882,0
1.132,-30.403,0
1.133,-27.29,0
1.134,-24.36,0
1.135,-21.797,0
1.136,-19.417,0
1.137,-17.219,0
1.138,-15.205,0
1.139,-9.712,0
1.14,-8.064,0
1.141,-3.669,0
1.142,0.359,0
1.143,3.838,0
1.144,0.542,0
1.145,3.472,0
1.146,4.387,0
1.147,2.007,0
1.148,8.965,0
1.149,11.711,0
1.15,9.331,0
1.151,7.134,0
1.152,8.965,0
1.153,5.852,0
1.154,5.303,0
1.155,5.669,0
1.156,4.387,0
1.157,4.021,0
1.158,-1.655,0
1.159,0.725,0
1.16,1.458,0
1.161,0.908,0
1.162,2.739,0
1.163,3.289,0
1.164,5.669,0
1.165,4.387,0
1.166,7.134,0
1.167,4.57,0
1.168,6.401,0
1.169,3.655,0
1.17,1.091,0
1.171,-0.007,0
1.172,3.289,0
1.173,1.274,0
1.174,1.641,0
1.175,7.866,0
1.176,21.782,0
1.177,35.881,0
1.178,41.375,0
1.179,43.022,0
1.18,20.5,0
1.181,-8.796,0
1.182,-28.389,0
1.183,-39.009,0
1.184,-35.896,0
1.185,-32.966,0
1.186,-35.53,0
1.187,-33.149,0
1.188,-26.558,0
1.189,-24.543,0
1.19,-15.388,0
1.191,-10.444,0
1.192,-8.979,0
1.193,-4.951,0
1.194,-1.472,0
1.195,4.204,0
1.196,3.289,0
1.197,4.204,0
1.198,9.88,0
1.199,7.683,0
1.2,10.979,0
1.201,9.148,0
1.202,7.5,0
1.203,6.218,0
1.204,5.852,0
1.205,3.838,0
1.206,3.472,0
1.207,6.768,0
1.208,5.669,0
1.209,6.035,0
1.21,4.937,0
1.211,3.472,0
1.212,2.19,0
1.213,1.458,0
1.214,3.655,0
1.215,3.472,0
1.216,4.204,0
1.217,2.739,0
1.218,5.12,0
1.219,0.542,0
1.22,-1.289,0
1.221,-3.12,0
1.222,0.725,0
1.223,0.359,0
1.224,2.007,0
1.225,3.289,0
1.226,9.514,0
1.227,23.43,0
1.228,53.643,0
1.229,49.431,0
1.23,29.839,0
1.231,-9.529,0
1.232,-25.093,0
1.233,-29.854,0
1.234,-34.065,0
1.235,-30.22,0
1.236,-26.741,0
1.237,-23.628,0
1.238,-20.698,0
1.239,-18.135,0
1.24,-15.754,0
1.241,-4.768,0
1.242,-6.782,0
1.243,-4.951,0
1.244,-3.303,0
1.245,-1.838,0
1.246,-0.557,0
1.247,5.486,0
1.248,4.387,0
1.249,7.317,0
1.25,10.063,0
1.251,10.796,0
1.252,8.599,0
1.253,6.768,0
1.254,3.655,0
1.255,9.88,0
1.256,4.204,0
1.257,4.937,0
1.258,6.768,0
1.259,4.937,0
1.26,2.19,0
1.261,0.908,0
1.262,2.19,0
1.263,1.824,0
1.264,1.458,0
1.265,1.824,0
1.266,3.289,0
1.267,2.007,0
1.268,5.486,0
1.269,2.373,0
1.27,2.739,0
1.271,-0.74,0
1.272,-1.106,0
1.273,-2.205,0
1.274,0.359,0
1.275,2.007,0
1.276,-2.754,0
1.277,6.768,0
1.278,16.289,0
1.279,32.402,0
1.28,38.994,0
1.281,36.98,0
1.282,31.487,0
1.283,26.543,0
1.284,16.106,0
1.285,14.824,0
1.286,-1.289,0
1.287,14.092,0
1.288,-12.092,0
1.289,-44.319,0
1.29,-65.925,0
1.291,-69.771,0
1.292,-66.292,0
1.293,-56.77,0
1.294,-47.981,0
1.295,-40.107,0
1.296,-32.966,0
1.297,-17.585,0
1.298,-15.571,0
1.299,-6.416,0
1.3,-1.472,0
1.301,2.922,0
1.302,6.951,0
1.303,10.43,0
1.304,11.528,0
1.305,12.444,0
1.306,11.528,0
1.307,17.205,0
1.308,15.007,0
1.309,15.557,0
1.31,13.726,0
1.311,9.88,0
1.312,12.261,0
1.313,14.458,0
1.314,15.557,0
1.315,13.726,0
1.316,17.021,0
1.317,11.528,0
1.318,13.726,0
1.319,7.5,0
1.32,6.768,0
1.321,7.5,0
1.322,2.922,0
1.323,7.317,0
1.324,6.768,0
1.325,3.472,0
1.326,2.007,0
1.327,-4.036,0
1.328,8.416,0
1.329,17.571,0
1.33,42.473,0
1.331,53.093,0
1.332,30.571,0
1.333,-8.064,0
1.334,-23.628,0
1.335,-28.389,0
1.336,-32.6,0
1.337,-28.755,0
1.338,-25.276,0
1.339,-22.163,0
1.34,-19.233,0
1.341,-16.67,0
1.342,-14.29,0
1.343,-7.698,0
1.344,-9.712,0
1.345,-4.219,0
1.346,-2.571,0
1.347,1.824,0
1.348,3.105,0
1.349,4.204,0
1.35,3.105,0
1.351,8.049,0
1.352,5.303,0
1.353,2.922,0
1.354,5.12,0
1.355,6.951,0
1.356,6.401,0
1.357,4.753,0
1.358,6.035,0
1.359,3.838,0
1.36,-0.007,0
1.361,2.373,0
1.362,1.091,0
1.363,7.317,0
1.364,21.233,0
1.365,23.247,0
1.366,6.768,0
1.367,-4.219,0
1.368,-10.261,0
1.369,-12.092,0
1.37,-13.74,0
1.371,-9.346,0
1.372,-10.627,0
1.373,-7.148,0
1.374,-8.247,0
1.375,-7.332,0
1.376,-4.585,0
1.377,-6.05,0
1.378,-2.021,0
1.379,9.514,0
1.38,24.529,0
1.381,46.685,0
1.382,55.474,0
1.383,36.797,0
1.384,0.359,0
1.385,-15.205,0
1.386,-29.487,0
1.387,-33.699,0
1.388,-29.854,0
1.389,-26.375,0
1.39,-23.262,0
1.391,-20.332,0
1.392,-17.769,0
1.393,-15.388,0
1.394,-13.191,0
1.395,-11.177,0
1.396,-5.684,0
1.397,-0.74,0
1.398,-2.205,0
1.399,7.317,0
1.4,3.838,0
1.401,4.937,0
1.402,5.852,0
1.403,6.768,0
1.404,4.387,0
1.405,8.232,0
1.406,6.401,0
1.407,5.852,0
1.408,6.401,0
1.409,5.12,0
1.41,3.838,0
1.411,1.824,0
1.412,5.303,0
1.413,7.5,0
1.414,2.922,0
1.415,6.035,0
1.416,6.584,0
1.417,3.289,0
1.418,2.007,0
1.419,-0.007,0
1.42,-0.374,0
1.421,1.458,0
1.422,0.725,0
1.423,-1.106,0
1.424,1.824,0
1.425,1.458,0
1.426,-0.374,0
1.427,-1.838,0
1.428,-0.923,0
1.429,-0.74,0
1.43,3.289,0
1.431,11.711,0
1.432,30.205,0
1.433,54.375,0
1.434,31.853,0
1.435,-6.782,0
1.436,-22.346,0
1.437,-36.628,0
1.438,-32.417,0
1.439,-28.572,0
1.44,-32.051,0
1.441,-28.938,0
1.442,-20.149,0
1.443,-17.585,0
1.444,-15.205,0
1.445,-13.008,0
1.446,-10.994,0
1.447,-1.838,0
1.448,-0.19,0
1.449,1.274,0
1.45,-0.007,0
1.451,3.472,0
1.452,0.176,0
1.453,5.12,0
1.454,2.373,0
1.455,4.753,0
1.456,6.951,0
1.457,3.655,0
1.458,6.768,0
1.459,5.12,0
1.46,0.542,0
1.461,2.373,0
1.462,6.218,0
1.463,5.852,0
1.464,5.486,0
1.465,5.852,0
1.466,5.486,0
1.467,5.852,0
1.468,6.584,0
1.469,2.922,0
1.47,2.556,0
1.471,1.274,0
1.472,0.176,0
1.473,-0.19,0
1.474,-1.289,0
1.475,0.725,0
1.476,1.458,0
1.477,-2.571,0
1.478,-0.923,0
1.479,-3.12,0
1.48,2.373,0
1.481,1.641,0
1.482,11.895,0
1.483,34.417,0
1.484,43.938,0
1.485,41.008,0
1.486,48.882,0
1.487,32.036,0
1.488,-1.106,0
1.489,-34.431,0
1.49,-47.249,0
1.491,-51.094,0
1.492,-47.615,0
1.493,-38.093,0
1.494,-41.023,0
1.495,-33.149,0
1.496,-26.008,0
1.497,-19.417,0
1.498,-13.374,0
1.499,-7.881,0
1.5,-2.937,0
1.501,-1.472,0
1.502,2.556,0
1.503,3.655,0
1.504,2.556,0
1.505,5.486,0
1.506,4.57,0
1.507,6.951,0
1.508,6.218,0
1.509,9.514,0
1.51,8.965,0
1.511,6.218,0
1.512,3.838,0
1.513,6.951,0
1.514,10.796,0
1.515,9.514,0
1.516,9.148,0
1.517,8.782,0
1.518,9.148,0
1.519,5.852,0
1.52,5.486,0
1.521,3.655,0
1.522,1.824,0
1.523,2.007,0
1.524,0.725,0
1.525,4.204,0
1.526,1.091,0
1.527,0.725,0
1.528,1.091,0
1.529,-0.007,0
1.53,2.739,0
1.531,1.274,0
1.532,5.486,0
1.533,15.007,0
1.534,35.515,0
1.535,56.206,0
1.536,26.726,0
1.537,-8.796,0
1.538,-23.079,0
1.539,-35.896,0
1.54,-32.051,0
1.541,-28.572,0
1.542,-25.459,0
1.543,-28.389,0
1.544,-20.515,0
1.545,-18.135,0
1.546,-11.543,0
1.547,-9.529,0
1.548,-4.036,0
1.549,-2.388,0
1.55,-0.923,0
1.551,0.359,0
1.552,1.458,0
1.553,-1.838,0
1.554,1.091,0
1.555,3.838,0
1.556,1.458,0
1.557,2.19,0
1.558,-1.106,0
1.559,4.57,0
1.56,-0.74,0
1.561,2.556,0
1.562,-0.557,0
1.563,5.669,0
1.564,6.401,0
1.565,4.204,0
1.566,7.5,0
1.567,4.387,0
1.568,4.937,0
1.569,4.57,0
1.57,2.373,0
1.571,3.472,0
1.572,3.838,0
1.573,4.937,0
1.574,4.204,0
1.575,3.472,0
1.576,-0.007,0
1.577,-4.219,0
1.578,-5.867,0
1.579,-3.486,0
1.58,-4.768,0
1.581,-3.853,0
1.582,2.373,0
1.583,1.458,0
1.584,13.909,0
1.585,37.712,0
1.586,40.825,0
1.587,43.755,0
1.588,30.388,0
1.589,28.008,0
1.59,3.655,0
1.591,19.768,0
1.592,22.698,0
1.593,-6.782,0
1.594,-42.305,0
1.595,-56.587,0
1.596,-60.798,0
1.597,-56.953,0
1.598,-46.333,0
1.599,-43.22,0
1.6,-34.431,0
1.601,-26.558,0
1.602,-19.417,0
1.603,-12.825,0
1.604,-10.811,0
1.605,-1.655,0
1.606,-0.007,0
1.607,7.5,0
1.608,8.782,0
1.609,19.951,0
1.61,39.543,0
1.611,26.177,0
1.612,9.331,0
1.613,7.134,0
1.614,1.091,0
1.615,2.922,0
1.616,1.274,0
1.617,2.739,0
1.618,1.458,0
1.619,-4.585,0
1.62,-1.289,0
1.621,1.641,0
1.622,0.725,0
1.623,3.105,0
1.624,3.838,0
1.625,3.289,0
1.626,3.838,0
1.627,3.289,0
1.628,0.908,0
1.629,3.105,0
1.63,5.852,0
1.631,7.683,0
1.632,8.599,0
1.633,6.768,0
1.634,11.345,0
1.635,21.599,0
1.636,38.079,0
1.637,40.276,0
1.638,50.347,0
1.639,37.529,0
1.64,12.627,0
1.641,-26.741,0
1.642,-42.305,0
1.643,-37.544,0
1.644,-41.755,0
1.645,-37.91,0
1.646,-27.29,0
1.647,-24.177,0
1.648,-15.388,0
1.649,-17.952,0
1.65,-10.811,0
1.651,-8.613,0
1.652,-2.571,0
1.653,-4.402,0
1.654,0.542,0
1.655,2.007,0
1.656,3.289,0
1.657,4.387,0
1.658,5.486,0
1.659,6.401,0
1.66,1.824,0
1.661,4.204,0
1.662,4.937,0
1.663,6.768,0
1.664,7.317,0
1.665,6.768,0
1.666,8.049,0
1.667,10.247,0
1.668,9.148,0
1.669,6.584,0
1.67,2.556,0
1.671,2.19,0
1.672,0.908,0
1.673,2.007,0
1.674,2.373,0
1.675,2.007,0
1.676,2.19,0
1.677,-0.923,0
1.678,-2.021,0
1.679,-0.19,0
1.68,1.641,0
1.681,2.373,0
1.682,1.091,0
1.683,3.472,0
1.684,3.655,0
1.685,7.134,0
1.686,14.641,0
1.687,31.67,0
1.688,58.403,0
1.689,19.036,0
1.69,3.472,0
1.691,-20.332,0
1.692,-33.149,0
1.693,-29.304,0
1.694,-32.783,0
1.695,-23.262,0
1.696,-14.473,0
1.697,-6.599,0
1.698,0.542,0
1.699,11.528,0
1.7,17.571,0
1.701,19.402,0
1.702,17.754,0
1.703,16.289,0
1.704,17.571,0
1.705,14.092,0
1.706,12.993,0
1.707,10.063,0
1.708,-0.19,0
1.709,-12.458,0
1.71,-23.994,0
1.711,-28.389,0
1.712,-35.164,0
1.713,-36.262,0
1.714,-28.389,0
1.715,-15.205,0
1.716,-9.712,0
1.717,-14.656,0
1.718,-34.248,0
1.719,-52.925,0
1.72,-69.771,0
1.721,-94.124,0
1.722,-103.64,0
1.723,-106.58,0
1.724,-114.45,0
1.725,-131.29,0
1.726,-133.49,0
1.727,-135.5,0
1.728,-122.69,0
1.729,-114.45,0
1.73,-91.926,0
1.731,-43.22,0
1.732,47.966,0
1.733,110.22,0
1.734,133.84,0
1.735,145.01,0
1.736,114.25,0
1.737,123.59,0
1.738,132.01,0
1.739,124.32,0
1.74,117.36,0
1.741,123.59,0
1.742,129.26,0
1.743,144.83,0
1.744,149.59,0
1.745,145.38,0
1.746,149.22,0
1.747,131.46,0
1.748,95.757,0
1.749,62.432,0
1.75,49.614,0
1.751,22.148,0
1.752,4.387,0
1.753,1.274,0
1.754,4.204,0
1.755,1.641,0
1.756,8.782,0
1.757,2.19,0
1.758,0.176,0
1.759,-1.655,0
1.76,-13.191,0
1.761,-14.656,0
1.762,-15.937,0
1.763,-17.036,0
1.764,-20.332,0
1.765,-31.501,0
1.766,-27.107,0
1.767,-28.389,0
1.768,-31.868,0
1.769,-37.544,0
1.77,-40.474,0
1.771,-39.558,0
1.772,-47.065,0
1.773,-49.995,0
1.774,-56.404,0
1.775,-58.784,0
1.776,-60.981,0
1.777,-62.812,0
1.778,-59.7,0
1.779,-54.573,0
1.78,-52.742,0
1.781,-45.784,0
1.782,-41.206,0
1.783,-35.53,0
1.784,-33.333,0
1.785,-30.22,0
1.786,-29.67,0
1.787,-20.149,0
1.788,0.359,0
1.789,32.952,0
1.79,37.163,0
1.791,9.697,0
1.792,-22.529,0
1.793,-35.347,0
1.794,-39.192,0
1.795,-35.713,0
1.796,-32.6,0
1.797,-29.67,0
1.798,-21.797,0
1.799,-14.656,0
1.8,-12.458,0
1.801,-6.416,0
1.802,-4.585,0
1.803,-2.937,0
1.804,1.458,0
1.805,2.739,0
1.806,3.838,0
1.807,4.937,0
1.808,9.88,0
1.809,10.796,0
1.81,11.528,0
1.811,10.796,0
1.812,8.965,0
1.813,12.078,0
1.814,11.528,0
1.815,14.824,0
1.816,17.021,0
1.817,13.176,0
1.818,12.81,0
1.819,8.599,0
1.82,9.148,0
1.821,12.444,0
1.822,11.162,0
1.823,11.528,0
1.824,8.965,0
1.825,5.669,0
1.826,6.768,0
1.827,7.134,0
1.828,8.232,0
1.829,5.486,0
1.83,7.317,0
1.831,5.486,0
1.832,6.218,0
1.833,5.486,0
1.834,6.218,0
1.835,5.669,0
1.836,2.007,0
1.837,4.937,0
1.838,9.148,0
1.839,17.571,0
1.84,36.064,0
1.841,43.938,0
1.842,41.558,0
1.843,26.177,0
1.844,-4.036,0
1.845,-25.642,0
1.846,-37.361,0
1.847,-33.882,0
1.848,-36.995,0
1.849,-34.065,0
1.85,-26.191,0
1.851,-19.05,0
1.852,-16.853,0
1.853,-18.867,0
1.854,-13.374,0
1.855,8.232,0
1.856,17.021,0
1.857,9.148,0
1.858,-2.937,0
1.859,-5.134,0
1.86,-11.177,0
1.861,-5.684,0
1.862,-4.036,0
1.863,-2.571,0
1.864,1.458,0
1.865,0.359,0
1.866,6.035,0
1.867,3.105,0
1.868,5.852,0
1.869,5.12,0
1.87,7.317,0
1.871,2.739,0
1.872,0.908,0
1.873,3.655,0
1.874,4.021,0
1.875,5.303,0
1.876,4.204,0
1.877,0.725,0
1.878,1.091,0
1.879,6.584,0
1.88,4.387,0
1.881,6.218,0
1.882,4.387,0
1.883,9.514,0
1.884,6.218,0
1.885,9.331,0
1.886,2.007,0
1.887,4.204,0
1.888,1.274,0
1.889,11.528,0
1.89,26.543,0
1.891,56.755,0
1.892,52.544,0
1.893,17.021,0
1.894,-6.782,0
1.895,-28.389,0
1.896,-32.234,0
1.897,-28.755,0
1.898,-25.642,0
1.899,-22.712,0
1.9,-20.149,0
1.901,-17.769,0
1.902,-15.571,0
1.903,-13.557,0
1.904,-11.726,0
1.905,-6.782,0
1.906,-5.317,0
1.907,-4.036,0
1.908,-2.937,0
1.909,0.359,0
1.91,-2.571,0
1.911,-1.655,0
1.912,0.725,0
1.913,1.458,0
1.914,8.965,0
1.915,6.035,0
1.916,6.951,0
1.917,4.57,0
1.918,8.416,0
1.919,3.838,0
1.92,2.007,0
1.921,3.655,0
1.922,2.373,0
1.923,2.007,0
1.924,0.908,0
1.925,5.12,0
1.926,-0.007,0
1.927,-0.557,0
1.928,-1.106,0
1.929,4.021,0
1.93,2.19,0
1.931,1.641,0
1.932,1.091,0
1.933,2.373,0
1.934,2.739,0
1.935,-1.106,0
1.936,-1.472,0
1.937,-1.106,0
1.938,3.472,0
1.939,-0.374,0
1.94,7.134,0
1.941,24.163,0
1.942,50.896,0
1.943,54.375,0
1.944,18.669,0
1.945,-14.656,0
1.946,-27.473,0
1.947,-31.318,0
1.948,-27.839,0
1.949,-30.952,0
1.95,-22.163,0
1.951,-19.6,0
1.952,-21.98,0
1.953,-19.783,0
1.954,-9.712,0
1.955,-7.881,0
1.956,-2.937,0
1.957,-1.472,0
1.958,2.556,0
1.959,1.458,0
1.96,0.359,0
1.961,3.289,0
1.962,6.035,0
1.963,6.768,0
1.964,8.965,0
1.965,8.416,0
1.966,8.965,0
1.967,8.416,0
1.968,7.134,0
1.969,5.852,0
1.97,4.753,0
1.971,4.387,0
1.972,9.88,0
1.973,7.683,0
1.974,7.134,0
1.975,5.303,0
1.976,3.655,0
1.977,6.035,0
1.978,1.824,0
1.979,2.373,0
1.98,2.007,0
1.981,1.641,0
1.982,2.007,0
1.983,4.57,0
1.984,2.007,0
1.985,1.274,0
1.986,-0.557,0
1.987,-2.388,0
1.988,-2.205,0
1.989,-0.19,0
1.99,-0.74,0
1.991,2.19,0
1.992,8.416,0
1.993,22.332,0
1.994,48.516,0
1.995,45.037,0
1.996,9.331,0
1.997,-23.994,0
1.998,-36.812,0
1.999,-32.966,0
2,-36.445,0
2.001,-33.333,0
2.002,-30.403,0
2.003,-27.839,0
2.004,-20.698,0
2.005,-18.501,0
2.006,-16.487,0
2.007,-7.332,0
2.008,-5.684,0
2.009,-1.289,0
2.01,-2.571,0
2.011,-1.472,0
2.012,-0.374,0
2.013,0.542,0
2.014,3.289,0
2.015,8.965,0
2.016,8.232,0
2.017,12.81,0
2.018,9.697,0
2.019,6.951,0
2.02,7.317,0
2.021,7.683,0
2.022,3.838,0
2.023,5.12,0
2.024,3.838,0
2.025,3.472,0
2.026,1.641,0
2.027,-2.388,0
2.028,3.105,0
2.029,3.838,0
2.03,5.669,0
2.031,6.218,0
2.032,5.669,0
2.033,6.035,0
2.034,3.838,0
2.035,1.824,0
2.036,0.725,0
2.037,-0.374,0
2.038,1.091,0
2.039,1.824,0
2.04,1.274,0
2.041,-0.007,0
2.042,3.472,0
2.043,10.979,0
2.044,28.008,0
2.045,40.093,0
2.046,51.079,0
2.047,41.008,0
2.048,13.542,0
2.049,-29.854,0
2.05,-35.53,0
2.051,-40.657,0
2.052,-35.896,0
2.053,-40.107,0
2.054,-36.262,0
2.055,-25.642,0
2.056,-22.529,0
2.057,-19.6,0
2.058,-17.036,0
2.059,-9.895,0
2.06,-7.698,0
2.061,-9.712,0
2.062,-0.557,0
2.063,4.387,0
2.064,5.852,0
2.065,7.134,0
2.066,8.232,0
2.067,11.528,0
2.068,8.599,0
2.069,5.852,0
2.07,6.584,0
2.071,4.387,0
2.072,6.218,0
2.073,9.331,0
2.074,8.782,0
2.075,7.5,0
2.076,7.134,0
2.077,3.289,0
2.078,0.908,0
2.079,2.19,0
2.08,4.204,0
2.081,5.303,0
2.082,2.007,0
2.083,6.584,0
2.084,0.908,0
2.085,1.641,0
2.086,-2.937,0
2.087,0.176,0
2.088,-1.472,0
2.089,-1.838,0
2.09,-0.557,0
2.091,2.007,0
2.092,0.908,0
2.093,-0.923,0
2.094,-0.557,0
2.095,-3.853,0
2.096,1.274,0
2.097,1.824,0
2.098,-0.007,0
2.099,1.641,0
2.1,6.218,0
2.101,15.74,0
2.102,28.008,0
2.103,6.401,0
2.104,9.331,0
2.105,17.205,0
2.106,29.29,0
2.107,31.487,0
2.108,37.529,0
2.109,13.726,0
2.11,-21.98,0
2.111,-45.784,0
2.112,-41.572,0
2.113,-45.417,0
2.114,-34.797,0
2.115,-37.91,0
2.116,-23.079,0
2.117,-20.515,0
2.118,-18.135,0
2.119,-15.937,0
2.12,-13.923,0
2.121,-8.43,0
2.122,-0.19,0
2.123,1.274,0
2.124,5.303,0
2.125,1.824,0
2.126,2.922,0
2.127,3.838,0
2.128,4.753,0
2.129,7.134,0
2.13,9.331,0
2.131,9.88,0
2.132,10.43,0
2.133,9.88,0
2.134,7.5,0
2.135,7.134,0
2.136,9.148,0
2.137,6.584,0
2.138,5.486,0
2.139,6.218,0
2.14,4.937,0
2.141,7.866,0
2.142,4.204,0
2.143,3.105,0
2.144,8.599,0
2.145,20.134,0
2.146,45.037,0
2.147,48.516,0
2.148,38.994,0
2.149,6.401,0
2.15,-23.811,0
2.151,-27.656,0
2.152,-38.276,0
2.153,-35.164,0
2.154,-32.234,0
2.155,-24.36,0
2.156,-21.98,0
2.157,-19.783,0
2.158,-13.74,0
2.159,-11.909,0
2.16,-10.261,0
2.161,-8.796,0
2.162,-2.021,0
2.163,1.458,0
2.164,0.359,0
2.165,1.274,0
2.166,4.021,0
2.167,6.401,0
2.168,7.134,0
2.169,5.303,0
2.17,4.753,0
2.171,5.303,0
2.172,4.937,0
2.173,8.049,0
2.174,5.303,0
2.175,8.782,0
2.176,3.655,0
2.177,0.359,0
2.178,-1.472,0
2.179,0.176,0
2.18,4.753,0
2.181,4.204,0
2.182,4.753,0
2.183,3.472,0
2.184,3.838,0
2.185,-0.007,0
2.186,-1.289,0
2.187,0.908,0
2.188,0.542,0
2.189,1.641,0
2.19,1.274,0
2.191,2.739,0
2.192,0.908,0
2.193,-0.19,0
2.194,-3.12,0
2.195,2.556,0
2.196,15.007,0
2.197,38.811,0
2.198,41.924,0
2.199,56.755,0
2.2,38.079,0
2.201,1.641,0
2.202,-34.98,0
2.203,-39.741,0
2.204,-43.953,0
2.205,-40.107,0
2.206,-36.628,0
2.207,-33.516,0
2.208,-24.727,0
2.209,-16.853,0
2.21,-19.233,0
2.211,-12.642,0
2.212,-6.599,0
2.213,-1.106,0
2.214,3.838,0
2.215,2.373,0
2.216,3.655,0
2.217,4.753,0
2.218,8.049,0
2.219,3.105,0
2.22,5.852,0
2.221,5.12,0
2.222,7.317,0
2.223,5.486,0
2.224,6.035,0
2.225,4.387,0
2.226,3.105,0
2.227,2.739,0
2.228,4.753,0
2.229,8.232,0
2.23,6.951,0
2.231,4.937,0
2.232,6.035,0
2.233,7.134,0
2.234,5.12,0
2.235,4.937,0
2.236,3.655,0
2.237,0.542,0
2.238,0.908,0
2.239,2.739,0
2.24,0.176,0
2.241,0.359,0
2.242,-0.374,0
2.243,-1.655,0
2.244,-0.19,0
2.245,-0.007,0
2.246,3.289,0
2.247,10.247,0
2.248,25.444,0
2.249,54.192,0
2.25,26.726,0
2.251,-5.5,0
2.252,-27.107,0
2.253,-30.952,0
2.254,-27.473,0
2.255,-24.36,0
2.256,-21.431,0
2.257,-18.867,0
2.258,-16.487,0
2.259,-14.29,0
2.26,-16.304,0
2.261,-10.811,0
2.262,-5.867,0
2.263,-4.402,0
2.264,-3.12,0
2.265,0.359,0
2.266,3.655,0
2.267,2.739,0
2.268,5.486,0
2.269,1.458,0
2.27,0.725,0
2.271,4.021,0
2.272,4.57,0
2.273,-0.557,0
2.274,4.021,0
2.275,4.57,0
2.276,1.824,0
2.277,2.19,0
2.278,1.824,0
2.279,2.922,0
2.28,4.021,0
2.281,5.852,0
2.282,5.12,0
2.283,3.289,0
2.284,4.021,0
2.285,3.472,0
2.286,4.937,0
2.287,2.007,0
2.288,0.908,0
2.289,0.542,0
2.29,2.373,0
2.291,1.641,0
2.292,1.824,0
2.293,-1.655,0
2.294,-2.021,0
2.295,-3.12,0
2.296,1.458,0
2.297,10.979,0
2.298,25.994,0
2.299,48.149,0
2.3,56.938,0
2.301,32.769,0
2.302,-2.937,0
2.303,-26.741,0
2.304,-30.952,0
2.305,-34.797,0
2.306,-31.318,0
2.307,-34.431,0
2.308,-37.361,0
2.309,-29.487,0
2.31,-27.107,0
2.311,-24.91,0
2.312,-14.839,0
2.313,-9.346,0
2.314,2.19,0
2.315,3.655,0
2.316,7.683,0
2.317,6.584,0
2.318,5.486,0
2.319,4.57,0
2.32,5.486,0
2.321,6.218,0
2.322,4.021,0
2.323,7.317,0
2.324,9.148,0
2.325,10.796,0
2.326,5.303,0
2.327,4.57,0
2.328,5.12,0
2.329,5.669,0
2.33,7.317,0
2.331,7.683,0
2.332,8.049,0
2.333,6.951,0
2.334,9.514,0
2.335,5.486,0
2.336,6.768,0
2.337,1.641,0
2.338,4.937,0
2.339,5.486,0
2.34,1.641,0
2.341,2.922,0
2.342,2.556,0
2.343,1.458,0
2.344,1.824,0
2.345,0.725,0
2.346,5.669,0
2.347,10.247,0
2.348,20.5,0
2.349,0.908,0
2.35,-6.965,0
2.351,-14.106,0
2.352,-3.12,0
2.353,6.951,0
2.354,30.754,0
2.355,40.276,0
2.356,13.542,0
2.357,-25.825,0
2.358,-41.389,0
2.359,-46.15,0
2.36,-41.938,0
2.361,-38.093,0
2.362,-27.473,0
2.363,-24.36,0
2.364,-21.431,0
2.365,-13.557,0
2.366,-6.416,0
2.367,-8.613,0
2.368,-6.599,0
2.369,-1.106,0
2.37,0.542,0
2.371,2.007,0
2.372,3.289,0
2.373,4.387,0
2.374,5.486,0
2.375,8.416,0
2.376,7.5,0
2.377,9.88,0
2.378,10.613,0
2.379,10.063,0
2.38,8.232,0
2.381,7.683,0
2.382,10.063,0
2.383,6.951,0
2.384,8.049,0
2.385,5.486,0
2.386,5.12,0
2.387,3.655,0
2.388,1.824,0
2.389,5.852,0
2.39,4.204,0
2.391,1.824,0
2.392,3.105,0
2.393,4.204,0
2.394,0.725,0
2.395,2.922,0
2.396,4.021,0
2.397,3.472,0
2.398,1.641,0
2.399,7.134,0
2.4,18.669,0
2.401,36.98,0
2.402,39.36,0
2.403,37.163,0
2.404,19.036,0
2.405,-7.698,0
2.406,-32.6,0
2.407,-35.713,0
2.408,-44.502,0
2.409,-36.628,0
2.41,-34.248,0
2.411,-32.051,0
2.412,-26.008,0
2.413,-16.853,0
2.414,-11.909,0
2.415,-7.515,0
2.416,-6.233,0
2.417,-0.19,0
2.418,0.908,0
2.419,-2.021,0
2.42,0.725,0
2.421,3.105,0
2.422,3.838,0
2.423,8.416,0
2.424,8.965,0
2.425,14.092,0
2.426,13.542,0
2.427,14.092,0
2.428,17.937,0
2.429,21.233,0
2.43,27.275,0
2.431,29.656,0
2.432,28.923,0
2.433,24.346,0
2.434,22.515,0
2.435,17.388,0
2.436,17.937,0
2.437,14.824,0
2.438,6.401,0
2.439,-4.768,0
2.44,-12.275,0
2.441,-19.05,0
2.442,-27.473,0
2.443,-39.924,0
2.444,-41.572,0
2.445,-37.178,0
2.446,-27.656,0
2.447,-24.177,0
2.448,-14.839,0
2.449,-15.937,0
2.45,-20.881,0
2.451,-27.29,0
2.452,-14.839,0
2.453,-31.318,0
2.454,-64.46,0
2.455,-126.53,0
2.456,-134.96,0
2.457,-142.65,0
2.458,-149.6,0
2.459,-155.83,0
2.46,-138.62,0
2.461,-102,0
2.462,-39.924,0
2.463,53.276,0
2.464,115.53,0
2.465,126.7,0
2.466,136.96,0
2.467,108.94,0
2.468,100.52,0
2.469,77.446,0
2.47,70.488,0
2.471,64.263,0
2.472,47.051,0
2.473,52.178,0
2.474,75.981,0
2.475,88.799,0
2.476,100.52,0
2.477,104,0
2.478,100.88,0
2.479,103.81,0
2.48,101.25,0
2.481,103.63,0
2.482,97.039,0
2.483,82.939,0
2.484,66.46,0
2.485,46.501,0
2.486,43.938,0
2.487,36.797,0
2.488,38.994,0
2.489,36.98,0
2.49,27.825,0
2.491,12.81,0
2.492,6.768,0
2.493,-6.05,0
2.494,-17.585,0
2.495,-19.05,0
2.496,-20.332,0
2.497,-31.501,0
2.498,-35.896,0
2.499,-38.276,0
2.5,-36.995,0
2.501,-23.445,0
2.502,-14.29,0
2.503,0.725,0
2.504,-1.289,0
2.505,-28.755,0
2.506,-64.277,0
2.507,-78.56,0
2.508,-91.377,0
2.509,-87.532,0
2.51,-91.011,0
2.511,-81.489,0
2.512,-78.56,0
2.513,-70.686,0
2.514,-63.545,0
2.515,-56.953,0
2.516,-42.854,0
2.517,-37.361,0
2.518,-35.713,0
2.519,-31.318,0
2.52,-24.543,0
2.521,-16.121,0
2.522,-15.022,0
2.523,-12.092,0
2.524,-7.515,0
2.525,-6.782,0
2.526,-4.585,0
2.527,-4.036,0
2.528,-2.205,0
2.529,-2.754,0
2.53,0.542,0
2.531,3.655,0
2.532,9.148,0
2.533,9.88,0
2.534,8.049,0
2.535,6.218,0
2.536,6.768,0
2.537,5.486,0
2.538,7.683,0
2.539,9.697,0
2.54,10.063,0
2.541,4.57,0
2.542,9.88,0
2.543,5.303,0
2.544,5.852,0
2.545,6.401,0
2.546,9.697,0
2.547,9.331,0
2.548,9.697,0
2.549,10.063,0
2.55,12.993,0
2.551,11.162,0
2.552,15.74,0
2.553,25.994,0
2.554,39.543,0
2.555,45.037,0
2.556,43.389,0
2.557,38.994,0
2.558,43.022,0
2.559,31.853,0
2.56,9.331,0
2.561,-39.375,0
2.562,-46.333,0
2.563,-40.107,0
2.564,-45.784,0
2.565,-40.657,0
2.566,-26.375,0
2.567,-22.163,0
2.568,-18.318,0
2.569,-14.839,0
2.57,-11.726,0
2.571,-2.937,0
2.572,-5.5,0
2.573,1.641,0
2.574,8.232,0
2.575,10.247,0
2.576,4.753,0
2.577,6.401,0
2.578,10.796,0
2.579,12.078,0
2.58,10.979,0
2.581,12.078,0
2.582,12.993,0
2.583,13.909,0
2.584,11.528,0
2.585,9.331,0
2.586,8.782,0
2.587,8.232,0
2.588,12.078,0
2.589,9.697,0
2.59,8.416,0
2.591,7.317,0
2.592,12.993,0
2.593,25.444,0
2.594,23.613,0
2.595,2.007,0
2.596,-0.923,0
2.597,-8.796,0
2.598,-6.416,0
2.599,-4.219,0
2.6,-6.233,0
2.601,-4.585,0
2.602,-2.754,0
2.603,2.19,0
2.604,15.74,0
2.605,32.219,0
2.606,38.811,0
2.607,48.882,0
2.608,32.402,0
2.609,-0.74,0
2.61,-34.065,0
2.611,-38.276,0
2.612,-42.122,0
2.613,-38.643,0
2.614,-35.53,0
2.615,-26.741,0
2.616,-24.177,0
2.617,-17.036,0
2.618,-14.839,0
2.619,-12.825,0
2.62,-7.332,0
2.621,-2.388,0
2.622,2.007,0
2.623,-2.021,0
2.624,-0.923,0
2.625,4.753,0
2.626,3.838,0
2.627,6.584,0
2.628,5.852,0
2.629,11.162,0
2.63,6.584,0
2.631,8.416,0
2.632,10.063,0
2.633,10.43,0
2.634,6.218,0
2.635,5.669,0
2.636,6.035,0
2.637,0.908,0
2.638,4.204,0
2.639,6.035,0
2.64,4.387,0
2.641,3.105,0
2.642,4.387,0
2.643,1.641,0
2.644,0.542,0
2.645,-2.021,0
2.646,2.007,0
2.647,-0.74,0
2.648,2.556,0
2.649,2.922,0
2.65,0.908,0
2.651,0.542,0
2.652,-0.19,0
2.653,1.641,0
2.654,6.218,0
2.655,16.472,0
2.656,23.979,0
2.657,44.487,0
2.658,53.276,0
2.659,18.303,0
2.66,-15.022,0
2.661,-36.628,0
2.662,-32.783,0
2.663,-36.262,0
2.664,-39.375,0
2.665,-30.586,0
2.666,-28.022,0
2.667,-20.881,0
2.668,-18.684,0
2.669,-16.67,0
2.67,-14.839,0
2.671,-9.895,0
2.672,-5.5,0
2.673,-1.472,0
2.674,2.007,0
2.675,5.303,0
2.676,2.373,0
2.677,1.458,0
2.678,5.486,0
2.679,7.683,0
2.68,5.852,0
2.681,8.965,0
2.682,8.416,0
2.683,10.796,0
2.684,10.43,0
2.685,5.852,0
2.686,2.739,0
2.687,5.486,0
2.688,3.105,0
2.689,5.303,0
2.69,2.556,0
2.691,2.19,0
2.692,4.021,0
2.693,2.556,0
2.694,3.289,0
2.695,1.458,0
2.696,3.655,0
2.697,4.937,0
2.698,1.458,0
2.699,1.824,0
2.7,6.401,0
2.701,5.852,0
2.702,4.204,0
2.703,-1.655,0
2.704,1.641,0
2.705,1.274,0
2.706,7.5,0
2.707,21.416,0
2.708,39.543,0
2.709,37.163,0
2.71,34.966,0
2.711,36.98,0
2.712,9.514,0
2.713,-26.008,0
2.714,-40.291,0
2.715,-44.502,0
2.716,-48.347,0
2.717,-44.868,0
2.718,-41.755,0
2.719,-32.966,0
2.72,-30.403,0
2.721,-23.262,0
2.722,-16.67,0
2.723,-10.627,0
2.724,-8.796,0
2.725,-7.148,0
2.726,-5.684,0
2.727,-1.655,0
2.728,4.387,0
2.729,5.486,0
2.73,10.43,0
2.731,7.683,0
2.732,11.711,0
2.733,10.979,0
2.734,12.81,0
2.735,10.979,0
2.736,9.331,0
2.737,8.049,0
2.738,10.247,0
2.739,7.5,0
2.74,4.021,0
2.741,6.218,0
2.742,3.472,0
2.743,2.373,0
2.744,5.669,0
2.745,4.57,0
2.746,4.204,0
2.747,0.908,0
2.748,3.655,0
2.749,4.021,0
2.75,2.922,0
2.751,3.655,0
2.752,-0.007,0
2.753,1.274,0
2.754,2.007,0
2.755,4.204,0
2.756,10.43,0
2.757,18.853,0
2.758,35.881,0
2.759,28.74,0
2.76,39.727,0
2.761,45.769,0
2.762,21.965,0
2.763,-13.74,0
2.764,-37.544,0
2.765,-41.755,0
2.766,-37.91,0
2.767,-41.389,0
2.768,-38.276,0
2.769,-29.487,0
2.77,-26.924,0
2.771,-19.783,0
2.772,-17.585,0
2.773,-7.515,0
2.774,-5.684,0
2.775,-4.036,0
2.776,-2.571,0
2.777,-1.289,0
2.778,2.19,0
2.779,3.289,0
2.78,4.204,0
2.781,8.782,0
2.782,9.514,0
2.783,8.782,0
2.784,9.331,0
2.785,3.655,0
2.786,7.5,0
2.787,5.669,0
2.788,2.556,0
2.789,3.105,0
2.79,4.387,0
2.791,8.599,0
2.792,8.049,0
2.793,2.556,0
2.794,-1.289,0
2.795,0.542,0
2.796,2.373,0
2.797,4.021,0
2.798,5.303,0
2.799,4.937,0
2.8,2.922,0
2.801,-0.557,0
2.802,-1.838,0
2.803,0.176,0
2.804,-2.388,0
2.805,-1.655,0
2.806,-0.557,0
2.807,4.021,0
2.808,14.275,0
2.809,36.797,0
2.81,46.318,0
2.811,19.585,0
2.812,-12.642,0
2.813,-25.459,0
2.814,-29.304,0
2.815,-32.783,0
2.816,-23.262,0
2.817,-26.191,0
2.818,-23.628,0
2.819,-16.487,0
2.82,-14.29,0
2.821,-8.247,0
2.822,-10.078,0
2.823,-5.134,0
2.824,-6.599,0
2.825,-2.571,0
2.826,-1.472,0
2.827,-2.571,0
2.828,-5.5,0
2.829,2.922,0
2.83,4.021,0
2.831,6.951,0
2.832,7.866,0
2.833,8.599,0
2.834,9.331,0
2.835,3.105,0
2.836,3.838,0
2.837,3.105,0
2.838,13.359,0
2.839,23.796,0
2.84,17.021,0
2.841,3.472,0
2.842,-5.684,0
2.843,-10.627,0
2.844,-12.092,0
2.845,-8.064,0
2.846,-6.965,0
2.847,-3.669,0
2.848,-0.74,0
2.849,-3.486,0
2.85,-1.106,0
2.851,-0.374,0
2.852,-2.205,0
2.853,-2.754,0
2.854,-1.106,0
2.855,2.19,0
2.856,2.739,0
2.857,2.373,0
2.858,8.599,0
2.859,22.515,0
2.86,40.642,0
2.861,57.488,0
2.862,33.135,0
2.863,3.838,0
2.864,-15.754,0
2.865,-26.375,0
2.866,-29.487,0
2.867,-26.558,0
2.868,-23.994,0
2.869,-21.614,0
2.87,-23.811,0
2.871,-21.797,0
2.872,-16.304,0
2.873,-8.064,0
2.874,-12.458,0
2.875,-5.684,0
2.876,-4.585,0
2.877,-1.289,0
2.878,1.641,0
2.879,2.556,0
2.88,3.289,0
2.881,8.599,0
2.882,9.148,0
2.883,10.979,0
2.884,7.134,0
2.885,3.838,0
2.886,1.641,0
2.887,2.739,0
2.888,6.951,0
2.889,3.105,0
2.89,3.472,0
2.891,3.838,0
2.892,4.937,0
2.893,0.725,0
2.894,2.373,0
2.895,3.655,0
2.896,2.373,0
2.897,3.472,0
2.898,6.035,0
2.899,4.937,0
2.9,5.12,0
2.901,1.458,0
2.902,2.739,0
2.903,-0.374,0
2.904,2.373,0
2.905,1.274,0
2.906,-0.557,0
2.907,-0.19,0
2.908,1.274,0
2.909,5.486,0
2.91,15.007,0
2.911,35.515,0
2.912,50.347,0
2.913,47.783,0
2.914,16.106,0
2.915,-14.106,0
2.916,-25.825,0
2.917,-36.445,0
2.918,-39.558,0
2.919,-36.628,0
2.92,-34.065,0
2.921,-26.924,0
2.922,-24.727,0
2.923,-14.656,0
2.924,-12.825,0
2.925,-4.585,0
2.926,-8.979,0
2.927,-4.951,0
2.928,-1.472,0
2.929,-0.374,0
2.93,-1.289,0
2.931,5.12,0
2.932,4.387,0
2.933,8.232,0
2.934,6.401,0
2.935,4.57,0
2.936,6.218,0
2.937,7.5,0
2.938,6.218,0
2.939,6.584,0
2.94,6.951,0
2.941,5.12,0
2.942,6.584,0
2.943,2.373,0
2.944,2.922,0
2.945,4.57,0
2.946,4.937,0
2.947,5.303,0
2.948,4.937,0
2.949,5.303,0
2.95,2.007,0
2.951,2.373,0
2.952,-0.19,0
2.953,1.641,0
2.954,0.908,0
2.955,-0.374,0
2.956,0.359,0
2.957,0.542,0
2.958,2.739,0
2.959,-0.557,0
2.96,-1.838,0
2.961,4.387,0
2.962,18.303,0
2.963,48.516,0
2.964,44.304,0
2.965,48.149,0
2.966,15.923,0
2.967,-23.079,0
2.968,-38.643,0
2.969,-43.403,0
2.97,-39.192,0
2.971,-35.347,0
2.972,-31.868,0
2.973,-28.755,0
2.974,-25.825,0
2.975,-17.952,0
2.976,-15.571,0
2.977,-8.979,0
2.978,-6.965,0
2.979,-1.472,0
2.98,0.176,0
2.981,4.57,0
2.982,5.852,0
2.983,11.895,0
2.984,8.599,0
2.985,7.683,0
2.986,4.937,0
2.987,7.317,0
2.988,3.472,0
2.989,6.768,0
2.99,6.218,0
2.991,4.57,0
2.992,3.289,0
2.993,7.5,0
2.994,8.049,0
2.995,5.669,0
2.996,6.035,0
2.997,7.134,0
2.998,4.57,0
2.999,4.204,0
3,7.5,0
3.001,6.218,0
3.002,1.641,0
3.003,2.19,0
3.004,-0.557,0
3.005,2.739,0
3.006,0.542,0
3.007,-0.557,0
3.008,2.922,0
3.009,-2.388,0
3.01,-2.021,0
3.011,4.204,0
3.012,18.12,0
3.013,40.276,0
3.014,49.065,0
3.015,51.628,0
3.016,29.656,0
3.017,-14.839,0
3.018,-33.699,0
3.019,-39.375,0
3.02,-44.502,0
3.021,-39.741,0
3.022,-35.53,0
3.023,-31.685,0
3.024,-21.064,0
3.025,-17.952,0
3.026,-15.022,0
3.027,-12.458,0
3.028,-10.078,0
3.029,-3.486,0
3.03,2.556,0
3.031,4.387,0
3.032,2.739,0
3.033,4.204,0
3.034,5.486,0
3.035,2.007,0
3.036,-1.289,0
3.037,5.669,0
3.038,1.091,0
3.039,5.12,0
3.04,8.965,0
3.041,9.514,0
3.042,7.683,0
3.043,6.035,0
3.044,9.331,0
3.045,10.613,0
3.046,6.768,0
3.047,6.401,0
3.048,6.035,0
3.049,6.401,0
3.05,6.768,0
3.051,6.401,0
3.052,4.937,0
3.053,3.655,0
3.054,1.274,0
3.055,1.458,0
3.056,1.274,0
3.057,4.204,0
3.058,4.57,0
3.059,2.007,0
3.06,2.739,0
3.061,1.274,0
3.062,5.486,0
3.063,15.007,0
3.064,35.515,0
3.065,50.347,0
3.066,42.473,0
3.067,30.388,0
3.068,36.98,0
3.069,30.938,0
3.07,25.444,0
3.071,0.542,0
3.072,-45.967,0
3.073,-52.192,0
3.074,-57.869,0
3.075,-52.742,0
3.076,-57.502,0
3.077,-44.685,0
3.078,-32.966,0
3.079,-29.487,0
3.08,-19.966,0
3.081,-17.036,0
3.082,-9.163,0
3.083,-6.782,0
3.084,21.965,0
3.085,33.684,0
3.086,8.782,0
3.087,5.669,0
3.088,-3.12,0
3.089,-5.684,0
3.09,-3.303,0
3.091,-1.106,0
3.092,0.908,0
3.093,-0.923,0
3.094,0.725,0
3.095,2.19,0
3.096,6.218,0
3.097,7.317,0
3.098,6.218,0
3.099,9.148,0
3.1,8.232,0
3.101,12.261,0
3.102,5.303,0
3.103,6.218,0
3.104,10.247,0
3.105,6.401,0
3.106,6.951,0
3.107,10.063,0
3.108,9.514,0
3.109,2.922,0
3.11,3.838,0
3.111,3.472,0
3.112,7.5,0
3.113,15.923,0
3.114,32.952,0
3.115,49.797,0
3.116,51.995,0
3.117,33.867,0
3.118,2.19,0
3.119,-28.022,0
3.12,-31.868,0
3.121,-35.347,0
3.122,-32.234,0
3.123,-35.164,0
3.124,-27.29,0
3.125,-20.149,0
3.126,-17.952,0
3.127,-15.937,0
3.128,-14.106,0
3.129,-9.163,0
3.13,-1.655,0
3.131,-0.374,0
3.132,5.669,0
3.133,2.373,0
3.134,5.303,0
3.135,2.556,0
3.136,1.824,0
3.137,4.021,0
3.138,3.472,0
3.139,4.021,0
3.14,2.373,0
3.141,6.951,0
3.142,2.556,0
3.143,3.105,0
3.144,3.472,0
3.145,3.838,0
3.146,4.937,0
3.147,6.768,0
3.148,5.669,0
3.149,8.965,0
3.15,11.162,0
3.151,15.74,0
3.152,13.909,0
3.153,17.754,0
3.154,19.036,0
3.155,22.148,0
3.156,24.895,0
3.157,24.529,0
3.158,24.163,0
3.159,20.867,0
3.16,15.74,0
3.161,16.289,0
3.162,9.331,0
3.163,9.88,0
3.164,12.627,0
3.165,12.261,0
3.166,19.219,0
3.167,26.177,0
3.168,12.261,0
3.169,-17.952,0
3.17,-65.559,0
3.171,-71.785,0
3.172,-54.573,0
3.173,-59.7,0
3.174,-73.982,0
3.175,-78.193,0
3.176,-97.786,0
3.177,-115.55,0
3.178,-125.07,0
3.179,-128,0
3.18,-130.56,0
3.181,-142.65,0
3.182,-140.45,0
3.183,-138.44,0
3.184,-125.62,0
3.185,-117.38,0
3.186,-100.9,0
3.187,-67.756,0
3.188,3.838,0
3.189,96.306,0
3.19,133.66,0
3.191,167.35,0
3.192,157.1,0
3.193,129.08,0
3.194,120.66,0
3.195,112.97,0
3.196,92.095,0
3.197,98.32,0
3.198,104,0
3.199,119.56,0
3.2,152.89,0
3.201,157.1,0
3.202,153.25,0
3.203,149.77,0
3.204,133.66,0
3.205,124.87,0
3.206,122.31,0
3.207,95.574,0
3.208,77.813,0
3.209,55.291,0
3.21,40.459,0
3.211,32.585,0
3.212,25.444,0
3.213,21.782,0
3.214,10.796,0
3.215,12.81,0
3.216,18.303,0
3.217,23.247,0
3.218,21.782,0
3.219,9.514,0
3.22,-8.796,0
3.221,-45.234,0
3.222,-71.418,0
3.223,-85.701,0
3.224,-89.912,0
3.225,-93.757,0
3.226,-97.236,0
3.227,-87.715,0
3.228,-84.785,0
3.229,-87.349,0
3.23,-84.968,0
3.231,-78.376,0
3.232,-72.334,0
3.233,-70.503,0
3.234,-68.855,0
3.235,-64.46,0
3.236,-54.939,0
3.237,-51.46,0
3.238,-48.164,0
3.239,-41.206,0
3.24,-40.291,0
3.241,-31.135,0
3.242,-27.656,0
3.243,-24.36,0
3.244,-21.431,0
3.245,-16.853,0
3.246,-17.585,0
3.247,-12.275,0
3.248,-7.698,0
3.249,-2.021,0
3.25,-1.289,0
3.251,3.289,0
3.252,0.176,0
3.253,1.824,0
3.254,-0.557,0
3.255,4.57,0
3.256,4.021,0
3.257,4.57,0
3.258,7.317,0
3.259,7.683,0
3.26,3.472,0
3.261,7.317,0
3.262,9.697,0
3.263,10.979,0
3.264,10.796,0
3.265,11.895,0
3.266,17.571,0
3.267,30.022,0
3.268,46.501,0
3.269,53.093,0
3.27,63.164,0
3.271,35.698,0
3.272,0.176,0
3.273,-23.628,0
3.274,-27.839,0
3.275,-31.685,0
3.276,-28.206,0
3.277,-25.093,0
3.278,-22.163,0
3.279,-19.6,0
3.28,-12.458,0
3.281,-5.867,0
3.282,-3.853,0
3.283,-2.021,0
3.284,2.922,0
3.285,4.387,0
3.286,5.669,0
3.287,6.768,0
3.288,5.669,0
3.289,8.599,0
3.29,9.514,0
3.291,13.542,0
3.292,14.275,0
3.293,9.697,0
3.294,11.528,0
3.295,12.078,0
3.296,12.444,0
3.297,12.81,0
3.298,8.965,0
3.299,13.542,0
3.3,9.148,0
3.301,5.303,0
3.302,4.021,0
3.303,10.063,0
3.304,7.683,0
3.305,6.951,0
3.306,3.655,0
3.307,5.486,0
3.308,3.838,0
3.309,4.204,0
3.31,-0.923,0
3.311,2.373,0
3.312,2.922,0
3.313,5.669,0
3.314,1.091,0
3.315,6.401,0
3.316,4.57,0
3.317,8.416,0
3.318,15.923,0
3.319,32.952,0
3.32,54.924,0
3.321,28.191,0
3.322,-11.177,0
3.323,-26.741,0
3.324,-31.501,0
3.325,-35.713,0
3.326,-31.868,0
3.327,-28.389,0
3.328,-25.276,0
3.329,-10.444,0
3.33,13.726,0
3.331,16.838,0
3.332,2.007,0
3.333,-11.36,0
3.334,-8.979,0
3.335,-11.177,0
3.336,-9.163,0
3.337,-10.994,0
3.338,-6.05,0
3.339,-4.585,0
3.34,-3.303,0
3.341,-2.205,0
3.342,3.472,0
3.343,0.542,0
3.344,-2.205,0
3.345,1.824,0
3.346,2.556,0
3.347,7.134,0
3.348,7.683,0
3.349,10.43,0
3.35,10.063,0
3.351,4.937,0
3.352,5.486,0
3.353,3.655,0
3.354,4.204,0
3.355,3.838,0
3.356,5.12,0
3.357,2.373,0
3.358,1.274,0
3.359,3.105,0
3.36,2.373,0
3.361,3.655,0
3.362,0.725,0
3.363,4.204,0
3.364,4.57,0
3.365,3.472,0
3.366,5.669,0
3.367,1.458,0
3.368,9.88,0
3.369,23.43,0
3.37,36.248,0
3.371,51.262,0
3.372,45.22,0
3.373,17.754,0
3.374,-17.769,0
3.375,-32.051,0
3.376,-36.262,0
3.377,-40.107,0
3.378,-36.628,0
3.379,-33.516,0
3.38,-24.727,0
3.381,-16.853,0
3.382,-14.473,0
3.383,-12.275,0
3.384,-6.233,0
3.385,-8.064,0
3.386,-3.12,0
3.387,1.274,0
3.388,-0.007,0
3.389,-1.106,0
3.39,2.19,0
3.391,5.12,0
3.392,4.204,0
3.393,4.937,0
3.394,5.669,0
3.395,6.218,0
3.396,6.768,0
3.397,10.613,0
3.398,9.331,0
3.399,8.049,0
3.4,8.416,0
3.401,3.472,0
3.402,5.303,0
3.403,4.753,0
3.404,3.105,0
3.405,1.824,0
3.406,1.458,0
3.407,3.472,0
3.408,0.908,0
3.409,2.739,0
3.41,-0.557,0
3.411,1.641,0
3.412,2.739,0
3.413,3.105,0
3.414,2.739,0
3.415,4.204,0
3.416,1.091,0
3.417,4.937,0
3.418,2.19,0
3.419,7.866,0
3.42,20.317,0
3.421,40.459,0
3.422,48.333,0
3.423,50.713,0
3.424,39.727,0
3.425,13.542,0
3.426,2.922,0
3.427,12.444,0
3.428,9.514,0
3.429,-14.656,0
3.43,-43.953,0
3.431,-63.545,0
3.432,-60.066,0
3.433,-56.953,0
3.434,-48.164,0
3.435,-40.291,0
3.436,-37.91,0
3.437,-26.924,0
3.438,-20.881,0
3.439,-15.388,0
3.44,-7.148,0
3.441,-5.684,0
3.442,1.091,0
3.443,4.57,0
3.444,5.669,0
3.445,10.613,0
3.446,13.359,0
3.447,12.627,0
3.448,14.824,0
3.449,18.12,0
3.45,15.007,0
3.451,15.557,0
3.452,12.261,0
3.453,10.063,0
3.454,12.078,0
3.455,10.247,0
3.456,11.345,0
3.457,10.613,0
3.458,8.049,0
3.459,6.951,0
3.46,5.486,0
3.461,7.317,0
3.462,4.387,0
3.463,5.486,0
3.464,5.852,0
3.465,7.317,0
3.466,4.204,0
3.467,5.303,0
3.468,4.937,0
3.469,2.373,0
3.47,7.866,0
3.471,19.402,0
3.472,27.642,0
3.473,50.164,0
3.474,53.276,0
3.475,26.543,0
3.476,-12.825,0
3.477,-28.389,0
3.478,-42.671,0
3.479,-38.459,0
3.48,-42.305,0
3.481,-31.685,0
3.482,-28.572,0
3.483,-19.783,0
3.484,-17.219,0
3.485,-14.839,0
3.486,-12.642,0
3.487,-10.627,0
3.488,-5.134,0
3.489,-0.19,0
3.49,1.274,0
3.491,2.556,0
3.492,3.655,0
3.493,2.556,0
3.494,3.472,0
3.495,8.049,0
3.496,10.43,0
3.497,12.627,0
3.498,10.796,0
3.499,7.683,0
3.5,11.528,0
3.501,6.035,0
3.502,0.725,0
3.503,5.303,0
3.504,5.852,0
3.505,3.105,0
3.506,1.824,0
3.507,6.035,0
3.508,4.387,0
3.509,3.105,0
3.51,-2.021,0
3.511,-2.571,0
3.512,-2.021,0
3.513,1.824,0
3.514,-0.557,0
3.515,4.57,0
3.516,2.739,0
3.517,0.908,0
3.518,-2.937,0
3.519,-3.853,0
3.52,-0.557,0
3.521,6.401,0
3.522,21.599,0
3.523,50.347,0
3.524,46.501,0
3.525,21.599,0
3.526,-14.106,0
3.527,-28.389,0
3.528,-32.6,0
3.529,-28.755,0
3.53,-25.276,0
3.531,-22.163,0
3.532,-19.233,0
3.533,-21.797,0
3.534,-14.656,0
3.535,-16.853,0
3.536,-10.811,0
3.537,-5.317,0
3.538,-6.965,0
3.539,-2.571,0
3.54,1.458,0
3.541,0.359,0
3.542,1.458,0
3.543,-1.472,0
3.544,-0.557,0
3.545,3.472,0
3.546,7.317,0
3.547,5.486,0
3.548,7.317,0
3.549,11.162,0
3.55,9.88,0
3.551,4.753,0
3.552,2.922,0
3.553,2.373,0
3.554,1.824,0
3.555,4.204,0
3.556,1.091,0
3.557,-0.923,0
3.558,3.289,0
3.559,1.641,0
3.56,0.359,0
3.561,0.725,0
3.562,0.359,0
3.563,1.458,0
3.564,-0.374,0
3.565,-0.19,0
3.566,0.542,0
3.567,1.274,0
3.568,-2.205,0
3.569,-2.571,0
3.57,-0.19,0
3.571,1.091,0
3.572,-1.655,0
3.573,0.908,0
3.574,1.274,0
3.575,5.852,0
3.576,16.106,0
3.577,20.5,0
3.578,-0.007,0
3.579,2.922,0
3.58,37.896,0
3.581,42.656,0
3.582,38.445,0
3.583,18.853,0
3.584,-20.515,0
3.585,-36.079,0
3.586,-40.84,0
3.587,-36.628,0
3.588,-40.474,0
3.589,-29.854,0
3.59,-26.741,0
3.591,-23.811,0
3.592,-15.937,0
3.593,-8.796,0
3.594,-10.994,0
3.595,-4.951,0
3.596,0.542,0
3.597,2.19,0
3.598,0.725,0
3.599,4.753,0
3.6,5.852,0
3.601,4.753,0
3.602,7.683,0
3.603,8.599,0
3.604,7.866,0
3.605,8.599,0
3.606,8.049,0
3.607,4.937,0
3.608,8.782,0
3.609,3.289,0
3.61,7.134,0
3.611,6.584,0
3.612,6.035,0
3.613,4.387,0
3.614,6.768,0
3.615,5.486,0
3.616,5.852,0
3.617,4.021,0
3.618,3.655,0
3.619,0.359,0
3.62,1.641,0
3.621,2.739,0
3.622,1.641,0
3.623,7.317,0
3.624,19.768,0
3.625,43.572,0
3.626,53.093,0
3.627,50.164,0
3.628,15.19,0
3.629,-18.135,0
3.63,-30.952,0
3.631,-34.797,0
3.632,-31.318,0
3.633,-34.431,0
3.634,-31.501,0
3.635,-28.938,0
3.636,-26.558,0
3.637,-15.571,0
3.638,-9.529,0
3.639,-7.698,0
3.64,-6.05,0
3.641,-4.585,0
3.642,-0.557,0
3.643,-4.036,0
3.644,-0.74,0
3.645,2.19,0
3.646,4.937,0
3.647,5.669,0
3.648,7.866,0
3.649,6.035,0
3.65,7.866,0
3.651,5.12,0
3.652,4.753,0
3.653,6.951,0
3.654,7.317,0
3.655,3.838,0
3.656,6.035,0
3.657,5.669,0
3.658,4.57,0
3.659,2.007,0
3.66,0.542,0
3.661,2.373,0
3.662,3.655,0
3.663,2.556,0
3.664,5.852,0
3.665,3.655,0
3.666,4.021,0
3.667,3.655,0
3.668,2.556,0
3.669,1.091,0
3.67,-2.571,0
3.671,-0.19,0
3.672,-0.19,0
3.673,-2.388,0
3.674,3.838,0
3.675,17.754,0
3.676,35.881,0
3.677,38.262,0
3.678,53.643,0
3.679,23.43,0
3.68,-6.782,0
3.681,-34.248,0
3.682,-37.727,0
3.683,-40.84,0
3.684,-37.91,0
3.685,-35.347,0
3.686,-28.206,0
3.687,-26.008,0
3.688,-19.966,0
3.689,-14.473,0
3.69,-16.121,0
3.691,-5.684,0
3.692,-4.402,0
3.693,-5.5,0
3.694,-2.205,0
3.695,0.725,0
3.696,3.472,0
3.697,4.204,0
3.698,6.401,0
3.699,8.232,0
3.7,8.782,0
3.701,6.035,0
3.702,5.669,0
3.703,6.035,0
3.704,8.049,0
3.705,4.57,0
3.706,4.937,0
3.707,3.838,0
3.708,8.049,0
3.709,2.922,0
3.71,2.373,0
3.711,2.922,0
3.712,2.373,0
3.713,2.007,0
3.714,5.12,0
3.715,7.134,0
3.716,5.303,0
3.717,7.866,0
3.718,3.289,0
3.719,2.739,0
3.72,2.19,0
3.721,3.838,0
3.722,0.542,0
3.723,1.274,0
3.724,-1.838,0
3.725,4.387,0
3.726,18.303,0
3.727,36.431,0
3.728,53.276,0
3.729,37.896,0
3.73,7.683,0
3.731,-22.529,0
3.732,-26.375,0
3.733,-29.854,0
3.734,-32.966,0
3.735,-35.896,0
3.736,-33.333,0
3.737,-21.248,0
3.738,-23.445,0
3.739,-17.402,0
3.74,-11.909,0
3.741,-10.261,0
3.742,-8.796,0
3.743,-4.768,0
3.744,-1.289,0
3.745,2.007,0
3.746,2.922,0
3.747,5.669,0
3.748,8.049,0
3.749,8.782,0
3.75,8.232,0
3.751,5.12,0
3.752,4.57,0
3.753,5.852,0
3.754,6.218,0
3.755,2.373,0
3.756,2.739,0
3.757,5.852,0
3.758,3.105,0
3.759,4.204,0
3.76,2.373,0
3.761,1.641,0
3.762,4.204,0
3.763,3.105,0
3.764,2.922,0
3.765,3.655,0
3.766,5.486,0
3.767,4.021,0
3.768,1.091,0
3.769,-2.388,0
3.77,-2.021,0
3.771,-0.923,0
3.772,1.641,0
3.773,0.542,0
3.774,-0.19,0
3.775,-1.655,0
3.776,2.556,0
3.777,12.078,0
3.778,32.585,0
3.779,59.319,0
3.78,48.699,0
3.781,12.993,0
3.782,-20.332,0
3.783,-24.543,0
3.784,-36.262,0
3.785,-39.741,0
3.786,-36.628,0
3.787,-33.699,0
3.788,-25.825,0
3.789,-23.445,0
3.79,-16.853,0
3.791,-14.839,0
3.792,-9.346,0
3.793,-1.106,0
3.794,0.359,0
3.795,1.641,0
3.796,2.739,0
3.797,3.838,0
3.798,6.768,0
3.799,11.345,0
3.8,7.317,0
3.801,6.584,0
3.802,7.134,0
3.803,6.584,0
3.804,1.458,0
3.805,6.035,0
3.806,7.866,0
3.807,8.416,0
3.808,8.049,0
3.809,6.768,0
3.81,4.021,0
3.811,4.387,0
3.812,6.951,0
3.813,6.218,0
3.814,9.331,0
3.815,7.317,0
3.816,6.218,0
3.817,3.655,0
3.818,0.359,0
3.819,1.641,0
3.82,2.007,0
3.821,7.683,0
3.822,15.19,0
3.823,12.261,0
3.824,-1.655,0
3.825,-11.909,0
3.826,-13.923,0
3.827,-15.754,0
3.828,-0.74,0
3.829,25.444,0
3.83,43.206,0
3.831,40.093,0
3.832,1.458,0
3.833,-24.727,0
3.834,-29.487,0
3.835,-33.699,0
3.836,-37.544,0
3.837,-34.065,0
3.838,-30.952,0
3.839,-22.163,0
3.84,-19.6,0
3.841,-17.219,0
3.842,-15.022,0
3.843,-8.979,0
3.844,-7.148,0
3.845,1.091,0
3.846,2.556,0
3.847,1.274,0
3.848,4.753,0
3.849,8.049,0
3.85,7.134,0
3.851,6.218,0
3.852,6.951,0
3.853,7.683,0
3.854,8.232,0
3.855,7.683,0
3.856,6.035,0
3.857,4.753,0
3.858,5.12,0
3.859,2.373,0
3.86,4.937,0
3.861,6.035,0
3.862,6.218,0
3.863,4.387,0
3.864,4.204,0
3.865,5.669,0
3.866,5.12,0
3.867,2.556,0
3.868,4.387,0
3.869,1.091,0
3.87,-0.19,0
3.871,1.824,0
3.872,-0.74,0
3.873,1.824,0
3.874,1.091,0
3.875,-0.19,0
3.876,-2.388,0
3.877,-1.106,0
3.878,2.373,0
3.879,9.88,0
3.88,26.909,0
3.881,58.586,0
3.882,36.98,0
3.883,1.458,0
3.884,-22.346,0
3.885,-26.558,0
3.886,-30.403,0
3.887,-33.882,0
3.888,-30.769,0
3.889,-27.839,0
3.89,-25.276,0
3.891,-18.135,0
3.892,-15.937,0
3.893,-9.895,0
3.894,-8.064,0
3.895,-3.12,0
3.896,-1.655,0
3.897,-0.374,0
3.898,3.105,0
3.899,8.782,0
3.9,11.711,0
3.901,12.627,0
3.902,16.655,0
3.903,20.5,0
3.904,23.796,0
3.905,23.247,0
3.906,29.473,0
3.907,30.205,0
3.908,28.008,0
3.909,21.782,0
3.91,19.402,0
3.911,14.092,0
3.912,14.641,0
3.913,11.528,0
3.914,3.105,0
3.915,-13.008,0
3.916,-15.205,0
3.917,-25.276,0
3.918,-38.093,0
3.919,-43.037,0
3.92,-35.53,0
3.921,-23.262,0
3.922,-15.022,0
3.923,-22.529,0
3.924,-40.291,0
3.925,-52.375,0
3.926,-72.334,0
3.927,-95.405,0
3.928,-103.28,0
3.929,-96.138,0
3.93,-98.335,0
3.931,-92.292,0
3.932,-83.137,0
3.933,-94.673,0
3.934,-117.19,0
3.935,-139.72,0
3.936,-130.93,0
3.937,-90.645,0
3.938,-4.036,0
3.939,58.22,0
3.94,91.912,0
3.941,122.67,0
3.942,113.33,0
3.943,104.91,0
3.944,97.222,0
3.945,90.264,0
3.946,84.038,0
3.947,101.25,0
3.948,116.81,0
3.949,140.62,0
3.95,162.22,0
3.951,158.38,0
3.952,161.86,0
3.953,152.34,0
3.954,137.5,0
3.955,134.94,0
3.956,118.1,0
3.957,89.348,0
3.958,61.882,0
3.959,51.262,0
3.96,35.149,0
3.961,32.219,0
3.962,29.656,0
3.963,22.515,0
3.964,11.528,0
3.965,5.486,0
3.966,-7.332,0
3.967,-12.275,0
3.968,-19.783,0
3.969,-26.558,0
3.97,-34.98,0
3.971,-42.854,0
3.972,-45.784,0
3.973,-50.361,0
3.974,-52.742,0
3.975,-56.587,0
3.976,-61.165,0
3.977,-59.333,0
3.978,-59.517,0
3.979,-64.644,0
3.98,-54.39,0
3.981,-43.953,0
3.982,-23.445,0
3.983,-8.613,0
3.984,-32.783,0
3.985,-62.08,0
3.986,-81.672,0
3.987,-85.151,0
3.988,-88.264,0
3.989,-79.475,0
3.99,-71.602,0
3.991,-59.517,0
3.992,-57.319,0
3.993,-47.249,0
3.994,-38.093,0
3.995,-29.854,0
3.996,-19.417,0
3.997,-15.388,0
3.998,-11.909,0
3.999,-8.613,0
4,-3.669,0
4.001,-2.754,0
4.002,-0.374,0
4.003,4.937,0
4.004,6.768,0
4.005,6.218,0
4.006,10.063,0
4.007,10.43,0
4.008,10.063,0
4.009,7.317,0
4.01,11.528,0
4.011,12.078,0
4.012,16.655,0
4.013,10.979,0
4.014,10.247,0
4.015,10.796,0
4.016,12.627,0
4.017,14.275,0
4.018,12.993,0
4.019,9.88,0
4.02,8.782,0
4.021,6.951,0
4.022,6.584,0
4.023,9.331,0
4.024,11.895,0
4.025,7.134,0
4.026,5.303,0
4.027,6.951,0
4.028,8.232,0
4.029,11.528,0
4.03,11.162,0
4.031,17.388,0
4.032,21.965,0
4.033,34.417,0
4.034,61.882,0
4.035,34.417,0
4.036,2.19,0
4.037,-19.417,0
4.038,-23.262,0
4.039,-26.741,0
4.04,-29.854,0
4.041,-21.064,0
4.042,-23.628,0
4.043,-16.487,0
4.044,-14.29,0
4.045,-8.247,0
4.046,-6.416,0
4.047,-1.472,0
4.048,-2.937,0
4.049,3.838,0
4.05,0.359,0
4.051,1.458,0
4.052,4.387,0
4.053,5.303,0
4.054,6.035,0
4.055,8.232,0
4.056,6.401,0
4.057,5.852,0
4.058,4.204,0
4.059,4.57,0
4.06,6.768,0
4.061,5.669,0
4.062,8.232,0
4.063,7.866,0
4.064,8.049,0
4.065,8.782,0
4.066,8.599,0
4.067,12.078,0
4.068,19.585,0
4.069,9.331,0
4.07,-2.937,0
4.071,-4.585,0
4.072,-8.979,0
4.073,-13.008,0
4.074,-6.965,0
4.075,-10.261,0
4.076,-9.346,0
4.077,-8.43,0
4.078,-4.402,0
4.079,-3.669,0
4.08,1.274,0
4.081,1.824,0
4.082,7.5,0
4.083,19.036,0
4.084,40.642,0
4.085,43.572,0
4.086,51.445,0
4.087,39.36,0
4.088,6.218,0
4.089,-27.107,0
4.09,-39.924,0
4.091,-36.079,0
4.092,-39.558,0
4.093,-36.445,0
4.094,-33.516,0
4.095,-25.642,0
4.096,-18.501,0
4.097,-11.909,0
4.098,-9.895,0
4.099,-4.402,0
4.1,-2.754,0
4.101,-4.219,0
4.102,-2.937,0
4.103,3.105,0
4.104,4.204,0
4.105,5.12,0
4.106,6.035,0
4.107,5.303,0
4.108,6.035,0
4.109,4.204,0
4.11,6.035,0
4.111,7.683,0
4.112,8.049,0
4.113,7.683,0
4.114,10.43,0
4.115,11.528,0
4.116,7.5,0
4.117,5.12,0
4.118,2.922,0
4.119,0.176,0
4.12,4.387,0
4.121,3.838,0
4.122,2.556,0
4.123,2.922,0
4.124,1.824,0
4.125,0.725,0
4.126,-1.106,0
4.127,-2.571,0
4.128,-0.74,0
4.129,-1.472,0
4.13,2.007,0
4.131,2.007,0
4.132,2.373,0
4.133,9.331,0
4.134,24.529,0
4.135,57.671,0
4.136,52.91,0
4.137,13.909,0
4.138,-12.275,0
4.139,-26.558,0
4.14,-30.769,0
4.141,-34.614,0
4.142,-31.135,0
4.143,-28.022,0
4.144,-19.233,0
4.145,-16.67,0
4.146,-14.29,0
4.147,-7.698,0
4.148,-5.684,0
4.149,-3.853,0
4.15,1.091,0
4.151,-0.374,0
4.152,-4.402,0
4.153,-3.303,0
4.154,2.373,0
4.155,1.458,0
4.156,0.542,0
4.157,1.274,0
4.158,3.472,0
4.159,5.303,0
4.16,4.753,0
4.161,6.401,0
4.162,1.824,0
4.163,6.218,0
4.164,6.768,0
4.165,8.049,0
4.166,5.852,0
4.167,2.007,0
4.168,1.641,0
4.169,2.007,0
4.17,4.021,0
4.171,2.922,0
4.172,5.486,0
4.173,2.19,0
4.174,2.556,0
4.175,0.542,0
4.176,-2.021,0
4.177,2.007,0
4.178,-1.289,0
4.179,0.908,0
4.18,7.134,0
4.181,4.387,0
4.182,2.007,0
4.183,7.683,0
4.184,8.416,0
4.185,18.669,0
4.186,41.191,0
4.187,57.305,0
4.188,48.516,0
4.189,13.542,0
4.19,-19.783,0
4.191,-32.6,0
4.192,-36.445,0
4.193,-39.924,0
4.194,-30.403,0
4.195,-27.473,0
4.196,-24.91,0
4.197,-17.769,0
4.198,-15.571,0
4.199,-13.557,0
4.2,-11.726,0
4.201,-10.078,0
4.202,-8.613,0
4.203,-4.585,0
4.204,-1.106,0
4.205,-0.007,0
4.206,2.922,0
4.207,3.838,0
4.208,4.57,0
4.209,2.373,0
4.21,1.824,0
4.211,7.5,0
4.212,3.655,0
4.213,4.204,0
4.214,7.317,0
4.215,6.768,0
4.216,10.063,0
4.217,7.866,0
4.218,5.852,0
4.219,7.683,0
4.22,4.387,0
4.221,4.753,0
4.222,3.655,0
4.223,6.951,0
4.224,6.584,0
4.225,0.908,0
4.226,1.641,0
4.227,0.908,0
4.228,0.359,0
4.229,0.908,0
4.23,2.556,0
4.231,0.176,0
4.232,2.373,0
4.233,4.204,0
4.234,0.359,0
4.235,7.866,0
4.236,24.895,0
4.237,41.741,0
4.238,43.938,0
4.239,49.98,0
4.24,37.163,0
4.241,12.261,0
4.242,-27.107,0
4.243,-42.671,0
4.244,-47.432,0
4.245,-34.614,0
4.246,-30.769,0
4.247,-27.29,0
4.248,-24.177,0
4.249,-21.248,0
4.25,-18.684,0
4.251,-6.599,0
4.252,-13.191,0
4.253,-7.148,0
4.254,-5.317,0
4.255,2.922,0
4.256,1.458,0
4.257,2.739,0
4.258,1.641,0
4.259,4.937,0
4.26,4.021,0
4.261,4.937,0
4.262,10.613,0
4.263,12.81,0
4.264,10.979,0
4.265,7.866,0
4.266,9.514,0
4.267,9.148,0
4.268,6.035,0
4.269,4.937,0
4.27,7.5,0
4.271,5.669,0
4.272,7.134,0
4.273,6.401,0
4.274,5.669,0
4.275,2.556,0
4.276,-2.021,0
4.277,-0.19,0
4.278,0.359,0
4.279,0.725,0
4.28,2.007,0
4.281,3.105,0
4.282,1.274,0
4.283,-1.289,0
4.284,2.739,0
4.285,-1.838,0
4.286,8.416,0
4.287,21.965,0
4.288,42.107,0
4.289,55.474,0
4.29,33.501,0
4.291,6.768,0
4.292,-25.459,0
4.293,-38.276,0
4.294,-34.431,0
4.295,-37.91,0
4.296,-28.389,0
4.297,-25.459,0
4.298,-22.896,0
4.299,-20.515,0
4.3,-13.923,0
4.301,-7.881,0
4.302,-9.712,0
4.303,-8.064,0
4.304,-3.669,0
4.305,-2.388,0
4.306,-1.289,0
4.307,4.387,0
4.308,1.458,0
4.309,0.542,0
4.31,1.274,0
4.311,5.12,0
4.312,15.374,0
4.313,31.853,0
4.314,34.05,0
4.315,15.923,0
4.316,3.838,0
4.317,-2.754,0
4.318,-4.768,0
4.319,-10.261,0
4.32,-5.317,0
4.321,-3.853,0
4.322,-7.881,0
4.323,-4.402,0
4.324,1.274,0
4.325,-1.655,0
4.326,-2.571,0
4.327,-0.19,0
4.328,0.542,0
4.329,2.373,0
4.33,4.204,0
4.331,4.753,0
4.332,2.373,0
4.333,0.176,0
4.334,0.542,0
4.335,2.007,0
4.336,-0.557,0
4.337,4.937,0
4.338,16.472,0
4.339,34.783,0
4.34,51.628,0
4.341,58.22,0
4.342,28.008,0
4.343,-10.994,0
4.344,-26.558,0
4.345,-31.318,0
4.346,-35.53,0
4.347,-31.685,0
4.348,-28.206,0
4.349,-25.093,0
4.35,-22.163,0
4.351,-19.6,0
4.352,-17.219,0
4.353,-6.233,0
4.354,-8.247,0
4.355,-2.754,0
4.356,-1.106,0
4.357,3.289,0
4.358,-0.74,0
4.359,0.359,0
4.36,1.458,0
4.361,0.542,0
4.362,5.12,0
4.363,9.148,0
4.364,6.951,0
4.365,8.782,0
4.366,8.232,0
4.367,6.584,0
4.368,6.951,0
4.369,6.584,0
4.37,6.951,0
4.371,6.584,0
4.372,5.486,0
4.373,4.021,0
4.374,0.359,0
4.375,2.739,0
4.376,-1.472,0
4.377,0.176,0
4.378,1.458,0
4.379,1.824,0
4.38,3.838,0
4.381,4.937,0
4.382,6.035,0
4.383,4.021,0
4.384,0.359,0
4.385,0.725,0
4.386,-0.19,0
4.387,0.176,0
4.388,6.401,0
4.389,20.317,0
4.39,50.53,0
4.391,54.741,0
4.392,43.022,0
4.393,18.12,0
4.394,-17.585,0
4.395,-31.868,0
4.396,-36.079,0
4.397,-32.234,0
4.398,-35.713,0
4.399,-26.191,0
4.4,-23.262,0
4.401,-25.825,0
4.402,-18.684,0
4.403,-16.487,0
4.404,-10.444,0
4.405,-8.613,0
4.406,-3.669,0
4.407,-2.205,0
4.408,1.824,0
4.409,2.922,0
4.41,4.021,0
4.411,4.937,0
4.412,5.852,0
4.413,13.359,0
4.414,8.416,0
4.415,11.162,0
4.416,7.134,0
4.417,6.401,0
4.418,4.57,0
4.419,4.021,0
4.42,4.57,0
4.421,4.204,0
4.422,4.57,0
4.423,3.472,0
4.424,6.035,0
4.425,2.739,0
4.426,3.838,0
4.427,1.274,0
4.428,3.105,0
4.429,2.922,0
4.43,3.655,0
4.431,6.584,0
4.432,1.641,0
4.433,2.19,0
4.434,0.359,0
4.435,2.007,0
4.436,-1.289,0
4.437,0.542,0
4.438,-0.74,0
4.439,5.486,0
4.44,19.402,0
4.441,45.586,0
4.442,49.065,0
4.443,45.952,0
4.444,13.359,0
4.445,-16.853,0
4.446,-28.572,0
4.447,-32.051,0
4.448,-35.164,0
4.449,-32.234,0
4.45,-24.36,0
4.451,-21.98,0
4.452,-24.177,0
4.453,-18.135,0
4.454,-12.642,0
4.455,-10.994,0
4.456,-6.599,0
4.457,-7.881,0
4.458,-4.402,0
4.459,-1.106,0
4.46,-2.021,0
4.461,4.387,0
4.462,5.12,0
4.463,4.387,0
4.464,6.218,0
4.465,6.768,0
4.466,8.416,0
4.467,7.134,0
4.468,4.021,0
4.469,7.866,0
4.47,0.359,0
4.471,3.655,0
4.472,4.57,0
4.473,5.486,0
4.474,6.218,0
4.475,4.021,0
4.476,0.725,0
4.477,1.274,0
4.478,1.824,0
4.479,5.12,0
4.48,4.753,0
4.481,5.12,0
4.482,5.486,0
4.483,5.852,0
4.484,1.274,0
4.485,-2.021,0
4.486,-1.472,0
4.487,-0.923,0
4.488,-1.655,0
4.489,0.725,0
4.49,7.683,0
4.491,18.853,0
4.492,35.332,0
4.493,37.529,0
4.494,47.6,0
4.495,34.783,0
4.496,9.88,0
4.497,-22.346,0
4.498,-35.164,0
4.499,-39.009,0
4.5,-35.53,0
4.501,-38.643,0
4.502,-35.713,0
4.503,-27.839,0
4.504,-20.698,0
4.505,-22.896,0
4.506,-12.825,0
4.507,-7.332,0
4.508,-5.684,0
4.509,-7.148,0
4.51,-0.374,0
4.511,3.105,0
4.512,4.204,0
4.513,5.12,0
4.514,6.035,0
4.515,6.768,0
4.516,10.613,0
4.517,4.387,0
4.518,5.12,0
4.519,7.317,0
4.52,6.768,0
4.521,6.218,0
4.522,7.866,0
4.523,7.5,0
4.524,8.782,0
4.525,6.035,0
4.526,2.556,0
4.527,2.19,0
4.528,4.204,0
4.529,4.57,0
4.53,4.204,0
4.531,7.5,0
4.532,2.373,0
4.533,2.922,0
4.534,3.472,0
4.535,0.725,0
4.536,0.359,0
4.537,-0.007,0
4.538,-2.754,0
4.539,-0.923,0
4.54,-0.557,0
4.541,4.937,0
4.542,16.472,0
4.543,31.487,0
4.544,45.586,0
4.545,51.079,0
4.546,26.177,0
4.547,-13.191,0
4.548,-28.755,0
4.549,-33.516,0
4.55,-37.727,0
4.551,-33.882,0
4.552,-30.403,0
4.553,-27.29,0
4.554,-24.36,0
4.555,-21.797,0
4.556,-14.656,0
4.557,-12.458,0
4.558,-6.416,0
4.559,17.388,0
4.56,14.275,0
4.561,-0.557,0
4.562,-8.43,0
4.563,-6.05,0
4.564,-3.853,0
4.565,-1.838,0
4.566,-0.007,0
4.567,4.937,0
4.568,0.542,0
4.569,4.57,0
4.57,3.472,0
4.571,2.373,0
4.572,1.458,0
4.573,4.204,0
4.574,4.937,0
4.575,7.134,0
4.576,3.838,0
4.577,8.232,0
4.578,3.105,0
4.579,6.401,0
4.58,6.951,0
4.581,9.697,0
4.582,5.12,0
4.583,9.514,0
4.584,4.387,0
4.585,4.937,0
4.586,5.486,0
4.587,6.035,0
4.588,8.416,0
4.589,8.782,0
4.59,2.739,0
4.591,3.838,0
4.592,9.514,0
4.593,21.965,0
4.594,49.431,0
4.595,45.586,0
4.596,20.684,0
4.597,-15.022,0
4.598,-29.304,0
4.599,-25.093,0
4.6,-28.938,0
4.601,-32.417,0
4.602,-29.304,0
4.603,-26.375,0
4.604,-18.501,0
4.605,-16.121,0
4.606,-13.923,0
4.607,-7.881,0
4.608,-6.05,0
4.609,-7.698,0
4.61,-3.303,0
4.611,-2.021,0
4.612,-0.923,0
4.613,4.753,0
4.614,3.838,0
4.615,6.584,0
4.616,5.852,0
4.617,2.007,0
4.618,0.176,0
4.619,2.007,0
4.62,5.852,0
4.621,5.486,0
4.622,3.289,0
4.623,1.274,0
4.624,-1.289,0
4.625,2.739,0
4.626,-1.838,0
4.627,1.274,0
4.628,2.922,0
4.629,5.303,0
4.63,3.105,0
4.631,4.204,0
4.632,6.035,0
4.633,4.204,0
4.634,-0.374,0
4.635,0.176,0
4.636,0.725,0
4.637,0.176,0
4.638,1.458,0
4.639,1.824,0
4.64,0.725,0
4.641,-1.655,0
4.642,0.908,0
4.643,2.739,0
4.644,7.317,0
4.645,17.571,0
4.646,40.093,0
4.647,30.571,0
4.648,39.36,0
4.649,41.924,0
4.65,10.247,0
4.651,-28.755,0
4.652,-44.319,0
4.653,-49.08,0
4.654,-44.868,0
4.655,-48.713,0
4.656,-38.093,0
4.657,-34.98,0
4.658,-26.191,0
4.659,-23.628,0
4.66,-16.487,0
4.661,-14.29,0
4.662,-4.219,0
4.663,-6.05,0
4.664,-1.106,0
4.665,6.401,0
4.666,7.683,0
4.667,6.584,0
4.668,5.486,0
4.669,8.416,0
4.67,9.331,0
4.671,6.951,0
4.672,9.148,0
4.673,9.697,0
4.674,14.092,0
4.675,14.641,0
4.676,17.021,0
4.677,19.219,0
4.678,25.444,0
4.679,30.022,0
4.68,29.29,0
4.681,31.487,0
4.682,26.909,0
4.683,28.74,0
4.684,21.416,0
4.685,20.5,0
4.686,15.923,0
4.687,13.542,0
4.688,2.007,0
4.689,-9.529,0
4.69,-19.966,0
4.691,-26.741,0
4.692,-36.079,0
4.693,-37.178,0
4.694,-20.149,0
4.695,1.824,0
4.696,34.417,0
4.697,30.205,0
4.698,10.613,0
4.699,-35.896,0
4.7,-80.208,0
4.701,-132.21,0
4.702,-139.17,0
4.703,-145.39,0
4.704,-151.07,0
4.705,-166.63,0
4.706,-161.87,0
4.707,-157.66,0
4.708,-145.94,0
4.709,-135.32,0
4.71,-112.8,0
4.711,-68.306,0
4.712,27.092,0
4.713,95.391,0
4.714,132.74,0
4.715,143.91,0
4.716,133.66,0
4.717,124.32,0
4.718,99.053,0
4.719,106.74,0
4.72,99.785,0
4.721,93.56,0
4.722,110.77,0
4.723,136.96,0
4.724,151.24,0
4.725,147.03,0
4.726,143.18,0
4.727,139.7,0
4.728,130.18,0
4.729,127.25,0
4.73,108.57,0
4.731,91.729,0
4.732,71.77,0
4.733,53.093,0
4.734,41.008,0
4.735,25.627,0
4.736,27.642,0
4.737,22.148,0
4.738,10.613,0
4.739,6.218,0
4.74,-6.05,0
4.741,-17.585,0
4.742,-25.093,0
4.743,-22.896,0
4.744,-35.164,0
4.745,-30.22,0
4.746,-28.755,0
4.747,-8.247,0
4.748,6.584,0
4.749,-17.585,0
4.75,-59.883,0
4.751,-77.095,0
4.752,-92.659,0
4.753,-97.419,0
4.754,-93.208,0
4.755,-97.053,0
4.756,-93.574,0
4.757,-90.461,0
4.758,-81.672,0
4.759,-79.109,0
4.76,-71.968,0
4.761,-60.981,0
4.762,-50.911,0
4.763,-49.08,0
4.764,-40.84,0
4.765,-30.403,0
4.766,-26.375,0
4.767,-22.896,0
4.768,-19.6,0
4.769,-18.684,0
4.77,-15.937,0
4.771,-6.782,0
4.772,-5.684,0
4.773,-2.388,0
4.774,0.542,0
4.775,-0.374,0
4.776,-1.106,0
4.777,1.091,0
4.778,0.542,0
4.779,3.655,0
4.78,7.5,0
4.781,8.782,0
4.782,7.5,0
4.783,8.599,0
4.784,6.035,0
4.785,7.866,0
4.786,5.852,0
4.787,5.12,0
4.788,5.852,0
4.789,9.331,0
4.79,8.965,0
4.791,8.599,0
4.792,6.584,0
4.793,6.218,0
4.794,8.599,0
4.795,10.43,0
4.796,10.247,0
4.797,10.063,0
4.798,8.782,0
4.799,7.683,0
4.8,7.134,0
4.801,4.204,0
4.802,3.105,0
4.803,4.937,0
4.804,10.43,0
4.805,21.965,0
4.806,20.317,0
4.807,3.838,0
4.808,10.43,0
4.809,16.472,0
4.81,36.614,0
4.811,44.487,0
4.812,32.402,0
4.813,25.811,0
4.814,19.768,0
4.815,17.937,0
4.816,-6.965,0
4.817,-46.333,0
4.818,-51.46,0
4.819,-56.221,0
4.82,-43.403,0
4.821,-39.558,0
4.822,-36.079,0
4.823,-26.558,0
4.824,-23.628,0
4.825,-15.754,0
4.826,-13.374,0
4.827,-6.782,0
4.828,-0.74,0
4.829,4.753,0
4.83,9.697,0
4.831,11.162,0
4.832,15.19,0
4.833,16.289,0
4.834,12.993,0
4.835,10.063,0
4.836,14.641,0
4.837,13.909,0
4.838,11.711,0
4.839,15.007,0
4.84,13.176,0
4.841,13.726,0
4.842,9.148,0
4.843,8.599,0
4.844,9.148,0
4.845,11.528,0
4.846,9.148,0
4.847,16.106,0
4.848,31.304,0
4.849,46.685,0
4.85,48.699,0
4.851,43.206,0
4.852,21.599,0
4.853,-5.134,0
4.854,-30.037,0
4.855,-33.149,0
4.856,-41.938,0
4.857,-39.375,0
4.858,-32.234,0
4.859,-34.431,0
4.86,-24.36,0
4.861,-18.867,0
4.862,-13.923,0
4.863,-9.529,0
4.864,-8.247,0
4.865,-4.768,0
4.866,0.908,0
4.867,-0.007,0
4.868,0.908,0
4.869,3.289,0
4.87,4.021,0
4.871,5.852,0
4.872,6.401,0
4.873,5.852,0
4.874,5.486,0
4.875,4.204,0
4.876,5.303,0
4.877,2.739,0
4.878,6.035,0
4.879,4.937,0
4.88,3.105,0
4.881,8.599,0
4.882,4.753,0
4.883,6.584,0
4.884,-0.374,0
4.885,0.542,0
4.886,1.274,0
4.887,2.007,0
4.888,-1.289,0
4.889,1.824,0
4.89,0.176,0
4.891,-1.106,0
4.892,-1.472,0
4.893,0.542,0
4.894,-2.937,0
4.895,0.176,0
4.896,0.542,0
4.897,1.641,0
4.898,7.317,0
4.899,19.768,0
4.9,47.234,0
4.901,51.079,0
4.902,11.711,0
4.903,-14.473,0
4.904,-28.755,0
4.905,-24.543,0
4.906,-28.389,0
4.907,-24.91,0
4.908,-28.022,0
4.909,-30.952,0
4.91,-23.079,0
4.911,-20.698,0
4.912,-9.712,0
4.913,-11.726,0
4.914,-9.895,0
4.915,-4.951,0
4.916,-0.557,0
4.917,-4.585,0
4.918,-3.486,0
4.919,-2.388,0
4.92,2.556,0
4.921,1.641,0
4.922,2.373,0
4.923,4.57,0
4.924,7.866,0
4.925,0.908,0
4.926,1.824,0
4.927,5.852,0
4.928,3.655,0
4.929,6.951,0
4.93,7.5,0
4.931,9.148,0
4.932,6.768,0
4.933,4.57,0
4.934,1.824,0
4.935,2.922,0
4.936,1.824,0
4.937,2.556,0
4.938,3.289,0
4.939,2.556,0
4.94,3.655,0
4.941,1.274,0
4.942,-1.472,0
4.943,-0.374,0
4.944,-0.007,0
4.945,0.725,0
4.946,-0.007,0
4.947,2.007,0
4.948,2.739,0
4.949,6.218,0
4.95,13.726,0
4.951,30.754,0
4.952,42.839,0
4.953,58.22,0
4.954,32.036,0
4.955,-0.19,0
4.956,-30.403,0
4.957,-42.122,0
4.958,-38.643,0
4.959,-41.755,0
4.96,-38.826,0
4.961,-30.952,0
4.962,-23.811,0
4.963,-21.614,0
4.964,-15.571,0
4.965,-13.74,0
4.966,-5.5,0
4.967,-9.895,0
4.968,-5.867,0
4.969,-2.388,0
4.97,0.908,0
4.971,1.824,0
4.972,4.57,0
4.973,3.838,0
4.974,7.683,0
4.975,3.105,0
4.976,2.556,0
4.977,9.88,0
4.978,6.951,0
4.979,6.035,0
4.98,8.416,0
4.981,7.683,0
4.982,8.232,0
4.983,6.401,0
4.984,3.655,0
4.985,6.035,0
4.986,5.669,0
4.987,4.57,0
4.988,4.204,0
4.989,3.105,0
4.99,3.289,0
4.991,1.458,0
4.992,0.725,0
4.993,-0.74,0
4.994,-0.923,0
4.995,2.007,0
4.996,4.753,0
4.997,4.387,0
4.998,2.739,0
4.999,3.838,0
5,8.416,0
5.001,15.923,0
5.002,31.121,0
5.003,28.923,0
5.004,47.051,0
5.005,44.67,0
5.006,15.923,0
5.007,-19.6,0
5.008,-43.403,0
5.009,-47.615,0
5.01,-43.77,0
5.011,-40.291,0
5.012,-30.769,0
5.013,-27.839,0
5.014,-25.276,0
5.015,-13.191,0
5.016,-10.994,0
5.017,-8.979,0
5.018,-7.148,0
5.019,-2.205,0
5.02,-3.669,0
5.021,0.359,0
5.022,3.838,0
5.023,4.937,0
5.024,5.852,0
5.025,6.768,0
5.026,7.5,0
5.027,5.303,0
5.028,9.88,0
5.029,8.049,0
5.03,8.599,0
5.031,8.965,0
5.032,8.599,0
5.033,9.697,0
5.034,6.218,0
5.035,2.007,0
5.036,4.753,0
5.037,4.387,0
5.038,5.669,0
5.039,6.035,0
5.04,6.401,0
5.041,2.373,0
5.042,-0.007,0
5.043,-0.374,0
5.044,-1.472,0
5.045,4.204,0
5.046,0.176,0
5.047,5.486,0
5.048,3.655,0
5.049,3.472,0
5.05,12.993,0
5.051,28.008,0
5.052,9.88,0
5.053,-2.205,0
5.054,-8.796,0
5.055,1.274,0
5.056,28.74,0
5.057,48.333,0
5.058,23.43,0
5.059,-12.275,0
5.06,-36.079,0
5.061,-31.868,0
5.062,-35.713,0
5.063,-32.234,0
5.064,-29.121,0
5.065,-26.191,0
5.066,-18.318,0
5.067,-15.937,0
5.068,-13.74,0
5.069,-11.726,0
5.07,-6.233,0
5.071,-4.585,0
5.072,-0.19,0
5.073,1.091,0
5.074,2.19,0
5.075,3.289,0
5.076,2.373,0
5.077,5.12,0
5.078,4.387,0
5.079,5.12,0
5.08,8.416,0
5.081,10.247,0
5.082,6.401,0
5.083,6.768,0
5.084,4.57,0
5.085,1.824,0
5.086,3.655,0
5.087,4.021,0
5.088,3.289,0
5.089,4.021,0
5.09,6.951,0
5.091,5.852,0
5.092,2.556,0
5.093,2.922,0
5.094,1.824,0
5.095,5.852,0
5.096,1.274,0
5.097,3.105,0
5.098,2.556,0
5.099,1.274,0
5.1,0.542,0
5.101,1.824,0
5.102,8.049,0
5.103,21.965,0
5.104,40.093,0
5.105,47.234,0
5.106,53.826,0
5.107,23.613,0
5.108,-6.599,0
5.109,-26.191,0
5.11,-43.953,0
5.111,-40.84,0
5.112,-37.91,0
5.113,-35.347,0
5.114,-32.966,0
5.115,-26.375,0
5.116,-24.36,0
5.117,-18.867,0
5.118,-13.923,0
5.119,-9.529,0
5.12,-8.247,0
5.121,-2.205,0
5.122,1.091,0
5.123,2.007,0
5.124,6.584,0
5.125,4.204,0
5.126,4.937,0
5.127,3.105,0
5.128,6.218,0
5.129,8.965,0
5.13,10.247,0
5.131,7.134,0
5.132,9.148,0
5.133,8.049,0
5.134,5.486,0
5.135,6.218,0
5.136,6.401,0
5.137,4.021,0
5.138,4.204,0
5.139,4.937,0
5.14,6.218,0
5.141,2.739,0
5.142,2.373,0
5.143,0.176,0
5.144,2.922,0
5.145,4.021,0
5.146,3.655,0
5.147,3.472,0
5.148,6.584,0
5.149,4.57,0
5.15,1.091,0
5.151,-1.655,0
5.152,-3.853,0
5.153,2.373,0
5.154,16.289,0
5.155,42.473,0
5.156,38.994,0
5.157,29.473,0
5.158,2.739,0
5.159,-22.163,0
5.16,-31.685,0
5.161,-34.614,0
5.162,-32.051,0
5.163,-29.67,0
5.164,-27.473,0
5.165,-21.431,0
5.166,-15.937,0
5.167,-14.29,0
5.168,-15.754,0
5.169,-11.726,0
5.17,-5.684,0
5.171,-4.585,0
5.172,-1.655,0
5.173,-2.571,0
5.174,-0.19,0
5.175,2.007,0
5.176,3.838,0
5.177,6.951,0
5.178,4.204,0
5.179,6.584,0
5.18,8.782,0
5.181,10.796,0
5.182,11.162,0
5.183,10.063,0
5.184,7.317,0
5.185,3.838,0
5.186,3.472,0
5.187,2.373,0
5.188,3.472,0
5.189,3.838,0
5.19,4.021,0
5.191,1.458,0
5.192,0.359,0
5.193,3.655,0
5.194,2.373,0
5.195,4.387,0
5.196,4.021,0
5.197,3.655,0
5.198,4.387,0
5.199,4.204,0
5.2,0.176,0
5.201,-1.472,0
5.202,-1.655,0
5.203,0.725,0
5.204,7.683,0
5.205,22.881,0
5.206,38.262,0
5.207,48.333,0
5.208,53.826,0
5.209,28.923,0
5.21,-10.444,0
5.211,-26.008,0
5.212,-40.291,0
5.213,-36.079,0
5.214,-39.924,0
5.215,-29.304,0
5.216,-32.417,0
5.217,-23.628,0
5.218,-21.064,0
5.219,-13.923,0
5.22,-11.726,0
5.221,-5.684,0
5.222,-3.853,0
5.223,-2.205,0
5.224,-0.74,0
5.225,0.542,0
5.226,1.641,0
5.227,2.739,0
5.228,5.669,0
5.229,6.584,0
5.23,5.852,0
5.231,11.162,0
5.232,10.613,0
5.233,6.218,0
5.234,4.57,0
5.235,4.204,0
5.236,4.57,0
5.237,3.472,0
5.238,6.035,0
5.239,5.669,0
5.24,4.204,0
5.241,2.922,0
5.242,4.204,0
5.243,3.655,0
5.244,5.669,0
5.245,4.937,0
5.246,5.486,0
5.247,2.556,0
5.248,6.035,0
5.249,4.753,0
5.25,2.007,0
5.251,-0.557,0
5.252,0.542,0
5.253,2.007,0
5.254,0.542,0
5.255,4.753,0
5.256,14.275,0
5.257,34.783,0
5.258,55.474,0
5.259,31.304,0
5.26,2.007,0
5.261,-17.585,0
5.262,-35.347,0
5.263,-38.459,0
5.264,-35.53,0
5.265,-27.656,0
5.266,-25.276,0
5.267,-23.079,0
5.268,-21.064,0
5.269,-15.571,0
5.27,-10.627,0
5.271,-6.233,0
5.272,-7.515,0
5.273,-1.472,0
5.274,-2.571,0
5.275,-1.655,0
5.276,-0.74,0
5.277,3.289,0
5.278,4.021,0
5.279,5.852,0
5.28,7.683,0
5.281,9.331,0
5.282,10.613,0
5.283,6.401,0
5.284,3.655,0
5.285,4.937,0
5.286,3.655,0
5.287,1.641,0
5.288,0.542,0
5.289,3.105,0
5.29,2.922,0
5.291,0.359,0
5.292,-0.74,0
5.293,0.725,0
5.294,4.387,0
5.295,8.965,0
5.296,18.486,0
5.297,33.501,0
5.298,15.374,0
5.299,3.289,0
5.3,-7.698,0
5.301,-5.684,0
5.302,-14.839,0
5.303,-13.191,0
5.304,-12.642,0
5.305,-11.177,0
5.306,-4.402,0
5.307,14.092,0
5.308,27.458,0
5.309,44.304,0
5.31,46.501,0
5.311,20.317,0
5.312,-11.909,0
5.313,-33.516,0
5.314,-37.361,0
5.315,-26.741,0
5.316,-29.854,0
5.317,-26.924,0
5.318,-24.36,0
5.319,-21.98,0
5.32,-10.994,0
5.321,-8.979,0
5.322,-3.486,0
5.323,-1.838,0
5.324,2.556,0
5.325,1.274,0
5.326,2.373,0
5.327,8.049,0
5.328,8.965,0
5.329,8.049,0
5.33,8.782,0
5.331,12.627,0
5.332,9.331,0
5.333,9.88,0
5.334,10.43,0
5.335,9.148,0
5.336,6.035,0
5.337,2.19,0
5.338,0.908,0
5.339,5.12,0
5.34,5.669,0
5.341,6.035,0
5.342,0.908,0
5.343,0.359,0
5.344,2.19,0
5.345,1.641,0
5.346,4.021,0
5.347,0.908,0
5.348,2.922,0
5.349,1.091,0
5.35,-0.74,0
5.351,-1.472,0
5.352,0.359,0
5.353,1.091,0
5.354,-1.472,0
5.355,-3.12,0
5.356,-2.754,0
5.357,1.824,0
5.358,12.078,0
5.359,34.6,0
5.36,57.122,0
5.361,36.431,0
5.362,-3.853,0
5.363,-21.064,0
5.364,-26.191,0
5.365,-30.952,0
5.366,-35.164,0
5.367,-31.318,0
5.368,-27.839,0
5.369,-24.727,0
5.37,-21.797,0
5.371,-13.923,0
5.372,-11.543,0
5.373,-9.346,0
5.374,-3.303,0
5.375,-5.134,0
5.376,-0.19,0
5.377,4.204,0
5.378,2.922,0
5.379,4.021,0
5.38,5.12,0
5.381,8.049,0
5.382,10.796,0
5.383,6.768,0
5.384,6.035,0
5.385,6.584,0
5.386,3.472,0
5.387,4.021,0
5.388,1.641,0
5.389,3.838,0
5.39,3.472,0
5.391,1.641,0
5.392,-1.655,0
5.393,-0.557,0
5.394,0.542,0
5.395,2.373,0
5.396,3.105,0
5.397,1.824,0
5.398,1.091,0
5.399,3.655,0
5.4,0.359,0
5.401,2.373,0
5.402,1.274,0
5.403,-0.557,0
5.404,2.19,0
5.405,-0.374,0
5.406,0.542,0
5.407,0.908,0
5.408,5.486,0
5.409,15.74,0
5.41,38.262,0
5.411,41.375,0
5.412,32.585,0
5.413,35.149,0
5.414,37.529,0
5.415,8.782,0
5.416,-18.684,0
5.417,-43.586,0
5.418,-53.108,0
5.419,-50.178,0
5.42,-42.305,0
5.421,-35.164,0
5.422,-28.572,0
5.423,-18.501,0
5.424,-9.346,0
5.425,-4.402,0
5.426,3.105,0
5.427,12.627,0
5.428,21.05,0
5.429,24.346,0
5.43,27.275,0
5.431,24.529,0
5.432,26.909,0
5.433,24.712,0
5.434,18.486,0
5.435,14.458,0
5.436,2.922,0
5.437,-5.317,0
5.438,-9.712,0
5.439,-13.74,0
5.44,-24.91,0
5.441,-32.417,0
5.442,-33.699,0
5.443,-20.149,0
5.444,-14.656,0
5.445,-13.008,0
5.446,-8.613,0
5.447,-26.375,0
5.448,-38.459,0
5.449,-58.418,0
5.45,-71.785,0
5.451,-93.757,0
5.452,-108.59,0
5.453,-111.15,0
5.454,-113.53,0
5.455,-124.52,0
5.456,-118.48,0
5.457,-119.58,0
5.458,-99.434,0
5.459,-59.15,0
5.46,27.458,0
5.461,139.52,0
5.462,184.56,0
5.463,198.11,0
5.464,160.76,0
5.465,104.36,0
5.466,53.093,0
5.467,25.078,0
5.468,16.655,0
5.469,8.965,0
5.47,15.923,0
5.471,34.783,0
5.472,51.995,0
5.473,78.179,0
5.474,92.461,0
5.475,88.25,0
5.476,92.095,0
5.477,88.616,0
5.478,98.137,0
5.479,101.07,0
5.48,87.7,0
5.481,70.854,0
5.482,59.868,0
5.483,49.797,0
5.484,40.642,0
5.485,42.29,0
5.486,40.825,0
5.487,31.304,0
5.488,22.881,0
5.489,10.43,0
5.49,2.19,0
5.491,-11.36,0
5.492,-16.853,0
5.493,-18.501,0
5.494,-22.896,0
5.495,-29.67,0
5.496,-30.769,0
5.497,-36.445,0
5.498,-37.361,0
5.499,-41.938,0
5.5,-47.615,0
5.501,-49.812,0
5.502,-51.643,0
5.503,-54.756,0
5.504,-53.108,0
5.505,-60.615,0
5.506,-59.517,0
5.507,-58.601,0
5.508,-56.587,0
5.509,-55.671,0
5.51,-43.22,0
5.511,-23.079,0
5.512,-9.712,0
5.513,7.134,0
5.514,18.12,0
5.515,-4.036,0
5.516,-42.671,0
5.517,-58.235,0
5.518,-62.996,0
5.519,-58.784,0
5.52,-54.939,0
5.521,-51.46,0
5.522,-41.938,0
5.523,-33.149,0
5.524,-25.276,0
5.525,-22.896,0
5.526,-20.698,0
5.527,-10.627,0
5.528,-5.134,0
5.529,-0.19,0
5.53,1.274,0
5.531,8.049,0
5.532,6.951,0
5.533,10.247,0
5.534,7.317,0
5.535,11.895,0
5.536,11.162,0
5.537,13.359,0
5.538,13.909,0
5.539,13.359,0
5.54,13.909,0
5.541,19.402,0
5.542,30.938,0
5.543,35.881,0
5.544,16.289,0
5.545,8.416,0
5.546,1.274,0
5.547,3.472,0
5.548,1.458,0
5.549,3.289,0
5.55,1.641,0
5.551,3.105,0
5.552,1.824,0
5.553,5.303,0
5.554,6.401,0
5.555,3.472,0
5.556,4.387,0
5.557,5.12,0
5.558,4.387,0
5.559,5.669,0
5.56,6.218,0
5.561,9.331,0
5.562,17.754,0
5.563,36.248,0
5.564,60.417,0
5.565,50.896,0
5.566,18.303,0
5.567,-11.909,0
5.568,-31.501,0
5.569,-34.98,0
5.57,-31.868,0
5.571,-28.938,0
5.572,-26.375,0
5.573,-23.994,0
5.574,-17.402,0
5.575,-15.388,0
5.576,-13.557,0
5.577,-5.317,0
5.578,-0.923,0
5.579,3.105,0
5.58,4.204,0
5.581,7.5,0
5.582,10.43,0
5.583,7.683,0
5.584,5.303,0
5.585,9.148,0
5.586,2.922,0
5.587,3.655,0
5.588,2.922,0
5.589,9.148,0
5.59,8.416,0
5.591,4.57,0
5.592,5.12,0
5.593,3.289,0
5.594,3.838,0
5.595,3.472,0
5.596,5.669,0
5.597,4.57,0
5.598,7.134,0
5.599,8.965,0
5.6,8.782,0
5.601,5.12,0
5.602,2.739,0
5.603,1.458,0
5.604,0.359,0
5.605,2.19,0
5.606,-1.838,0
5.607,-3.12,0
5.608,-0.007,0
5.609,-3.853,0
5.61,-0.19,0
5.611,-2.571,0
5.612,4.387,0
5.613,19.585,0
5.614,39.543,0
5.615,58.22,0
5.616,46.135,0
5.617,12.993,0
5.618,-20.332,0
5.619,-24.543,0
5.62,-36.262,0
5.621,-32.783,0
5.622,-29.67,0
5.623,-32.6,0
5.624,-24.727,0
5.625,-22.346,0
5.626,-15.754,0
5.627,-17.769,0
5.628,-8.613,0
5.629,-3.669,0
5.63,-2.205,0
5.631,1.824,0
5.632,-1.655,0
5.633,1.641,0
5.634,2.556,0
5.635,3.472,0
5.636,2.739,0
5.637,4.937,0
5.638,3.105,0
5.639,6.218,0
5.64,5.669,0
5.641,5.303,0
5.642,3.105,0
5.643,2.007,0
5.644,5.486,0
5.645,3.289,0
5.646,6.035,0
5.647,3.472,0
5.648,7.5,0
5.649,5.12,0
5.65,0.908,0
5.651,2.556,0
5.652,0.176,0
5.653,1.458,0
5.654,-0.557,0
5.655,-1.655,0
5.656,0.176,0
5.657,-0.007,0
5.658,-2.571,0
5.659,-3.669,0
5.66,-1.655,0
5.661,-0.923,0
5.662,0.359,0
5.663,4.387,0
5.664,12.81,0
5.665,31.304,0
5.666,55.474,0
5.667,45.952,0
5.668,13.359,0
5.669,-16.853,0
5.67,-28.572,0
5.671,-32.051,0
5.672,-35.164,0
5.673,-32.234,0
5.674,-29.67,0
5.675,-27.29,0
5.676,-25.093,0
5.677,-19.05,0
5.678,-13.557,0
5.679,-11.909,0
5.68,-1.472,0
5.681,-2.754,0
5.682,0.725,0
5.683,1.824,0
5.684,0.908,0
5.685,3.655,0
5.686,2.922,0
5.687,5.12,0
5.688,1.824,0
5.689,6.218,0
5.69,6.768,0
5.691,5.486,0
5.692,5.12,0
5.693,4.753,0
5.694,8.965,0
5.695,8.416,0
5.696,9.697,0
5.697,7.5,0
5.698,9.514,0
5.699,6.951,0
5.7,6.584,0
5.701,5.12,0
5.702,3.289,0
5.703,3.472,0
5.704,4.937,0
5.705,4.387,0
5.706,4.204,0
5.707,1.458,0
5.708,-3.486,0
5.709,-0.19,0
5.71,-0.74,0
5.711,-1.289,0
5.712,2.007,0
5.713,2.373,0
5.714,9.331,0
5.715,18.486,0
5.716,36.98,0
5.717,50.347,0
5.718,28.374,0
5.719,-10.261,0
5.72,-25.825,0
5.721,-30.586,0
5.722,-34.797,0
5.723,-30.952,0
5.724,-27.473,0
5.725,-30.586,0
5.726,-21.797,0
5.727,-19.233,0
5.728,-12.092,0
5.729,-9.895,0
5.73,-3.853,0
5.731,-2.021,0
5.732,2.922,0
5.733,4.387,0
5.734,-2.388,0
5.735,3.655,0
5.736,0.359,0
5.737,3.289,0
5.738,4.204,0
5.739,4.937,0
5.74,1.091,0
5.741,2.922,0
5.742,-1.472,0
5.743,2.373,0
5.744,2.739,0
5.745,5.852,0
5.746,6.951,0
5.747,4.387,0
5.748,4.021,0
5.749,7.317,0
5.75,2.19,0
5.751,4.021,0
5.752,2.19,0
5.753,3.838,0
5.754,5.12,0
5.755,3.838,0
5.756,2.739,0
5.757,3.105,0
5.758,-1.655,0
5.759,-3.486,0
5.76,2.739,0
5.761,2.007,0
5.762,-0.19,0
5.763,2.739,0
5.764,4.57,0
5.765,14.092,0
5.766,26.36,0
5.767,34.6,0
5.768,38.994,0
5.769,48.516,0
5.77,32.402,0
5.771,-0.74,0
5.772,-34.065,0
5.773,-38.276,0
5.774,-42.122,0
5.775,-38.643,0
5.776,-35.53,0
5.777,-32.6,0
5.778,-24.727,0
5.779,-17.585,0
5.78,-15.388,0
5.781,-9.346,0
5.782,-3.853,0
5.783,-2.205,0
5.784,-0.74,0
5.785,0.542,0
5.786,-0.557,0
5.787,9.697,0
5.788,30.205,0
5.789,21.416,0
5.79,2.739,0
5.791,0.359,0
5.792,-6.233,0
5.793,-0.19,0
5.794,-5.684,0
5.795,-4.036,0
5.796,-5.5,0
5.797,1.274,0
5.798,2.373,0
5.799,1.274,0
5.8,0.359,0
5.801,1.274,0
5.802,0.542,0
5.803,2.739,0
5.804,2.19,0
5.805,0.359,0
5.806,4.204,0
5.807,0.908,0
5.808,-2.205,0
5.809,0.542,0
5.81,3.105,0
5.811,4.204,0
5.812,4.387,0
5.813,5.12,0
5.814,7.866,0
5.815,3.838,0
5.816,8.965,0
5.817,19.219,0
5.818,41.741,0
5.819,51.262,0
5.82,24.529,0
5.821,-7.698,0
5.822,-20.515,0
5.823,-32.234,0
5.824,-28.755,0
5.825,-31.868,0
5.826,-28.938,0
5.827,-21.064,0
5.828,-18.684,0
5.829,-12.092,0
5.83,-10.078,0
5.831,-8.247,0
5.832,-6.599,0
5.833,-2.205,0
5.834,-3.486,0
5.835,-0.007,0
5.836,1.091,0
5.837,0.176,0
5.838,1.091,0
5.839,3.472,0
5.84,4.204,0
5.841,2.373,0
5.842,2.922,0
5.843,5.669,0
5.844,3.289,0
5.845,2.007,0
5.846,3.105,0
5.847,6.584,0
5.848,5.303,0
5.849,4.937,0
5.85,2.373,0
5.851,2.007,0
5.852,-0.74,0
5.853,0.359,0
5.854,2.19,0
5.855,1.458,0
5.856,2.739,0
5.857,-0.19,0
5.858,-1.289,0
5.859,-0.19,0
5.86,1.824,0
5.861,2.556,0
5.862,1.274,0
5.863,1.824,0
5.864,3.289,0
5.865,4.204,0
5.866,1.274,0
5.867,7.5,0
5.868,21.416,0
5.869,35.515,0
5.87,48.333,0
5.871,40.093,0
5.872,17.571,0
5.873,-24.727,0
5.874,-30.403,0
5.875,-35.53,0
5.876,-40.291,0
5.877,-27.473,0
5.878,-31.318,0
5.879,-20.698,0
5.88,-17.585,0
5.881,-14.656,0
5.882,-6.782,0
5.883,-4.402,0
5.884,-2.205,0
5.885,-4.219,0
5.886,1.274,0
5.887,2.922,0
5.888,4.387,0
5.889,3.105,0
5.89,2.007,0
5.891,0.908,0
5.892,1.824,0
5.893,6.401,0
5.894,7.134,0
5.895,7.866,0
5.896,8.416,0
5.897,6.584,0
5.898,7.134,0
5.899,5.852,0
5.9,5.486,0
5.901,0.908,0
5.902,1.458,0
5.903,3.105,0
5.904,1.824,0
5.905,4.021,0
5.906,2.007,0
5.907,4.57,0
5.908,2.739,0
5.909,-0.007,0
5.91,0.359,0
5.911,-0.74,0
5.912,3.289,0
5.913,2.739,0
5.914,6.035,0
5.915,2.922,0
5.916,2.007,0
5.917,-0.74,0
5.918,4.937,0
5.919,17.388,0
5.92,37.529,0
5.921,40.093,0
5.922,56.938,0
5.923,23.796,0
5.924,-0.007,0
5.925,-30.22,0
5.926,-34.065,0
5.927,-37.544,0
5.928,-34.431,0
5.929,-31.501,0
5.93,-28.938,0
5.931,-26.558,0
5.932,-19.966,0
5.933,-17.952,0
5.934,-16.121,0
5.935,-11.177,0
5.936,-6.782,0
5.937,-5.5,0
5.938,-2.021,0
5.939,-0.923,0
5.94,2.007,0
5.941,2.922,0
5.942,5.303,0
5.943,6.035,0
5.944,6.584,0
5.945,6.035,0
5.946,8.782,0
5.947,9.148,0
5.948,6.951,0
5.949,9.697,0
5.95,5.486,0
5.951,6.035,0
5.952,2.739,0
5.953,3.105,0
5.954,2.739,0
5.955,5.303,0
5.956,6.401,0
5.957,3.655,0
5.958,-1.289,0
5.959,2.007,0
5.96,3.838,0
5.961,1.091,0
5.962,6.584,0
5.963,7.317,0
5.964,5.486,0
5.965,6.035,0
5.966,2.19,0
5.967,2.007,0
5.968,-0.374,0
5.969,6.584,0
5.97,21.782,0
5.971,41.741,0
5.972,44.304,0
5.973,22.332,0
5.974,-4.402,0
5.975,-22.163,0
5.976,-31.685,0
5.977,-40.474,0
5.978,-37.91,0
5.979,-35.53,0
5.98,-28.938,0
5.981,-22.896,0
5.982,-13.74,0
5.983,-15.388,0
5.984,-10.994,0
5.985,-9.712,0
5.986,-3.669,0
5.987,-2.571,0
5.988,0.359,0
5.989,-0.557,0
5.99,5.12,0
5.991,1.274,0
5.992,5.852,0
5.993,7.683,0
5.994,7.134,0
5.995,5.852,0
5.996,10.063,0
5.997,10.613,0
5.998,10.247,0
5.999,11.528,0
6,5.303,0
6.001,8.049,0
6.002,4.021,0
6.003,4.753,0
6.004,5.303,0
6.005,7.134,0
6.006,3.289,0
6.007,2.922,0
6.008,-2.205,0
6.009,-2.754,0
6.01,-2.205,0
6.011,-1.655,0
6.012,-2.937,0
6.013,0.176,0
6.014,-0.923,0
6.015,-2.021,0
6.016,-0.19,0
6.017,-1.655,0
6.018,-2.388,0
6.019,-0.557,0
6.02,3.472,0
6.021,11.895,0
6.022,30.388,0
6.023,43.755,0
6.024,50.896,0
6.025,39.91,0
6.026,9.697,0
6.027,-29.304,0
6.028,-34.431,0
6.029,-39.192,0
6.03,-34.98,0
6.031,-38.826,0
6.032,-28.206,0
6.033,-18.684,0
6.034,-3.853,0
6.035,-11.726,0
6.036,-18.867,0
6.037,-21.064,0
6.038,-19.05,0
6.039,-13.557,0
6.04,-8.613,0
6.041,-7.148,0
6.042,-3.12,0
6.043,-2.021,0
6.044,3.655,0
6.045,4.57,0
6.046,7.317,0
6.047,6.584,0
6.048,11.895,0
6.049,12.444,0
6.05,10.613,0
6.051,14.458,0
6.052,8.965,0
6.053,6.768,0
6.054,7.317,0
6.055,9.148,0
6.056,7.5,0
6.057,8.782,0
6.058,4.57,0
6.059,6.218,0
6.06,7.5,0
6.061,9.697,0
6.062,9.331,0
6.063,5.852,0
6.064,1.641,0
6.065,4.387,0
6.066,3.105,0
6.067,4.387,0
6.068,1.641,0
6.069,2.007,0
6.07,3.105,0
6.071,8.599,0
6.072,20.134,0
6.073,45.037,0
6.074,48.516,0
6.075,19.219,0
6.076,-8.247,0
6.077,-26.008,0
6.078,-35.53,0
6.079,-32.6,0
6.08,-30.037,0
6.081,-32.417,0
6.082,-21.431,0
6.083,-19.417,0
6.084,-21.248,0
6.085,-13.008,0
6.086,-11.543,0
6.087,-10.261,0
6.088,-4.219,0
6.089,-3.12,0
6.09,3.838,0
6.091,2.922,0
6.092,6.951,0
6.093,4.753,0
6.094,2.922,0
6.095,6.035,0
6.096,4.387,0
6.097,5.669,0
6.098,5.303,0
6.099,4.937,0
6.1,2.373,0
6.101,4.204,0
6.102,4.387,0
6.103,3.655,0
6.104,5.486,0
6.105,2.007,0
6.106,1.641,0
6.107,-0.557,0
6.108,-0.923,0
6.109,-0.557,0
6.11,2.007,0
6.111,3.472,0
6.112,3.655,0
6.113,5.486,0
6.114,6.584,0
6.115,8.049,0
6.116,5.12,0
6.117,1.274,0
6.118,-2.021,0
6.119,-1.655,0
6.12,-4.585,0
6.121,-0.74,0
6.122,6.768,0
6.123,17.021,0
6.124,37.529,0
6.125,58.22,0
6.126,23.247,0
6.127,-10.078,0
6.128,-22.896,0
6.129,-34.614,0
6.13,-31.135,0
6.131,-28.022,0
6.132,-25.093,0
6.133,-22.529,0
6.134,-24.91,0
6.135,-18.318,0
6.136,-12.275,0
6.137,-10.444,0
6.138,-5.5,0
6.139,-6.965,0
6.14,-5.684,0
6.141,-2.205,0
6.142,1.091,0
6.143,2.007,0
6.144,2.922,0
6.145,5.303,0
6.146,9.148,0
6.147,10.979,0
6.148,12.81,0
6.149,13.359,0
6.15,16.655,0
6.151,19.768,0
6.152,23.613,0
6.153,19.036,0
6.154,25.994,0
6.155,30.571,0
6.156,31.304,0
6.157,29.106,0
6.158,22.881,0
6.159,20.5,0
6.16,16.655,0
6.161,12.078,0
6.162,8.965,0
6.163,0.542,0
6.164,-15.571,0
6.165,-22.163,0
6.166,-32.234,0
6.167,-37.727,0
6.168,-45.967,0
6.169,-41.572,0
6.17,-29.304,0
6.171,-21.431,0
6.172,-26.375,0
6.173,-24.91,0
6.174,-26.191,0
6.175,-10.078,0
6.176,-43.22,0
6.177,-86.25,0
6.178,-126.53,0
6.179,-152.72,0
6.18,-167,0
6.181,-162.79,0
6.182,-166.63,0
6.183,-148.87,0
6.184,-132.76,0
6.185,-112.07,0
6.186,-71.785,0
6.187,14.824,0
6.188,101.98,0
6.189,135.67,0
6.19,145.93,0
6.191,136.59,0
6.192,111.32,0
6.193,103.63,0
6.194,96.672,0
6.195,90.447,0
6.196,96.123,0
6.197,111.69,0
6.198,125.97,0
6.199,147.58,0
6.2,151.42,0
6.201,154.9,0
6.202,145.38,0
6.203,136.59,0
6.204,123.22,0
6.205,111.14,0
6.206,86.785,0
6.207,70.671,0
6.208,43.938,0
6.209,33.318,0
6.21,30.205,0
6.211,21.416,0
6.212,23.979,0
6.213,16.838,0
6.214,5.852,0
6.215,-4.219,0
6.216,-20.698,0
6.217,-22.896,0
6.218,-28.938,0
6.219,-30.769,0
6.22,-39.009,0
6.221,-43.403,0
6.222,-48.53,0
6.223,-47.249,0
6.224,-36.079,0
6.225,-31.685,0
6.226,-19.417,0
6.227,-1.106,0
6.228,-37.544,0
6.229,-53.108,0
6.23,-86.433,0
6.231,-99.25,0
6.232,-103.1,0
6.233,-99.617,0
6.234,-96.504,0
6.235,-87.715,0
6.236,-79.841,0
6.237,-72.7,0
6.238,-57.319,0
6.239,-55.305,0
6.24,-46.15,0
6.241,-41.206,0
6.242,-33.699,0
6.243,-29.67,0
6.244,-21.248,0
6.245,-15.571,0
6.246,-12.642,0
6.247,-9.895,0
6.248,-0.74,0
6.249,-1.838,0
6.25,-0.74,0
6.251,2.19,0
6.252,1.274,0
6.253,3.655,0
6.254,4.387,0
6.255,10.613,0
6.256,8.232,0
6.257,10.43,0
6.258,10.979,0
6.259,10.43,0
6.26,8.782,0
6.261,8.416,0
6.262,9.697,0
6.263,12.444,0
6.264,15.007,0
6.265,15.374,0
6.266,10.796,0
6.267,8.965,0
6.268,5.852,0
6.269,7.5,0
6.27,7.866,0
6.271,8.232,0
6.272,7.866,0
6.273,10.796,0
6.274,6.584,0
6.275,4.937,0
6.276,8.232,0
6.277,7.866,0
6.278,10.613,0
6.279,16.289,0
6.28,28.74,0
6.281,15.923,0
6.282,17.571,0
6.283,21.965,0
6.284,36.98,0
6.285,51.079,0
6.286,41.924,0
6.287,17.021,0
6.288,-22.346,0
6.289,-37.91,0
6.29,-33.149,0
6.291,-37.361,0
6.292,-33.516,0
6.293,-30.037,0
6.294,-20.515,0
6.295,-17.585,0
6.296,-9.712,0
6.297,-7.332,0
6.298,-5.134,0
6.299,0.908,0
6.3,-0.923,0
6.301,4.021,0
6.302,5.486,0
6.303,6.768,0
6.304,7.866,0
6.305,8.965,0
6.306,13.909,0
6.307,14.824,0
6.308,12.444,0
6.309,8.599,0
6.31,10.43,0
6.311,9.88,0
6.312,8.232,0
6.313,11.528,0
6.314,13.726,0
6.315,9.148,0
6.316,7.317,0
6.317,7.866,0
6.318,4.57,0
6.319,2.373,0
6.32,5.12,0
6.321,6.951,0
6.322,2.19,0
6.323,1.641,0
6.324,2.739,0
6.325,3.289,0
6.326,10.796,0
6.327,27.825,0
6.328,39.91,0
6.329,46.501,0
6.33,60.601,0
6.331,33.135,0
6.332,13.542,0
6.333,2.922,0
6.334,-0.19,0
6.335,8.599,0
6.336,0.725,0
6.337,-30.952,0
6.338,-61.165,0
6.339,-65.01,0
6.34,-61.531,0
6.341,-58.418,0
6.342,-49.629,0
6.343,-41.755,0
6.344,-29.67,0
6.345,-23.079,0
6.346,-17.036,0
6.347,-7.881,0
6.348,0.359,0
6.349,1.824,0
6.35,3.105,0
6.351,6.584,0
6.352,7.683,0
6.353,10.613,0
6.354,13.359,0
6.355,15.74,0
6.356,15.007,0
6.357,14.458,0
6.358,11.345,0
6.359,16.472,0
6.36,14.641,0
6.361,14.092,0
6.362,15.74,0
6.363,12.444,0
6.364,13.726,0
6.365,14.824,0
6.366,9.148,0
6.367,3.472,0
6.368,5.669,0
6.369,6.218,0
6.37,3.105,0
6.371,3.655,0
6.372,1.274,0
6.373,1.641,0
6.374,-2.205,0
6.375,1.274,0
6.376,-2.021,0
6.377,4.937,0
6.378,20.134,0
6.379,35.515,0
6.38,53.643,0
6.381,56.023,0
6.382,27.275,0
6.383,-16.121,0
6.384,-33.333,0
6.385,-38.459,0
6.386,-33.699,0
6.387,-37.91,0
6.388,-34.065,0
6.389,-30.586,0
6.39,-21.064,0
6.391,-23.994,0
6.392,-16.121,0
6.393,-13.74,0
6.394,-11.543,0
6.395,-9.529,0
6.396,-4.036,0
6.397,0.908,0
6.398,2.373,0
6.399,3.655,0
6.4,0.176,0
6.401,3.472,0
6.402,2.556,0
6.403,5.303,0
6.404,4.57,0
6.405,6.768,0
6.406,6.218,0
6.407,4.387,0
6.408,4.937,0
6.409,6.218,0
6.41,6.584,0
6.411,5.486,0
6.412,10.43,0
6.413,8.599,0
6.414,6.768,0
6.415,6.218,0
6.416,7.5,0
6.417,0.542,0
6.418,3.472,0
6.419,2.556,0
6.42,1.824,0
6.421,-0.374,0
6.422,0.176,0
6.423,4.57,0
6.424,-0.557,0
6.425,-3.853,0
6.426,-3.12,0
6.427,3.838,0
6.428,17.754,0
6.429,27.825,0
6.43,44.304,0
6.431,50.896,0
6.432,56.938,0
6.433,29.473,0
6.434,-13.923,0
6.435,-31.135,0
6.436,-36.262,0
6.437,-41.023,0
6.438,-36.812,0
6.439,-32.966,0
6.44,-29.487,0
6.441,-32.6,0
6.442,-23.811,0
6.443,-15.937,0
6.444,-13.557,0
6.445,-6.965,0
6.446,-4.951,0
6.447,0.542,0
6.448,-1.106,0
6.449,3.289,0
6.45,-0.74,0
6.451,2.739,0
6.452,6.035,0
6.453,6.951,0
6.454,11.528,0
6.455,12.261,0
6.456,11.528,0
6.457,6.951,0
6.458,6.401,0
6.459,4.753,0
6.46,6.035,0
6.461,6.401,0
6.462,6.768,0
6.463,8.599,0
6.464,6.768,0
6.465,7.5,0
6.466,3.289,0
6.467,-1.106,0
6.468,-0.557,0
6.469,1.824,0
6.47,4.021,0
6.471,-0.557,0
6.472,2.556,0
6.473,-0.19,0
6.474,-3.486,0
6.475,-1.289,0
6.476,-5.134,0
6.477,-0.19,0
6.478,4.387,0
6.479,13.909,0
6.48,28.923,0
6.481,47.051,0
6.482,59.136,0
6.483,34.783,0
6.484,5.486,0
6.485,-21.98,0
6.486,-32.6,0
6.487,-35.713,0
6.488,-32.783,0
6.489,-30.22,0
6.49,-27.839,0
6.491,-30.037,0
6.492,-23.994,0
6.493,-14.839,0
6.494,-9.895,0
6.495,-8.43,0
6.496,-4.402,0
6.497,1.641,0
6.498,2.739,0
6.499,3.655,0
6.5,2.739,0
6.501,3.472,0
6.502,5.669,0
6.503,3.838,0
6.504,4.387,0
6.505,6.035,0
6.506,7.317,0
6.507,3.105,0
6.508,1.458,0
6.509,1.824,0
6.51,4.937,0
6.511,6.951,0
6.512,5.852,0
6.513,6.951,0
6.514,8.416,0
6.515,4.753,0
6.516,-0.74,0
6.517,-1.472,0
6.518,0.359,0
6.519,0.908,0
6.52,-0.74,0
6.521,3.838,0
6.522,2.007,0
6.523,1.458,0
6.524,8.965,0
6.525,25.994,0
6.526,28.374,0
6.527,4.021,0
6.528,-8.979,0
6.529,-5.867,0
6.53,-8.796,0
6.531,-0.923,0
6.532,21.05,0
6.533,29.839,0
6.534,32.402,0
6.535,44.487,0
6.536,15.74,0
6.537,-19.783,0
6.538,-34.065,0
6.539,-38.276,0
6.54,-42.122,0
6.541,-38.643,0
6.542,-35.53,0
6.543,-32.6,0
6.544,-24.727,0
6.545,-17.585,0
6.546,-15.388,0
6.547,-5.317,0
6.548,-3.486,0
6.549,-1.838,0
6.55,-3.303,0
6.551,0.725,0
6.552,4.204,0
6.553,5.303,0
6.554,8.232,0
6.555,7.317,0
6.556,9.697,0
6.557,8.965,0
6.558,4.387,0
6.559,4.937,0
6.56,7.683,0
6.561,6.401,0
6.562,6.768,0
6.563,7.134,0
6.564,8.965,0
6.565,5.669,0
6.566,6.035,0
6.567,4.937,0
6.568,1.641,0
6.569,4.387,0
6.57,0.176,0
6.571,1.824,0
6.572,1.458,0
6.573,0.176,0
6.574,-1.838,0
6.575,-2.205,0
6.576,-1.838,0
6.577,0.176,0
6.578,2.007,0
6.579,5.669,0
6.58,1.641,0
6.581,10.063,0
6.582,28.557,0
6.583,52.727,0
6.584,55.84,0
6.585,29.106,0
6.586,-10.261,0
6.587,-25.825,0
6.588,-30.586,0
6.589,-26.375,0
6.59,-30.22,0
6.591,-33.699,0
6.592,-24.177,0
6.593,-21.248,0
6.594,-13.374,0
6.595,-10.994,0
6.596,-8.796,0
6.597,-2.754,0
6.598,-0.923,0
6.599,0.725,0
6.6,-3.669,0
6.601,-2.388,0
6.602,-1.289,0
6.603,4.387,0
6.604,3.472,0
6.605,6.218,0
6.606,2.19,0
6.607,4.387,0
6.608,1.091,0
6.609,2.922,0
6.61,5.669,0
6.611,6.035,0
6.612,6.401,0
6.613,5.303,0
6.614,5.669,0
6.615,2.373,0
6.616,5.12,0
6.617,-0.557,0
6.618,3.472,0
6.619,5.669,0
6.62,3.838,0
6.621,4.387,0
6.622,3.838,0
6.623,3.472,0
6.624,3.105,0
6.625,-2.388,0
6.626,-3.12,0
6.627,-1.289,0
6.628,-0.74,0
6.629,3.105,0
6.63,2.739,0
6.631,3.105,0
6.632,10.063,0
6.633,23.247,0
6.634,39.727,0
6.635,50.713,0
6.636,44.67,0
6.637,17.205,0
6.638,-18.318,0
6.639,-32.6,0
6.64,-36.812,0
6.641,-40.657,0
6.642,-37.178,0
6.643,-34.065,0
6.644,-25.276,0
6.645,-22.712,0
6.646,-15.571,0
6.647,-13.374,0
6.648,-7.332,0
6.649,-5.5,0
6.65,-7.148,0
6.651,-2.754,0
6.652,4.021,0
6.653,0.542,0
6.654,1.641,0
6.655,0.725,0
6.656,5.303,0
6.657,1.274,0
6.658,2.007,0
6.659,2.556,0
6.66,8.232,0
6.661,6.035,0
6.662,6.584,0
6.663,9.697,0
6.664,8.049,0
6.665,9.331,0
6.666,6.218,0
6.667,1.641,0
6.668,4.753,0
6.669,3.105,0
6.67,6.401,0
6.671,4.204,0
6.672,3.105,0
6.673,2.739,0
6.674,-0.557,0
6.675,1.458,0
6.676,1.091,0
6.677,1.458,0
6.678,1.274,0
6.679,4.937,0
6.68,5.303,0
6.681,4.204,0
6.682,-2.754,0
6.683,10.43,0
6.684,12.261,0
6.685,37.163,0
6.686,47.783,0
6.687,25.261,0
6.688,-13.374,0
6.689,-28.938,0
6.69,-33.699,0
6.691,-29.487,0
6.692,-33.333,0
6.693,-29.854,0
6.694,-20.332,0
6.695,-17.402,0
6.696,-14.839,0
6.697,-7.698,0
6.698,-5.5,0
6.699,-3.486,0
6.7,-1.655,0
6.701,-3.303,0
6.702,-1.838,0
6.703,-0.557,0
6.704,0.542,0
6.705,1.641,0
6.706,2.556,0
6.707,-0.19,0
6.708,-0.923,0
6.709,2.922,0
6.71,2.373,0
6.711,5.486,0
6.712,3.838,0
6.713,5.12,0
6.714,6.401,0
6.715,7.5,0
6.716,4.021,0
6.717,4.387,0
6.718,2.373,0
6.719,0.542,0
6.72,6.035,0
6.721,3.838,0
6.722,2.007,0
6.723,0.176,0
6.724,0.725,0
6.725,1.091,0
6.726,-2.021,0
6.727,1.824,0
6.728,5.12,0
6.729,6.401,0
6.73,6.768,0
6.731,4.204,0
6.732,6.401,0
6.733,0.908,0
6.734,12.444,0
6.735,20.684,0
6.736,43.206,0
6.737,52.727,0
6.738,43.938,0
6.739,14.458,0
6.74,-21.064,0
6.741,-35.347,0
6.742,-39.558,0
6.743,-35.713,0
6.744,-39.192,0
6.745,-29.67,0
6.746,-26.741,0
6.747,-18.867,0
6.748,-16.487,0
6.749,-14.29,0
6.75,-12.275,0
6.751,-10.444,0
6.752,-2.205,0
6.753,-3.669,0
6.754,0.359,0
6.755,-0.74,0
6.756,0.359,0
6.757,3.289,0
6.758,6.035,0
6.759,3.655,0
6.76,1.458,0
6.761,4.753,0
6.762,9.148,0
6.763,9.697,0
6.764,12.993,0
6.765,7.866,0
6.766,9.697,0
6.767,5.303,0
6.768,5.852,0
6.769,4.57,0
6.77,11.528,0
6.771,26.726,0
6.772,24.529,0
6.773,6.401,0
6.774,-5.684,0
6.775,-12.275,0
6.776,-10.261,0
6.777,-12.092,0
6.778,-10.444,0
6.779,-8.979,0
6.78,-4.951,0
6.781,-3.853,0
6.782,-2.754,0
6.783,-2.388,0
6.784,-3.303,0
6.785,5.12,0
6.786,19.951,0
6.787,42.107,0
6.788,56.938,0
6.789,49.065,0
6.79,12.627,0
6.791,-23.994,0
6.792,-38.276,0
6.793,-34.065,0
6.794,-37.91,0
6.795,-34.431,0
6.796,-31.318,0
6.797,-22.529,0
6.798,-14.656,0
6.799,-7.515,0
6.8,-9.712,0
6.801,-7.698,0
6.802,-2.205,0
6.803,2.739,0
6.804,7.134,0
6.805,5.852,0
6.806,6.951,0
6.807,5.852,0
6.808,0.908,0
6.809,-0.007,0
6.81,9.148,0
6.811,8.049,0
6.812,9.148,0
6.813,8.232,0
6.814,7.317,0
6.815,8.049,0
6.816,5.852,0
6.817,9.148,0
6.818,6.035,0
6.819,4.387,0
6.82,5.669,0
6.821,6.035,0
6.822,4.021,0
6.823,8.965,0
6.824,1.458,0
6.825,-1.472,0
6.826,1.274,0
6.827,2.007,0
6.828,2.739,0
6.829,0.908,0
6.83,5.303,0
6.831,4.753,0
6.832,1.458,0
6.833,-2.754,0
6.834,-5.317,0
6.835,-3.669,0
6.836,3.838,0
6.837,18.669,0
6.838,36.797,0
6.839,48.882,0
6.84,28.923,0
6.841,-6.05,0
6.842,-29.854,0
6.843,-34.065,0
6.844,-30.22,0
6.845,-33.699,0
6.846,-30.586,0
6.847,-21.797,0
6.848,-19.233,0
6.849,-16.853,0
6.85,-14.656,0
6.851,-12.642,0
6.852,-10.811,0
6.853,-5.867,0
6.854,-4.402,0
6.855,2.373,0
6.856,1.274,0
6.857,0.176,0
6.858,-4.768,0
6.859,-3.853,0
6.86,1.824,0
6.861,5.669,0
6.862,3.838,0
6.863,8.232,0
6.864,7.683,0
6.865,8.049,0
6.866,4.937,0
6.867,3.838,0
6.868,4.937,0
6.869,2.373,0
6.87,2.19,0
6.871,6.401,0
6.872,5.852,0
6.873,5.303,0
6.874,4.021,0
6.875,0.908,0
6.876,2.922,0
6.877,3.289,0
6.878,3.655,0
6.879,2.19,0
6.88,6.401,0
6.881,4.57,0
6.882,2.922,0
6.883,-0.374,0
6.884,-1.655,0
6.885,-1.655,0
6.886,2.19,0
6.887,9.697,0
6.888,24.529,0
6.889,42.656,0
6.89,49.797,0
6.891,43.206,0
6.892,12.993,0
6.893,-17.219,0
6.894,-36.812,0
6.895,-33.333,0
6.896,-36.445,0
6.897,-33.516,0
6.898,-25.642,0
6.899,-18.501,0
6.9,-25.093,0
6.901,-19.05,0
6.902,-17.219,0
6.903,-12.275,0
6.904,-4.768,0
6.905,-0.74,0
6.906,0.359,0
6.907,1.458,0
6.908,0.542,0
6.909,5.12,0
6.91,9.148,0
6.911,12.993,0
6.912,14.824,0
6.913,20.5,0
6.914,21.233,0
6.915,25.811,0
6.916,30.205,0
6.917,30.754,0
6.918,29.473,0
6.919,28.191,0
6.92,25.444,0
6.921,21.965,0
6.922,15.007,0
6.923,12.078,0
6.924,3.655,0
6.925,-8.796,0
6.926,-17.036,0
6.927,-27.473,0
6.928,-28.755,0
6.929,-37.178,0
6.93,-33.882,0
6.931,-28.938,0
6.932,-15.022,0
6.933,-21.064,0
6.934,-37.544,0
6.935,-52.925,0
6.936,-64.644,0
6.937,-86.799,0
6.938,-89.729,0
6.939,-87.166,0
6.94,-75.081,0
6.941,-90.461,0
6.942,-104.56,0
6.943,-117.38,0
6.944,-138.98,0
6.945,-153.82,0
6.946,-145.94,0
6.947,-109.5,0
6.948,-41.206,0
6.949,42.839,0
6.95,76.531,0
6.951,107.29,0
6.952,116.63,0
6.953,108.21,0
6.954,100.52,0
6.955,93.56,0
6.956,99.785,0
6.957,94.109,0
6.958,109.67,0
6.959,123.95,0
6.96,154.17,0
6.961,165.89,0
6.962,162.41,0
6.963,159.29,0
6.964,150.5,0
6.965,142.63,0
6.966,125.79,0
6.967,97.039,0
6.968,77.446,0
6.969,59.685,0
6.97,50.164,0
6.971,35.332,0
6.972,32.769,0
6.973,25.627,0
6.974,10.247,0
6.975,0.176,0
6.976,-5.317,0
6.977,-16.853,0
6.978,-24.36,0
6.979,-23.079,0
6.98,-31.501,0
6.981,-41.755,0
6.982,-43.037,0
6.983,-51.46,0
6.984,-52.559,0
6.985,-53.474,0
6.986,-54.39,0
6.987,-61.714,0
6.988,-62.446,0
6.989,-50.911,0
6.99,-35.896,0
6.991,-21.797,0
6.992,-12.642,0
6.993,-37.544,0
6.994,-76.912,0
6.995,-82.039,0
6.996,-86.799,0
6.997,-82.588,0
6.998,-78.743,0
6.999,-75.264,0
7,-65.742,0
7.001,-62.812,0
7.002,-54.939,0
7.003,-47.798,0
7.004,-36.812,0
7.005,-26.741,0
7.006,-21.248,0
7.007,-19.6,0
7.008,-15.205,0
7.009,-11.177,0
7.01,-0.007,0
7.011,-4.402,0
7.012,7.866,0
7.013,6.218,0
7.014,7.683,0
7.015,8.965,0
7.016,17.388,0
7.017,34.417,0
7.018,27.275,0
7.019,7.317,0
7.02,-0.557,0
7.021,-2.937,0
7.022,-5.134,0
7.023,-3.12,0
7.024,-4.951,0
7.025,-0.007,0
7.026,4.387,0
7.027,8.416,0
7.028,9.514,0
7.029,8.416,0
7.03,9.331,0
7.031,10.247,0
7.032,10.979,0
7.033,5.669,0
7.034,10.247,0
7.035,8.416,0
7.036,8.965,0
7.037,6.584,0
7.038,8.599,0
7.039,6.401,0
7.04,12.627,0
7.041,26.543,0
7.042,44.67,0
7.043,51.812,0
7.044,45.22,0
7.045,43.206,0
7.046,37.712,0
7.047,19.402,0
7.048,-7.332,0
7.049,-39.558,0
7.05,-43.77,0
7.051,-47.615,0
7.052,-44.136,0
7.053,-34.614,0
7.054,-31.685,0
7.055,-23.811,0
7.056,-21.431,0
7.057,-14.839,0
7.058,-8.796,0
7.059,-6.965,0
7.06,1.274,0
7.061,5.669,0
7.062,9.697,0
7.063,13.176,0
7.064,9.88,0
7.065,10.796,0
7.066,9.88,0
7.067,9.148,0
7.068,9.88,0
7.069,8.049,0
7.07,11.162,0
7.071,12.81,0
7.072,10.43,0
7.073,9.148,0
7.074,7.134,0
7.075,8.232,0
7.076,6.401,0
7.077,9.697,0
7.078,4.57,0
7.079,9.148,0
7.08,7.317,0
7.081,8.965,0
7.082,7.683,0
7.083,1.641,0
7.084,2.373,0
7.085,1.641,0
7.086,2.19,0
7.087,0.359,0
7.088,2.007,0
7.089,2.739,0
7.09,3.105,0
7.091,5.303,0
7.092,11.528,0
7.093,25.444,0
7.094,51.628,0
7.095,55.107,0
7.096,25.811,0
7.097,-9.712,0
7.098,-33.516,0
7.099,-37.727,0
7.1,-41.572,0
7.101,-38.093,0
7.102,-34.98,0
7.103,-26.191,0
7.104,-23.628,0
7.105,-21.248,0
7.106,-14.656,0
7.107,-12.642,0
7.108,-10.811,0
7.109,-5.867,0
7.11,-1.472,0
7.111,-0.19,0
7.112,0.908,0
7.113,4.204,0
7.114,9.148,0
7.115,6.401,0
7.116,2.373,0
7.117,7.683,0
7.118,8.232,0
7.119,6.401,0
7.12,3.655,0
7.121,4.021,0
7.122,1.824,0
7.123,3.838,0
7.124,5.669,0
7.125,6.035,0
7.126,3.289,0
7.127,6.768,0
7.128,2.556,0
7.129,6.401,0
7.13,6.768,0
7.131,6.401,0
7.132,4.387,0
7.133,2.556,0
7.134,-1.472,0
7.135,-1.106,0
7.136,-3.303,0
7.137,-0.557,0
7.138,-2.388,0
7.139,-0.557,0
7.14,0.542,0
7.141,-0.923,0
7.142,3.289,0
7.143,12.81,0
7.144,33.318,0
7.145,42.107,0
7.146,55.474,0
7.147,28.74,0
7.148,-10.627,0
7.149,-36.812,0
7.15,-41.572,0
7.151,-45.784,0
7.152,-41.938,0
7.153,-38.459,0
7.154,-28.938,0
7.155,-26.008,0
7.156,-18.135,0
7.157,-15.754,0
7.158,-13.557,0
7.159,-11.543,0
7.16,-2.388,0
7.161,-4.036,0
7.162,0.359,0
7.163,1.641,0
7.164,2.739,0
7.165,8.416,0
7.166,3.472,0
7.167,4.387,0
7.168,5.12,0
7.169,7.317,0
7.17,5.486,0
7.171,7.317,0
7.172,7.866,0
7.173,8.232,0
7.174,3.105,0
7.175,6.401,0
7.176,3.289,0
7.177,8.416,0
7.178,6.584,0
7.179,8.416,0
7.18,4.57,0
7.181,7.866,0
7.182,2.739,0
7.183,6.035,0
7.184,1.641,0
7.185,4.387,0
7.186,3.105,0
7.187,5.303,0
7.188,4.204,0
7.189,4.57,0
7.19,0.542,0
7.191,-0.19,0
7.192,0.176,0
7.193,7.134,0
7.194,22.332,0
7.195,55.474,0
7.196,60.234,0
7.197,30.022,0
7.198,-5.5,0
7.199,-29.304,0
7.2,-33.516,0
7.201,-29.67,0
7.202,-26.191,0
7.203,-29.304,0
7.204,-26.375,0
7.205,-23.811,0
7.206,-16.67,0
7.207,-14.473,0
7.208,-12.458,0
7.209,-6.965,0
7.21,-2.021,0
7.211,-0.557,0
7.212,0.725,0
7.213,1.824,0
7.214,2.922,0
7.215,5.852,0
7.216,3.105,0
7.217,2.373,0
7.218,3.105,0
7.219,2.556,0
7.22,3.105,0
7.221,1.458,0
7.222,3.838,0
7.223,3.472,0
7.224,3.838,0
7.225,2.007,0
7.226,0.176,0
7.227,4.204,0
7.228,3.655,0
7.229,1.274,0
7.23,4.387,0
7.231,3.289,0
7.232,2.922,0
7.233,1.824,0
7.234,-0.19,0
7.235,4.021,0
7.236,0.908,0
7.237,0.359,0
7.238,2.739,0
7.239,1.458,0
7.24,1.091,0
7.241,-0.007,0
7.242,-1.655,0
7.243,-1.289,0
7.244,3.289,0
7.245,13.542,0
7.246,36.064,0
7.247,58.586,0
7.248,49.797,0
7.249,14.824,0
7.25,-28.206,0
7.251,-33.882,0
7.252,-39.009,0
7.253,-34.248,0
7.254,-38.459,0
7.255,-34.614,0
7.256,-23.994,0
7.257,-27.107,0
7.258,-18.318,0
7.259,-10.444,0
7.26,-8.064,0
7.261,-1.472,0
7.262,20.684,0
7.263,29.473,0
7.264,16.106,0
7.265,-0.74,0
7.266,-7.332,0
7.267,-9.346,0
7.268,-7.515,0
7.269,-5.867,0
7.27,-7.332,0
7.271,-0.557,0
7.272,-1.655,0
7.273,1.641,0
7.274,2.556,0
7.275,-0.19,0
7.276,0.542,0
7.277,2.739,0
7.278,3.289,0
7.279,1.458,0
7.28,5.303,0
7.281,5.669,0
7.282,6.035,0
7.283,3.289,0
7.284,4.387,0
7.285,0.359,0
7.286,2.739,0
7.287,3.105,0
7.288,5.852,0
7.289,4.021,0
7.29,2.19,0
7.291,1.458,0
7.292,2.19,0
7.293,2.739,0
7.294,1.458,0
7.295,4.937,0
7.296,12.444,0
7.297,29.473,0
7.298,61.15,0
7.299,30.938,0
7.3,-4.585,0
7.301,-28.389,0
7.302,-32.6,0
7.303,-36.445,0
7.304,-32.966,0
7.305,-29.854,0
7.306,-26.924,0
7.307,-24.36,0
7.308,-17.219,0
7.309,-15.022,0
7.31,-8.979,0
7.311,-7.148,0
7.312,-2.205,0
7.313,-0.74,0
7.314,-2.021,0
7.315,4.021,0
7.316,2.922,0
7.317,2.007,0
7.318,2.922,0
7.319,5.303,0
7.32,4.57,0
7.321,9.148,0
7.322,3.472,0
7.323,5.669,0
7.324,2.373,0
7.325,1.824,0
7.326,2.373,0
7.327,5.669,0
7.328,2.556,0
7.329,3.655,0
7.33,2.556,0
7.331,7.317,0
7.332,2.922,0
7.333,0.176,0
7.334,1.458,0
7.335,0.176,0
7.336,2.922,0
7.337,4.021,0
7.338,-0.007,0
7.339,-1.289,0
7.34,0.908,0
7.341,-1.838,0
7.342,3.105,0
7.343,3.655,0
7.344,-0.19,0
7.345,2.922,0
7.346,11.345,0
7.347,17.388,0
7.348,34.417,0
7.349,56.389,0
7.35,35.698,0
7.351,-4.585,0
7.352,-21.797,0
7.353,-37.361,0
7.354,-32.6,0
7.355,-36.812,0
7.356,-32.966,0
7.357,-29.487,0
7.358,-26.375,0
7.359,-17.585,0
7.36,-15.022,0
7.361,-12.642,0
7.362,-1.655,0
7.363,0.359,0
7.364,2.19,0
7.365,0.542,0
7.366,2.007,0
7.367,-2.021,0
7.368,4.021,0
7.369,0.725,0
7.37,3.655,0
7.371,6.401,0
7.372,8.782,0
7.373,4.937,0
7.374,3.105,0
7.375,6.218,0
7.376,5.669,0
7.377,6.035,0
7.378,3.838,0
7.379,5.852,0
7.38,4.753,0
7.381,7.317,0
7.382,3.289,0
7.383,2.739,0
7.384,-0.557,0
7.385,-0.19,0
7.386,2.556,0
7.387,1.458,0
7.388,-1.838,0
7.389,0.908,0
7.39,1.274,0
7.391,-1.289,0
7.392,0.725,0
7.393,3.289,0
7.394,-0.74,0
7.395,2.739,0
7.396,1.458,0
7.397,8.416,0
7.398,23.613,0
7.399,43.572,0
7.4,56.938,0
7.401,30.205,0
7.402,-2.021,0
7.403,-23.628,0
7.404,-35.347,0
7.405,-31.868,0
7.406,-34.98,0
7.407,-32.051,0
7.408,-29.487,0
7.409,-22.346,0
7.41,-15.754,0
7.411,-13.74,0
7.412,-11.909,0
7.413,-3.669,0
7.414,-2.205,0
7.415,-0.923,0
7.416,2.556,0
7.417,1.458,0
7.418,4.387,0
7.419,3.472,0
7.42,2.739,0
7.421,3.472,0
7.422,5.303,0
7.423,4.753,0
7.424,6.401,0
7.425,4.021,0
7.426,5.303,0
7.427,4.937,0
7.428,3.838,0
7.429,5.669,0
7.43,8.416,0
7.431,3.472,0
7.432,2.922,0
7.433,-0.19,0
7.434,-1.838,0
7.435,4.753,0
7.436,3.838,0
7.437,-0.19,0
7.438,2.007,0
7.439,3.838,0
7.44,-1.838,0
7.441,-1.106,0
7.442,-0.557,0
7.443,-0.007,0
7.444,0.542,0
7.445,0.908,0
7.446,1.274,0
7.447,1.641,0
7.448,7.866,0
7.449,19.951,0
7.45,44.854,0
7.451,55.474,0
7.452,32.952,0
7.453,-11.543,0
7.454,-30.403,0
7.455,-36.079,0
7.456,-30.952,0
7.457,-35.713,0
7.458,-31.501,0
7.459,-27.656,0
7.46,-24.177,0
7.461,-14.656,0
7.462,-11.726,0
7.463,-9.163,0
7.464,-2.021,0
7.465,0.176,0
7.466,-1.838,0
7.467,-0.007,0
7.468,1.641,0
7.469,3.105,0
7.47,7.134,0
7.471,1.091,0
7.472,8.965,0
7.473,8.049,0
7.474,3.472,0
7.475,7.5,0
7.476,5.303,0
7.477,5.852,0
7.478,7.683,0
7.479,6.035,0
7.48,7.317,0
7.481,8.599,0
7.482,4.753,0
7.483,5.12,0
7.484,3.838,0
7.485,6.584,0
7.486,0.908,0
7.487,1.641,0
7.488,-0.557,0
7.489,-0.007,0
7.49,-0.557,0
7.491,-1.106,0
7.492,0.176,0
7.493,-2.021,0
7.494,-1.655,0
7.495,-0.557,0
7.496,-2.388,0
7.497,-0.19,0
7.498,3.105,0
7.499,-2.021,0
7.5,-0.19,0
7.501,0.359,0
7.502,-0.19,0
7.503,-2.571,0
7.504,-1.289,0
7.505,-0.923,0
7.506,-0.557,0
7.507,4.937,0
7.508,16.472,0
7.509,21.416,0
7.51,4.937,0
7.511,2.739,0
7.512,16.838,0
7.513,25.994,0
7.514,47.6,0
7.515,32.769,0
7.516,-2.205,0
7.517,-26.008,0
7.518,-38.826,0
7.519,-42.671,0
7.52,-39.192,0
7.521,-36.079,0
7.522,-33.149,0
7.523,-25.276,0
7.524,-22.896,0
7.525,-16.304,0
7.526,-10.261,0
7.527,-8.43,0
7.528,-3.486,0
7.529,-2.021,0
7.53,2.007,0
7.531,5.486,0
7.532,4.387,0
7.533,3.472,0
7.534,4.387,0
7.535,5.12,0
7.536,8.965,0
7.537,7.134,0
7.538,5.303,0
7.539,6.951,0
7.54,8.232,0
7.541,9.514,0
7.542,4.937,0
7.543,8.049,0
7.544,7.5,0
7.545,8.782,0
7.546,3.655,0
7.547,5.486,0
7.548,8.599,0
7.549,4.204,0
7.55,12.627,0
7.551,26.177,0
7.552,42.656,0
7.553,44.854,0
7.554,54.924,0
7.555,38.445,0
7.556,5.303,0
7.557,-28.022,0
7.558,-40.84,0
7.559,-44.685,0
7.56,-41.206,0
7.561,-38.093,0
7.562,-29.304,0
7.563,-26.741,0
7.564,-14.656,0
7.565,-16.853,0
7.566,-14.839,0
7.567,-13.008,0
7.568,-4.768,0
7.569,-6.233,0
7.57,-4.951,0
7.571,3.472,0
7.572,4.57,0
7.573,7.5,0
7.574,4.753,0
7.575,5.486,0
7.576,7.683,0
7.577,8.232,0
7.578,7.683,0
7.579,10.43,0
7.58,9.148,0
7.581,10.43,0
7.582,11.528,0
7.583,6.584,0
7.584,7.134,0
7.585,7.683,0
7.586,2.556,0
7.587,5.852,0
7.588,1.458,0
7.589,2.007,0
7.59,-3.486,0
7.591,-4.219,0
7.592,-4.768,0
7.593,-0.374,0
7.594,-0.923,0
7.595,-0.557,0
7.596,0.725,0
7.597,3.472,0
7.598,0.908,0
7.599,6.401,0
7.6,0.908,0
7.601,10.979,0
7.602,28.74,0
7.603,40.825,0
7.604,51.812,0
7.605,21.599,0
7.606,-0.007,0
7.607,-27.473,0
7.608,-30.952,0
7.609,-34.065,0
7.61,-31.135,0
7.611,-33.699,0
7.612,-31.318,0
7.613,-29.121,0
7.614,-19.05,0
7.615,-17.219,0
7.616,-15.571,0
7.617,-11.177,0
7.618,-4.402,0
7.619,1.641,0
7.62,4.937,0
7.621,5.852,0
7.622,4.937,0
7.623,2.556,0
7.624,3.289,0
7.625,6.584,0
7.626,6.035,0
7.627,9.88,0
7.628,7.5,0
7.629,7.134,0
7.63,8.232,0
7.631,6.401,0
7.632,8.232,0
7.633,4.204,0
7.634,4.753,0
7.635,7.134,0
7.636,4.937,0
7.637,5.303,0
7.638,6.401,0
7.639,8.232,0
7.64,5.486,0
7.641,4.387,0
7.642,0.359,0
7.643,3.655,0
7.644,-3.303,0
7.645,1.641,0
7.646,0.725,0
7.647,4.753,0
7.648,0.908,0
7.649,1.458,0
7.65,-0.19,0
7.651,0.359,0
7.652,8.782,0
7.653,24.895,0
7.654,35.881,0
7.655,45.952,0
7.656,51.445,0
7.657,26.543,0
7.658,-12.825,0
7.659,-39.009,0
7.66,-43.77,0
7.661,-39.558,0
7.662,-35.713,0
7.663,-39.192,0
7.664,-29.67,0
7.665,-20.881,0
7.666,-23.445,0
7.667,-21.064,0
7.668,-10.078,0
7.669,-8.064,0
7.67,-6.233,0
7.671,-4.585,0
7.672,-0.19,0
7.673,1.091,0
7.674,-0.007,0
7.675,1.091,0
7.676,6.035,0
7.677,6.951,0
7.678,7.683,0
7.679,9.88,0
7.68,8.049,0
7.681,9.88,0
7.682,6.035,0
7.683,4.753,0
7.684,6.035,0
7.685,7.134,0
7.686,3.655,0
7.687,6.768,0
7.688,6.401,0
7.689,4.57,0
7.69,4.204,0
7.691,2.739,0
7.692,4.021,0
7.693,4.204,0
7.694,0.725,0
7.695,5.303,0
7.696,3.472,0
7.697,0.725,0
7.698,2.007,0
7.699,2.373,0
7.7,-2.205,0
7.701,-0.19,0
7.702,0.359,0
7.703,8.782,0
7.704,27.275,0
7.705,40.642,0
7.706,57.488,0
7.707,42.107,0
7.708,11.895,0
7.709,-27.107,0
7.71,-32.234,0
7.711,-36.995,0
7.712,-32.783,0
7.713,-28.938,0
7.714,-25.459,0
7.715,-22.346,0
7.716,-25.276,0
7.717,-17.402,0
7.718,-15.022,0
7.719,-8.43,0
7.72,-6.416,0
7.721,-8.247,0
7.722,-0.007,0
7.723,1.458,0
7.724,-2.571,0
7.725,5.852,0
7.726,6.951,0
7.727,9.88,0
7.728,16.289,0
7.729,21.965,0
7.73,27.275,0
7.731,26.726,0
7.732,31.121,0
7.733,27.275,0
7.734,21.782,0
7.735,22.515,0
7.736,20.684,0
7.737,16.289,0
7.738,15.74,0
7.739,17.021,0
7.74,10.063,0
7.741,-5.134,0
7.742,-20.515,0
7.743,-22.529,0
7.744,-28.022,0
7.745,-36.262,0
7.746,-34.797,0
7.747,-22.529,0
7.748,-10.994,0
7.749,-12.458,0
7.75,-27.473,0
7.751,-41.572,0
7.752,-59.517,0
7.753,-72.334,0
7.754,-60.798,0
7.755,-83.32,0
7.756,-112.62,0
7.757,-132.21,0
7.758,-128.73,0
7.759,-112.62,0
7.76,-97.786,0
7.761,-73.616,0
7.762,-83.137,0
7.763,-68.306,0
7.764,-28.022,0
7.765,58.586,0
7.766,95.94,0
7.767,107.11,0
7.768,96.855,0
7.769,87.517,0
7.77,62.249,0
7.771,69.939,0
7.772,62.981,0
7.773,56.755,0
7.774,73.967,0
7.775,100.15,0
7.776,123.95,0
7.777,128.17,0
7.778,132.01,0
7.779,128.53,0
7.78,125.42,0
7.781,122.49,0
7.782,114.62,0
7.783,102.53,0
7.784,78.179,0
7.785,62.065,0
7.786,53.276,0
7.787,45.403,0
7.788,43.022,0
7.789,45.22,0
7.79,31.121,0
7.791,18.303,0
7.792,3.289,0
7.793,-2.754,0
7.794,-11.909,0
7.795,-16.853,0
7.796,-18.318,0
7.797,-30.586,0
7.798,-35.53,0
7.799,-43.037,0
7.8,-44.319,0
7.801,-43.22,0
7.802,-48.896,0
7.803,-52.192,0
7.804,-53.108,0
7.805,-39.192,0
7.806,-29.121,0
7.807,-8.979,0
7.808,-11.543,0
7.809,-18.684,0
7.81,-43.037,0
7.811,-72.334,0
7.812,-84.053,0
7.813,-87.532,0
7.814,-84.419,0
7.815,-75.63,0
7.816,-73.066,0
7.817,-65.925,0
7.818,-59.333,0
7.819,-49.263,0
7.82,-43.77,0
7.821,-35.53,0
7.822,-25.093,0
7.823,-21.064,0
7.824,-17.585,0
7.825,-18.684,0
7.826,-7.515,0
7.827,-6.05,0
7.828,0.725,0
7.829,-2.754,0
7.83,5.12,0
7.831,6.035,0
7.832,8.782,0
7.833,4.753,0
7.834,10.063,0
7.835,9.514,0
7.836,8.965,0
7.837,11.711,0
7.838,15.007,0
7.839,13.726,0
7.84,9.88,0
7.841,5.303,0
7.842,9.697,0
7.843,13.542,0
7.844,11.162,0
7.845,12.444,0
7.846,10.43,0
7.847,9.331,0
7.848,9.697,0
7.849,6.951,0
7.85,8.049,0
7.851,9.148,0
7.852,9.88,0
7.853,6.218,0
7.854,7.134,0
7.855,9.514,0
7.856,16.472,0
7.857,27.642,0
7.858,50.164,0
7.859,59.685,0
7.86,38.994,0
7.861,4.021,0
7.862,-19.783,0
7.863,-23.994,0
7.864,-27.839,0
7.865,-24.36,0
7.866,-21.248,0
7.867,-18.318,0
7.868,-15.754,0
7.869,-13.374,0
7.87,-11.177,0
7.871,-5.134,0
7.872,-3.303,0
7.873,-1.655,0
7.874,-0.19,0
7.875,-1.472,0
7.876,4.57,0
7.877,5.669,0
7.878,8.599,0
7.879,7.683,0
7.88,8.416,0
7.881,9.148,0
7.882,5.852,0
7.883,2.739,0
7.884,5.486,0
7.885,2.19,0
7.886,5.303,0
7.887,4.937,0
7.888,3.105,0
7.889,4.937,0
7.89,1.641,0
7.891,3.838,0
7.892,5.852,0
7.893,6.951,0
7.894,2.19,0
7.895,6.584,0
7.896,6.035,0
7.897,3.655,0
7.898,6.768,0
7.899,1.274,0
7.9,-2.571,0
7.901,3.655,0
7.902,2.922,0
7.903,2.19,0
7.904,1.641,0
7.905,4.937,0
7.906,1.824,0
7.907,10.247,0
7.908,11.345,0
7.909,28.374,0
7.91,50.347,0
7.911,29.656,0
7.912,-5.317,0
7.913,-29.121,0
7.914,-33.333,0
7.915,-29.487,0
7.916,-32.966,0
7.917,-29.854,0
7.918,-26.924,0
7.919,-24.36,0
7.92,-17.219,0
7.921,-10.627,0
7.922,-8.613,0
7.923,-3.12,0
7.924,-4.768,0
7.925,-3.303,0
7.926,0.725,0
7.927,-0.374,0
7.928,2.922,0
7.929,5.852,0
7.93,4.937,0
7.931,5.669,0
7.932,3.472,0
7.933,1.641,0
7.934,2.19,0
7.935,1.641,0
7.936,4.937,0
7.937,1.824,0
7.938,3.838,0
7.939,0.359,0
7.94,4.57,0
7.941,4.021,0
7.942,4.387,0
7.943,4.021,0
7.944,5.12,0
7.945,5.486,0
7.946,5.852,0
7.947,3.838,0
7.948,5.669,0
7.949,1.641,0
7.95,-2.205,0
7.951,-5.5,0
7.952,1.458,0
7.953,-1.472,0
7.954,-0.557,0
7.955,1.824,0
7.956,0.542,0
7.957,-1.655,0
7.958,2.922,0
7.959,12.444,0
7.96,32.952,0
7.961,65.544,0
7.962,35.332,0
7.963,-0.19,0
7.964,-23.994,0
7.965,-28.206,0
7.966,-32.051,0
7.967,-35.53,0
7.968,-26.008,0
7.969,-23.079,0
7.97,-25.642,0
7.971,-18.501,0
7.972,-16.304,0
7.973,-10.261,0
7.974,-12.092,0
7.975,-7.148,0
7.976,-2.754,0
7.977,-1.472,0
7.978,-0.374,0
7.979,2.922,0
7.98,2.007,0
7.981,8.416,0
7.982,6.035,0
7.983,3.838,0
7.984,-0.74,0
7.985,2.373,0
7.986,4.021,0
7.987,1.641,0
7.988,6.768,0
7.989,4.937,0
7.99,5.486,0
7.991,0.359,0
7.992,3.655,0
7.993,5.486,0
7.994,6.035,0
7.995,4.753,0
7.996,4.387,0
7.997,8.965,0
7.998,8.416,0
7.999,13.542,0
8,22.515,0
8.001,16.472,0
8.002,4.021,0
8.003,-0.923,0
8.004,-8.43,0
8.005,-9.712,0
8.006,-8.613,0
8.007,-12.642,0
8.008,-9.346,0
8.009,-0.19,0
8.01,18.303,0
8.011,42.473,0
8.012,51.995,0
8.013,49.065,0
8.014,14.092,0
8.015,-19.233,0
8.016,-32.051,0
8.017,-35.896,0
8.018,-32.417,0
8.019,-35.53,0
8.02,-26.741,0
8.021,-24.177,0
8.022,-17.036,0
8.023,-14.839,0
8.024,-12.825,0
8.025,-10.994,0
8.026,-6.05,0
8.027,-1.655,0
8.028,-0.374,0
8.029,3.105,0
8.03,4.204,0
8.031,7.134,0
8.032,2.556,0
8.033,1.824,0
8.034,1.091,0
8.035,1.641,0
8.036,4.753,0
8.037,7.5,0
8.038,6.218,0
8.039,7.5,0
8.04,3.655,0
8.041,2.373,0
8.042,4.57,0
8.043,5.669,0
8.044,8.232,0
8.045,5.669,0
8.046,7.683,0
8.047,5.12,0
8.048,4.021,0
8.049,3.289,0
8.05,0.725,0
8.051,1.091,0
8.052,1.274,0
8.053,4.387,0
8.054,1.641,0
8.055,3.472,0
8.056,1.641,0
8.057,-1.655,0
8.058,0.542,0
8.059,0.908,0
8.06,7.134,0
8.061,21.05,0
8.062,43.206,0
8.063,51.995,0
8.064,59.868,0
8.065,28.191,0
8.066,-10.811,0
8.067,-26.375,0
8.068,-40.657,0
8.069,-44.868,0
8.07,-41.023,0
8.071,-37.544,0
8.072,-34.431,0
8.073,-25.642,0
8.074,-17.769,0
8.075,-15.388,0
8.076,-8.796,0
8.077,-10.811,0
8.078,-1.655,0
8.079,-0.007,0
8.08,1.458,0
8.081,5.486,0
8.082,4.387,0
8.083,5.486,0
8.084,6.401,0
8.085,3.655,0
8.086,6.035,0
8.087,8.232,0
8.088,3.655,0
8.089,6.768,0
8.09,0.542,0
8.091,1.274,0
8.092,3.472,0
8.093,5.303,0
8.094,7.134,0
8.095,8.782,0
8.096,4.204,0
8.097,8.599,0
8.098,3.472,0
8.099,4.021,0
8.1,2.19,0
8.101,1.641,0
8.102,2.007,0
8.103,1.641,0
8.104,0.542,0
8.105,2.373,0
8.106,3.472,0
8.107,1.458,0
8.108,2.19,0
8.109,-1.655,0
8.11,-0.374,0
8.111,3.105,0
8.112,10.613,0
8.113,27.642,0
8.114,44.487,0
8.115,55.474,0
8.116,25.261,0
8.117,-4.951,0
8.118,-32.417,0
8.119,-35.896,0
8.12,-45.417,0
8.121,-36.628,0
8.122,-39.192,0
8.123,-32.051,0
8.124,-29.854,0
8.125,-23.811,0
8.126,-18.318,0
8.127,-13.374,0
8.128,-5.867,0
8.129,-1.838,0
8.13,1.641,0
8.131,2.739,0
8.132,1.824,0
8.133,4.57,0
8.134,5.303,0
8.135,7.5,0
8.136,2.922,0
8.137,4.753,0
8.138,7.5,0
8.139,8.782,0
8.14,1.824,0
8.141,-1.106,0
8.142,3.472,0
8.143,4.204,0
8.144,4.937,0
8.145,6.768,0
8.146,7.317,0
8.147,4.57,0
8.148,4.937,0
8.149,4.57,0
8.15,0.725,0
8.151,1.091,0
8.152,2.373,0
8.153,2.739,0
8.154,0.908,0
8.155,1.274,0
8.156,3.289,0
8.157,3.472,0
8.158,-0.007,0
8.159,-0.374,0
8.16,6.401,0
8.161,0.908,0
8.162,12.444,0
8.163,27.458,0
8.164,33.501,0
8.165,57.305,0
8.166,47.783,0
8.167,21.05,0
8.168,-11.177,0
8.169,-32.783,0
8.17,-44.502,0
8.171,-41.023,0
8.172,-44.136,0
8.173,-35.347,0
8.174,-32.783,0
8.175,-25.642,0
8.176,-19.05,0
8.177,-17.036,0
8.178,-11.543,0
8.179,-3.303,0
8.18,1.091,0
8.181,2.373,0
8.182,1.274,0
8.183,4.57,0
8.184,1.641,0
8.185,4.387,0
8.186,5.12,0
8.187,7.317,0
8.188,6.768,0
8.189,7.317,0
8.19,5.669,0
8.191,6.035,0
8.192,7.317,0
8.193,7.683,0
8.194,9.514,0
8.195,6.951,0
8.196,6.218,0
8.197,6.951,0
8.198,7.683,0
8.199,4.204,0
8.2,-0.374,0
8.201,-2.205,0
8.202,2.922,0
8.203,1.091,0
8.204,1.641,0
8.205,2.19,0
8.206,6.768,0
8.207,-0.19,0
8.208,0.725,0
8.209,1.458,0
8.21,3.655,0
8.211,2.007,0
8.212,2.556,0
8.213,12.078,0
8.214,29.839,0
8.215,41.924,0
8.216,44.121,0
8.217,54.192,0
8.218,26.726,0
8.219,-8.796,0
8.22,-32.6,0
8.221,-36.812,0
8.222,-40.657,0
8.223,-37.178,0
8.224,-40.291,0
8.225,-31.501,0
8.226,-28.938,0
8.227,-21.797,0
8.228,-19.6,0
